Data recorded on Mon Jul 24 14-12-40 CAT 2017
Time: 14:13:7
Time		Millis		IR PPG		Red PPG		Filtered		SSF
13,16	,	147588	,	-6376	,	-5093	,	-6.0135803	,	0
13,16	,	147619	,	-6368	,	-5088	,	-6.344548	,	0
13,16	,	147635	,	-6372	,	-5088	,	-6.8611784	,	0
13,16	,	147667	,	-6360	,	-5085	,	-7.278032	,	0
13,16	,	147684	,	-6346	,	-5084	,	-7.2053766	,	0
13,16	,	147700	,	-6348	,	-5079	,	-6.246973	,	0
13,16	,	147732	,	-6341	,	-5082	,	-4.2744923	,	0
13,16	,	147748	,	-6339	,	-5077	,	-1.4995289	,	1
13,16	,	147764	,	-6339	,	-5085	,	1.685471	,	3
13,16	,	147796	,	-6334	,	-5081	,	4.8353066	,	6
13,16	,	147811	,	-6329	,	-5078	,	7.604232	,	9
13,16	,	147827	,	-6331	,	-5077	,	9.802953	,	11
13,16	,	147859	,	-6327	,	-5070	,	11.314526	,	13
13,16	,	147876	,	-6329	,	-5073	,	12.078968	,	14
13,16	,	147908	,	-6325	,	-5076	,	12.125975	,	14
13,16	,	147924	,	-6334	,	-5072	,	11.529948	,	14
13,16	,	147940	,	-6324	,	-5076	,	10.383454	,	13
13,16	,	147972	,	-6333	,	-5077	,	8.843702	,	11
13,16	,	147988	,	-6328	,	-5071	,	7.09449	,	8
13,16	,	148003	,	-6332	,	-5071	,	5.288205	,	5
13,16	,	148035	,	-6331	,	-5080	,	3.560533	,	3
13,16	,	148052	,	-6331	,	-5071	,	2.0267012	,	1
13,16	,	148083	,	-6343	,	-5078	,	0.7158265	,	0
13,16	,	148100	,	-6336	,	-5079	,	-0.45801926	,	0
13,16	,	148115	,	-6337	,	-5076	,	-1.5342628	,	0
13,16	,	148147	,	-6341	,	-5076	,	-2.437058	,	0
13,16	,	148163	,	-6341	,	-5077	,	-3.1226351	,	0
13,16	,	148179	,	-6343	,	-5079	,	-3.6074877	,	0
13,16	,	148211	,	-6346	,	-5077	,	-3.9267855	,	0
13,16	,	148227	,	-6347	,	-5077	,	-4.143199	,	0
13,16	,	148244	,	-6347	,	-5078	,	-4.305892	,	0
13,16	,	148275	,	-6352	,	-5085	,	-4.427286	,	0
13,16	,	148291	,	-6354	,	-5084	,	-4.5398273	,	0
13,16	,	148323	,	-6353	,	-5079	,	-4.689229	,	0
13,16	,	148339	,	-6361	,	-5083	,	-4.889679	,	0
13,16	,	148355	,	-6358	,	-5080	,	-5.1451054	,	0
13,16	,	148387	,	-6358	,	-5079	,	-5.4185343	,	0
13,16	,	148403	,	-6364	,	-5078	,	-5.6317167	,	0
13,16	,	148420	,	-6365	,	-5093	,	-5.769565	,	0
13,16	,	148452	,	-6364	,	-5085	,	-5.85705	,	0
13,16	,	148467	,	-6374	,	-5091	,	-5.907316	,	0
13,16	,	148499	,	-6374	,	-5094	,	-5.9883165	,	0
13,16	,	148515	,	-6372	,	-5090	,	-6.161157	,	0
13,16	,	148531	,	-6372	,	-5083	,	-6.3505363	,	0
13,16	,	148563	,	-6368	,	-5080	,	-6.391614	,	0
13,16	,	148579	,	-6354	,	-5076	,	-6.074458	,	0
13,17	,	148596	,	-6351	,	-5071	,	-5.134263	,	0
13,17	,	148627	,	-6345	,	-5074	,	-3.39942	,	0
13,17	,	148643	,	-6347	,	-5071	,	-0.9650841	,	1
13,17	,	148659	,	-6340	,	-5071	,	1.8485303	,	3
13,17	,	148691	,	-6336	,	-5072	,	4.697203	,	5
13,17	,	148707	,	-6337	,	-5070	,	7.319069	,	7
13,17	,	148739	,	-6339	,	-5072	,	9.461234	,	9
13,17	,	148755	,	-6339	,	-5076	,	10.862509	,	11
13,17	,	148771	,	-6335	,	-5067	,	11.385438	,	12
13,17	,	148803	,	-6336	,	-5075	,	11.099058	,	12
13,17	,	148819	,	-6330	,	-5069	,	10.225919	,	12
13,17	,	148835	,	-6336	,	-5068	,	9.028053	,	11
13,17	,	148867	,	-6335	,	-5065	,	7.6797066	,	9
13,17	,	148883	,	-6329	,	-5071	,	6.2792325	,	7
13,17	,	148915	,	-6335	,	-5067	,	4.9491014	,	5
13,17	,	148931	,	-6333	,	-5070	,	3.7798355	,	3
13,17	,	148947	,	-6338	,	-5069	,	2.76257	,	1
13,17	,	148979	,	-6337	,	-5073	,	1.8375194	,	0
13,17	,	148995	,	-6336	,	-5068	,	0.9715216	,	0
13,17	,	149011	,	-6342	,	-5063	,	0.17571294	,	0
13,17	,	149043	,	-6341	,	-5067	,	-0.56029856	,	0
13,17	,	149059	,	-6349	,	-5072	,	-1.2910864	,	0
13,17	,	149075	,	-6340	,	-5068	,	-2.0485785	,	0
13,17	,	149107	,	-6339	,	-5065	,	-2.7377298	,	0
13,17	,	149123	,	-6348	,	-5064	,	-3.205358	,	0
13,17	,	149155	,	-6353	,	-5067	,	-3.4778764	,	0
13,17	,	149171	,	-6349	,	-5073	,	-3.725657	,	0
13,17	,	149187	,	-6348	,	-5070	,	-3.999928	,	0
13,17	,	149219	,	-6354	,	-5069	,	-4.219183	,	0
13,17	,	149235	,	-6350	,	-5073	,	-4.3273344	,	0
13,17	,	149251	,	-6352	,	-5066	,	-4.2997274	,	0
13,17	,	149283	,	-6356	,	-5073	,	-4.1315293	,	0
13,17	,	149299	,	-6361	,	-5072	,	-3.914103	,	0
13,17	,	149331	,	-6360	,	-5072	,	-3.7978675	,	0
13,17	,	149347	,	-6366	,	-5074	,	-3.8730464	,	0
13,17	,	149363	,	-6367	,	-5068	,	-4.154142	,	0
13,17	,	149395	,	-6368	,	-5072	,	-4.604758	,	0
13,17	,	149411	,	-6367	,	-5071	,	-5.122078	,	0
13,17	,	149427	,	-6368	,	-5065	,	-5.559476	,	0
13,17	,	149459	,	-6361	,	-5061	,	-5.7647667	,	0
13,17	,	149475	,	-6345	,	-5059	,	-5.514207	,	0
13,17	,	149491	,	-6344	,	-5058	,	-4.504083	,	0
13,17	,	149523	,	-6346	,	-5051	,	-2.6196241	,	1
13,17	,	149539	,	-6338	,	-5057	,	-0.09754753	,	2
13,17	,	149571	,	-6339	,	-5045	,	2.678254	,	4
13,17	,	149587	,	-6332	,	-5050	,	5.372001	,	6
13,18	,	149603	,	-6332	,	-5049	,	7.7436733	,	8
13,18	,	149635	,	-6324	,	-5043	,	9.663082	,	10
13,18	,	149651	,	-6326	,	-5050	,	11.087322	,	11
13,18	,	149667	,	-6331	,	-5042	,	11.959507	,	12
13,18	,	149699	,	-6328	,	-5043	,	12.157534	,	12
13,18	,	149715	,	-6329	,	-5051	,	11.62828	,	11
13,18	,	149747	,	-6325	,	-5046	,	10.488337	,	10
13,18	,	149763	,	-6327	,	-5044	,	8.959969	,	8
13,18	,	149779	,	-6326	,	-5046	,	7.270532	,	6
13,18	,	149811	,	-6327	,	-5044	,	5.595922	,	4
13,18	,	149827	,	-6332	,	-5043	,	4.031575	,	2
13,18	,	149843	,	-6332	,	-5047	,	2.5855603	,	1
13,18	,	149874	,	-6331	,	-5044	,	1.2523811	,	0
13,18	,	149890	,	-6330	,	-5050	,	0.08829129	,	0
13,18	,	149922	,	-6333	,	-5050	,	-0.82850015	,	0
13,18	,	149939	,	-6330	,	-5052	,	-1.4661927	,	0
13,18	,	149955	,	-6339	,	-5049	,	-1.8695556	,	0
13,18	,	149987	,	-6338	,	-5046	,	-2.1626527	,	0
13,18	,	150003	,	-6335	,	-5045	,	-2.4407153	,	0
13,18	,	150019	,	-6343	,	-5056	,	-2.7028828	,	0
13,18	,	150051	,	-6338	,	-5054	,	-2.9412537	,	0
13,18	,	150067	,	-6340	,	-5046	,	-3.1377585	,	0
13,18	,	150083	,	-6349	,	-5054	,	-3.2750115	,	0
13,18	,	150115	,	-6348	,	-5057	,	-3.435733	,	0
13,18	,	150131	,	-6343	,	-5054	,	-3.6863246	,	0
13,18	,	150163	,	-6353	,	-5057	,	-3.970765	,	0
13,18	,	150179	,	-6349	,	-5052	,	-4.2360115	,	0
13,18	,	150195	,	-6353	,	-5063	,	-4.4648037	,	0
13,18	,	150226	,	-6359	,	-5056	,	-4.6569333	,	0
13,18	,	150243	,	-6359	,	-5057	,	-4.8780084	,	0
13,18	,	150259	,	-6360	,	-5066	,	-5.178536	,	0
13,18	,	150290	,	-6362	,	-5061	,	-5.5137315	,	0
13,18	,	150306	,	-6358	,	-5058	,	-5.7861376	,	0
13,18	,	150339	,	-6347	,	-5056	,	-5.821978	,	0
13,18	,	150355	,	-6340	,	-5050	,	-5.33794	,	0
13,18	,	150371	,	-6337	,	-5055	,	-4.089225	,	0
13,18	,	150403	,	-6332	,	-5048	,	-2.0507388	,	1
13,18	,	150419	,	-6330	,	-5052	,	0.57429004	,	3
13,18	,	150434	,	-6323	,	-5048	,	3.4710438	,	5
13,18	,	150466	,	-6327	,	-5055	,	6.308951	,	7
13,18	,	150482	,	-6322	,	-5050	,	8.764468	,	9
13,18	,	150498	,	-6323	,	-5048	,	10.575876	,	11
13,18	,	150531	,	-6317	,	-5051	,	11.634348	,	12
13,18	,	150546	,	-6321	,	-5053	,	11.979479	,	13
13,18	,	150578	,	-6325	,	-5050	,	11.678238	,	13
13,19	,	150594	,	-6322	,	-5049	,	10.7662115	,	12
13,19	,	150610	,	-6315	,	-5051	,	9.3761835	,	10
13,19	,	150642	,	-6319	,	-5050	,	7.7851954	,	8
13,19	,	150658	,	-6317	,	-5053	,	6.238856	,	6
13,19	,	150675	,	-6326	,	-5048	,	4.821799	,	4
13,19	,	150706	,	-6326	,	-5055	,	3.48011	,	2
13,19	,	150722	,	-6323	,	-5056	,	2.1546438	,	1
13,19	,	150754	,	-6327	,	-5059	,	0.8885474	,	0
13,19	,	150770	,	-6331	,	-5056	,	-0.26056015	,	0
13,19	,	150786	,	-6329	,	-5057	,	-1.2905113	,	0
13,19	,	150818	,	-6326	,	-5056	,	-2.1636248	,	0
13,19	,	150834	,	-6330	,	-5059	,	-2.7955384	,	0
13,19	,	150851	,	-6331	,	-5062	,	-3.1612966	,	0
13,19	,	150882	,	-6334	,	-5060	,	-3.3261747	,	0
13,19	,	150898	,	-6335	,	-5062	,	-3.3888745	,	0
13,19	,	150914	,	-6340	,	-5060	,	-3.445148	,	0
13,19	,	150946	,	-6330	,	-5063	,	-3.5337563	,	0
13,19	,	150962	,	-6343	,	-5059	,	-3.6116567	,	0
13,19	,	150994	,	-6344	,	-5064	,	-3.6958609	,	0
13,19	,	151010	,	-6348	,	-5068	,	-3.9088001	,	0
13,19	,	151026	,	-6348	,	-5067	,	-4.3150196	,	0
13,19	,	151058	,	-6351	,	-5064	,	-4.8610797	,	0
13,19	,	151074	,	-6352	,	-5066	,	-5.447406	,	0
13,19	,	151090	,	-6352	,	-5068	,	-5.9738307	,	0
13,19	,	151122	,	-6356	,	-5069	,	-6.3605366	,	0
13,19	,	151138	,	-6356	,	-5073	,	-6.575727	,	0
13,19	,	151170	,	-6359	,	-5069	,	-6.6272416	,	0
13,19	,	151186	,	-6347	,	-5071	,	-6.483988	,	0
13,19	,	151202	,	-6349	,	-5064	,	-6.019447	,	0
13,19	,	151234	,	-6337	,	-5061	,	-5.078017	,	0
13,19	,	151250	,	-6329	,	-5052	,	-3.5316412	,	0
13,19	,	151266	,	-6333	,	-5056	,	-1.3503234	,	1
13,19	,	151298	,	-6326	,	-5057	,	1.2736764	,	3
13,19	,	151314	,	-6317	,	-5048	,	4.0520396	,	5
13,19	,	151330	,	-6318	,	-5057	,	6.782552	,	7
13,19	,	151362	,	-6322	,	-5058	,	9.237179	,	9
13,19	,	151378	,	-6320	,	-5054	,	11.089372	,	11
13,19	,	151410	,	-6316	,	-5056	,	12.105083	,	12
13,19	,	151426	,	-6310	,	-5059	,	12.315346	,	13
13,19	,	151442	,	-6315	,	-5050	,	11.928743	,	13
13,19	,	151474	,	-6309	,	-5054	,	11.132102	,	12
13,19	,	151490	,	-6311	,	-5054	,	10.059874	,	10
13,19	,	151506	,	-6313	,	-5055	,	8.822128	,	8
13,19	,	151538	,	-6311	,	-5056	,	7.48077	,	6
13,19	,	151554	,	-6316	,	-5058	,	6.0769334	,	4
13,19	,	151586	,	-6320	,	-5059	,	4.6227846	,	2
13,20	,	151602	,	-6308	,	-5060	,	3.1459458	,	1
13,20	,	151618	,	-6318	,	-5059	,	1.7857614	,	0
13,20	,	151650	,	-6315	,	-5060	,	0.6715524	,	0
13,20	,	151666	,	-6315	,	-5065	,	-0.17580485	,	0
13,20	,	151682	,	-6320	,	-5059	,	-0.782021	,	0
13,20	,	151714	,	-6321	,	-5065	,	-1.2270536	,	0
13,20	,	151730	,	-6321	,	-5061	,	-1.6128811	,	0
13,20	,	151746	,	-6319	,	-5058	,	-1.964267	,	0
13,20	,	151778	,	-6325	,	-5061	,	-2.252462	,	0
13,20	,	151794	,	-6324	,	-5064	,	-2.4881382	,	0
13,20	,	151826	,	-6326	,	-5064	,	-2.7101018	,	0
13,20	,	151842	,	-6326	,	-5065	,	-2.9259622	,	0
13,20	,	151858	,	-6330	,	-5067	,	-3.1321797	,	0
13,20	,	151890	,	-6332	,	-5073	,	-3.3543978	,	0
13,20	,	151906	,	-6333	,	-5073	,	-3.626598	,	0
13,20	,	151922	,	-6331	,	-5066	,	-3.9262433	,	0
13,20	,	151954	,	-6340	,	-5074	,	-4.198147	,	0
13,20	,	151970	,	-6337	,	-5073	,	-4.449032	,	0
13,20	,	152002	,	-6340	,	-5069	,	-4.704801	,	0
13,20	,	152018	,	-6334	,	-5073	,	-4.9098845	,	0
13,20	,	152034	,	-6334	,	-5066	,	-4.9392996	,	0
13,20	,	152066	,	-6324	,	-5062	,	-4.640855	,	0
13,20	,	152082	,	-6319	,	-5063	,	-3.8466003	,	0
13,20	,	152098	,	-6310	,	-5062	,	-2.416112	,	0
13,20	,	152130	,	-6304	,	-5060	,	-0.30453706	,	1
13,20	,	152146	,	-6311	,	-5067	,	2.339157	,	3
13,20	,	152162	,	-6308	,	-5061	,	5.1108603	,	5
13,20	,	152194	,	-6302	,	-5060	,	7.5596356	,	7
13,20	,	152210	,	-6298	,	-5056	,	9.462848	,	9
13,20	,	152242	,	-6300	,	-5062	,	10.785025	,	10
13,20	,	152258	,	-6299	,	-5055	,	11.506915	,	11
13,20	,	152274	,	-6299	,	-5061	,	11.604843	,	11
13,20	,	152306	,	-6300	,	-5060	,	11.099939	,	11
13,20	,	152322	,	-6299	,	-5059	,	10.072716	,	10
13,20	,	152338	,	-6307	,	-5063	,	8.631732	,	8
13,20	,	152370	,	-6299	,	-5057	,	6.890643	,	6
13,20	,	152386	,	-6305	,	-5062	,	5.0132146	,	4
13,20	,	152418	,	-6294	,	-5061	,	3.2293482	,	2
13,20	,	152434	,	-6302	,	-5064	,	1.7643342	,	1
13,20	,	152450	,	-6305	,	-5062	,	0.69778943	,	0
13,20	,	152482	,	-6306	,	-5062	,	-0.083076715	,	0
13,20	,	152498	,	-6304	,	-5064	,	-0.7102906	,	0
13,20	,	152514	,	-6303	,	-5066	,	-1.2019341	,	0
13,20	,	152546	,	-6308	,	-5064	,	-1.5342221	,	0
13,20	,	152562	,	-6308	,	-5069	,	-1.745305	,	0
13,21	,	152593	,	-6311	,	-5065	,	-1.9193685	,	0
13,21	,	152609	,	-6316	,	-5063	,	-2.1437936	,	0
13,21	,	152626	,	-6321	,	-5070	,	-2.522997	,	0
13,21	,	152658	,	-6320	,	-5064	,	-3.1349769	,	0
13,21	,	152674	,	-6329	,	-5071	,	-3.9704585	,	0
13,21	,	152690	,	-6324	,	-5073	,	-4.952875	,	0
13,21	,	152722	,	-6328	,	-5068	,	-5.94436	,	0
13,21	,	152738	,	-6332	,	-5069	,	-6.7984395	,	0
13,21	,	152754	,	-6332	,	-5074	,	-7.4527254	,	0
13,21	,	152785	,	-6334	,	-5074	,	-7.889241	,	0
13,21	,	152801	,	-6337	,	-5077	,	-8.093723	,	0
13,21	,	152834	,	-6345	,	-5079	,	-8.122233	,	0
13,21	,	152850	,	-6346	,	-5072	,	-8.117353	,	0
13,21	,	152866	,	-6339	,	-5068	,	-8.151755	,	0
13,21	,	152898	,	-6327	,	-5065	,	-8.041186	,	0
13,21	,	152914	,	-6325	,	-5062	,	-7.419786	,	0
13,21	,	152930	,	-6308	,	-5064	,	-5.9736857	,	0
13,21	,	152961	,	-6315	,	-5065	,	-3.5927656	,	1
13,21	,	152977	,	-6312	,	-5064	,	-0.5034859	,	3
13,21	,	153009	,	-6312	,	-5064	,	2.7813628	,	6
13,21	,	153026	,	-6305	,	-5058	,	5.7706747	,	9
13,21	,	153042	,	-6311	,	-5061	,	8.159527	,	11
13,21	,	153074	,	-6309	,	-5056	,	9.755749	,	13
13,21	,	153090	,	-6308	,	-5065	,	10.4611225	,	14
13,21	,	153105	,	-6308	,	-5061	,	10.3296795	,	14
13,21	,	153137	,	-6314	,	-5059	,	9.504213	,	14
13,21	,	153153	,	-6307	,	-5067	,	8.146323	,	13
13,21	,	153169	,	-6311	,	-5058	,	6.4790306	,	11
13,21	,	153201	,	-6314	,	-5056	,	4.730388	,	8
13,21	,	153218	,	-6308	,	-5065	,	3.0554	,	5
13,21	,	153250	,	-6309	,	-5061	,	1.6006317	,	3
13,21	,	153265	,	-6315	,	-5067	,	0.46911812	,	1
13,21	,	153281	,	-6315	,	-5063	,	-0.38214326	,	0
13,21	,	153313	,	-6316	,	-5064	,	-1.0582438	,	0
13,21	,	153329	,	-6325	,	-5067	,	-1.6528696	,	0
13,21	,	153345	,	-6324	,	-5066	,	-2.28758	,	0
13,21	,	153377	,	-6320	,	-5064	,	-3.0115592	,	0
13,21	,	153393	,	-6333	,	-5070	,	-3.7477422	,	0
13,21	,	153425	,	-6326	,	-5068	,	-4.443666	,	0
13,21	,	153441	,	-6334	,	-5072	,	-5.0841713	,	0
13,21	,	153457	,	-6329	,	-5069	,	-5.6146064	,	0
13,21	,	153489	,	-6336	,	-5072	,	-5.9755564	,	0
13,21	,	153505	,	-6337	,	-5070	,	-6.165721	,	0
13,21	,	153521	,	-6333	,	-5072	,	-6.2123413	,	0
13,21	,	153553	,	-6345	,	-5074	,	-6.1290693	,	0
13,21	,	153569	,	-6348	,	-5071	,	-6.0202694	,	0
13,21	,	153585	,	-6349	,	-5081	,	-6.0624495	,	0
13,22	,	153617	,	-6343	,	-5076	,	-6.280959	,	0
13,22	,	153633	,	-6346	,	-5073	,	-6.4998913	,	0
13,22	,	153665	,	-6352	,	-5079	,	-6.5570736	,	0
13,22	,	153681	,	-6352	,	-5078	,	-6.4603353	,	0
13,22	,	153697	,	-6359	,	-5076	,	-6.316556	,	0
13,22	,	153729	,	-6347	,	-5074	,	-6.1846275	,	0
13,22	,	153745	,	-6344	,	-5068	,	-5.9471064	,	0
13,22	,	153761	,	-6336	,	-5065	,	-5.3434467	,	0
13,22	,	153793	,	-6331	,	-5062	,	-4.149352	,	0
13,22	,	153809	,	-6326	,	-5065	,	-2.2875562	,	1
13,22	,	153842	,	-6332	,	-5063	,	0.10125613	,	2
13,22	,	153857	,	-6323	,	-5062	,	2.6751585	,	4
13,22	,	153873	,	-6318	,	-5064	,	5.1143646	,	6
13,22	,	153905	,	-6319	,	-5062	,	7.257401	,	8
13,22	,	153921	,	-6320	,	-5061	,	8.972084	,	10
13,22	,	153937	,	-6314	,	-5063	,	10.113444	,	11
13,22	,	153969	,	-6315	,	-5064	,	10.644632	,	12
13,22	,	153985	,	-6312	,	-5062	,	10.63806	,	12
13,22	,	154001	,	-6313	,	-5060	,	10.19149	,	11
13,22	,	154033	,	-6319	,	-5063	,	9.370364	,	10
13,22	,	154049	,	-6315	,	-5059	,	8.199326	,	8
13,22	,	154081	,	-6323	,	-5065	,	6.7208695	,	6
13,22	,	154097	,	-6317	,	-5065	,	5.0283737	,	4
13,22	,	154113	,	-6321	,	-5063	,	3.2684524	,	2
13,22	,	154145	,	-6323	,	-5066	,	1.5932918	,	1
13,22	,	154161	,	-6317	,	-5061	,	0.118243456	,	0
13,22	,	154177	,	-6321	,	-5066	,	-1.0352817	,	0
13,22	,	154209	,	-6324	,	-5068	,	-1.8008313	,	0
13,22	,	154225	,	-6325	,	-5067	,	-2.2546086	,	0
13,22	,	154257	,	-6322	,	-5064	,	-2.5141375	,	0
13,22	,	154273	,	-6332	,	-5070	,	-2.659995	,	0
13,22	,	154289	,	-6329	,	-5068	,	-2.7875571	,	0
13,22	,	154321	,	-6338	,	-5072	,	-3.0020375	,	0
13,22	,	154337	,	-6334	,	-5072	,	-3.3670945	,	0
13,22	,	154353	,	-6332	,	-5076	,	-3.8378336	,	0
13,22	,	154385	,	-6335	,	-5071	,	-4.251799	,	0
13,22	,	154401	,	-6336	,	-5071	,	-4.479512	,	0
13,22	,	154433	,	-6341	,	-5069	,	-4.528147	,	0
13,22	,	154449	,	-6341	,	-5070	,	-4.4934864	,	0
13,22	,	154465	,	-6336	,	-5071	,	-4.436511	,	0
13,22	,	154497	,	-6344	,	-5072	,	-4.335165	,	0
13,22	,	154513	,	-6343	,	-5070	,	-4.1907663	,	0
13,22	,	154529	,	-6347	,	-5075	,	-4.0599766	,	0
13,22	,	154561	,	-6354	,	-5079	,	-4.019949	,	0
13,22	,	154577	,	-6352	,	-5078	,	-4.16318	,	0
13,23	,	154593	,	-6352	,	-5074	,	-4.499319	,	0
13,23	,	154625	,	-6344	,	-5068	,	-4.870851	,	0
13,23	,	154641	,	-6328	,	-5063	,	-4.944515	,	0
13,23	,	154673	,	-6324	,	-5063	,	-4.2862215	,	0
13,23	,	154689	,	-6327	,	-5065	,	-2.6636996	,	0
13,23	,	154705	,	-6321	,	-5063	,	-0.26018763	,	1
13,23	,	154737	,	-6324	,	-5056	,	2.4917362	,	3
13,23	,	154753	,	-6316	,	-5058	,	5.160138	,	5
13,23	,	154769	,	-6318	,	-5059	,	7.4419956	,	7
13,23	,	154801	,	-6313	,	-5058	,	9.173447	,	9
13,23	,	154817	,	-6310	,	-5060	,	10.301842	,	10
13,23	,	154849	,	-6311	,	-5059	,	10.863218	,	11
13,23	,	154865	,	-6313	,	-5054	,	10.898098	,	11
13,23	,	154881	,	-6309	,	-5054	,	10.433304	,	11
13,23	,	154912	,	-6312	,	-5055	,	9.545902	,	10
13,23	,	154928	,	-6310	,	-5059	,	8.348458	,	8
13,23	,	154945	,	-6316	,	-5055	,	6.937758	,	6
13,23	,	154977	,	-6314	,	-5058	,	5.3891625	,	4
13,23	,	154993	,	-6316	,	-5060	,	3.7930584	,	2
13,23	,	155009	,	-6312	,	-5054	,	2.2799876	,	1
13,23	,	155041	,	-6314	,	-5061	,	0.99181724	,	0
13,23	,	155057	,	-6313	,	-5054	,	0.022407174	,	0
13,23	,	155088	,	-6322	,	-5056	,	-0.6526911	,	0
13,23	,	155104	,	-6318	,	-5060	,	-1.1627082	,	0
13,23	,	155120	,	-6320	,	-5061	,	-1.6024295	,	0
13,23	,	155152	,	-6319	,	-5058	,	-1.9695013	,	0
13,23	,	155169	,	-6325	,	-5061	,	-2.2523632	,	0
13,23	,	155185	,	-6326	,	-5053	,	-2.497728	,	0
13,23	,	155217	,	-6323	,	-5064	,	-2.7533047	,	0
13,23	,	155233	,	-6326	,	-5057	,	-2.9919827	,	0
13,23	,	155265	,	-6332	,	-5069	,	-3.185641	,	0
13,23	,	155281	,	-6331	,	-5062	,	-3.388365	,	0
13,23	,	155297	,	-6339	,	-5067	,	-3.683145	,	0
13,23	,	155328	,	-6337	,	-5060	,	-4.1239557	,	0
13,23	,	155344	,	-6338	,	-5062	,	-4.688107	,	0
13,23	,	155361	,	-6336	,	-5069	,	-5.24511	,	0
13,23	,	155393	,	-6341	,	-5063	,	-5.64248	,	0
13,23	,	155408	,	-6344	,	-5063	,	-5.836772	,	0
13,23	,	155425	,	-6344	,	-5067	,	-5.8938527	,	0
13,23	,	155457	,	-6346	,	-5065	,	-5.8768244	,	0
13,23	,	155472	,	-6340	,	-5057	,	-5.771839	,	0
13,23	,	155504	,	-6328	,	-5053	,	-5.429753	,	0
13,23	,	155520	,	-6322	,	-5047	,	-4.5694456	,	0
13,23	,	155537	,	-6317	,	-5058	,	-2.9658432	,	0
13,23	,	155569	,	-6314	,	-5046	,	-0.6318226	,	1
13,23	,	155584	,	-6310	,	-5050	,	2.1967719	,	3
13,24	,	155600	,	-6309	,	-5048	,	5.1698847	,	5
13,24	,	155632	,	-6305	,	-5048	,	7.927365	,	7
13,24	,	155648	,	-6303	,	-5045	,	10.196425	,	9
13,24	,	155681	,	-6299	,	-5043	,	11.84151	,	11
13,24	,	155697	,	-6301	,	-5046	,	12.825064	,	12
13,24	,	155712	,	-6299	,	-5046	,	13.139832	,	12
13,24	,	155744	,	-6297	,	-5042	,	12.82427	,	12
13,24	,	155760	,	-6290	,	-5039	,	12.031466	,	11
13,24	,	155776	,	-6302	,	-5039	,	10.953535	,	9
13,24	,	155808	,	-6300	,	-5038	,	9.648987	,	7
13,24	,	155824	,	-6295	,	-5049	,	8.12153	,	5
13,24	,	155840	,	-6299	,	-5047	,	6.4943113	,	3
13,24	,	155872	,	-6304	,	-5047	,	4.900016	,	1
13,24	,	155889	,	-6300	,	-5048	,	3.3699286	,	0
13,24	,	155920	,	-6304	,	-5048	,	1.931674	,	0
13,24	,	155936	,	-6303	,	-5039	,	0.65049434	,	0
13,24	,	155952	,	-6300	,	-5042	,	-0.4033773	,	0
13,24	,	155984	,	-6314	,	-5048	,	-1.2175646	,	0
13,24	,	156000	,	-6307	,	-5050	,	-1.8934236	,	0
13,24	,	156016	,	-6308	,	-5048	,	-2.5014634	,	0
13,24	,	156048	,	-6311	,	-5041	,	-2.9928186	,	0
13,24	,	156064	,	-6313	,	-5048	,	-3.3418608	,	0
13,24	,	156096	,	-6312	,	-5051	,	-3.5822697	,	0
13,24	,	156112	,	-6317	,	-5046	,	-3.7404575	,	0
13,24	,	156128	,	-6321	,	-5053	,	-3.8662977	,	0
13,24	,	156160	,	-6316	,	-5050	,	-4.0219936	,	0
13,24	,	156176	,	-6324	,	-5046	,	-4.2066784	,	0
13,24	,	156192	,	-6328	,	-5049	,	-4.4269047	,	0
13,24	,	156224	,	-6326	,	-5047	,	-4.742067	,	0
13,24	,	156240	,	-6326	,	-5052	,	-5.1319957	,	0
13,24	,	156256	,	-6327	,	-5059	,	-5.468456	,	0
13,24	,	156288	,	-6334	,	-5048	,	-5.664445	,	0
13,24	,	156304	,	-6335	,	-5054	,	-5.763685	,	0
13,24	,	156336	,	-6340	,	-5058	,	-5.871914	,	0
13,24	,	156352	,	-6327	,	-5046	,	-6.004016	,	0
13,24	,	156368	,	-6318	,	-5044	,	-5.93804	,	0
13,24	,	156400	,	-6309	,	-5048	,	-5.2697473	,	0
13,24	,	156416	,	-6309	,	-5040	,	-3.7146654	,	0
13,24	,	156432	,	-6309	,	-5040	,	-1.3535681	,	1
13,24	,	156464	,	-6299	,	-5037	,	1.4601521	,	3
13,24	,	156480	,	-6306	,	-5039	,	4.3433175	,	5
13,24	,	156512	,	-6298	,	-5043	,	6.9516115	,	7
13,24	,	156528	,	-6294	,	-5035	,	9.041106	,	9
13,24	,	156544	,	-6290	,	-5040	,	10.558956	,	11
13,24	,	156576	,	-6302	,	-5040	,	11.501648	,	12
13,25	,	156592	,	-6293	,	-5040	,	11.778357	,	12
13,25	,	156608	,	-6285	,	-5033	,	11.403845	,	12
13,25	,	156640	,	-6292	,	-5034	,	10.606307	,	11
13,25	,	156656	,	-6293	,	-5040	,	9.566042	,	9
13,25	,	156672	,	-6290	,	-5028	,	8.322352	,	7
13,25	,	156704	,	-6292	,	-5031	,	6.9389625	,	5
13,25	,	156720	,	-6292	,	-5038	,	5.5186563	,	3
13,25	,	156752	,	-6293	,	-5033	,	4.141692	,	1
13,25	,	156768	,	-6296	,	-5030	,	2.8613708	,	0
13,25	,	156784	,	-6292	,	-5032	,	1.7101893	,	0
13,25	,	156816	,	-6300	,	-5037	,	0.7045398	,	0
13,25	,	156832	,	-6307	,	-5032	,	-0.21721172	,	0
13,25	,	156848	,	-6302	,	-5026	,	-1.17802	,	0
13,25	,	156880	,	-6306	,	-5032	,	-2.197016	,	0
13,25	,	156896	,	-6302	,	-5036	,	-3.1576512	,	0
13,25	,	156928	,	-6307	,	-5039	,	-3.9220583	,	0
13,25	,	156944	,	-6306	,	-5041	,	-4.417687	,	0
13,25	,	156960	,	-6307	,	-5032	,	-4.639962	,	0
13,25	,	156992	,	-6314	,	-5037	,	-4.642253	,	0
13,25	,	157008	,	-6315	,	-5032	,	-4.5652056	,	0
13,25	,	157024	,	-6318	,	-5040	,	-4.5682096	,	0
13,25	,	157056	,	-6314	,	-5033	,	-4.697068	,	0
13,25	,	157072	,	-6323	,	-5035	,	-4.8934555	,	0
13,25	,	157104	,	-6321	,	-5038	,	-5.1198263	,	0
13,25	,	157120	,	-6323	,	-5036	,	-5.3681936	,	0
13,25	,	157136	,	-6324	,	-5033	,	-5.588314	,	0
13,25	,	157168	,	-6330	,	-5036	,	-5.7390833	,	0
13,25	,	157184	,	-6330	,	-5036	,	-5.850821	,	0
13,25	,	157200	,	-6331	,	-5034	,	-5.9595127	,	0
13,25	,	157232	,	-6330	,	-5039	,	-6.0308294	,	0
13,25	,	157248	,	-6329	,	-5035	,	-5.9763203	,	0
13,25	,	157264	,	-6309	,	-5026	,	-5.62131	,	0
13,25	,	157296	,	-6309	,	-5020	,	-4.665739	,	0
13,25	,	157312	,	-6302	,	-5019	,	-2.8942204	,	0
13,25	,	157344	,	-6301	,	-5019	,	-0.38634014	,	1
13,25	,	157360	,	-6306	,	-5016	,	2.506339	,	3
13,25	,	157376	,	-6296	,	-5019	,	5.311618	,	5
13,25	,	157408	,	-6292	,	-5014	,	7.698313	,	7
13,25	,	157423	,	-6291	,	-5014	,	9.567167	,	9
13,25	,	157439	,	-6285	,	-5015	,	10.908696	,	10
13,25	,	157472	,	-6284	,	-5015	,	11.752903	,	11
13,25	,	157488	,	-6289	,	-5010	,	12.132875	,	11
13,25	,	157520	,	-6283	,	-5001	,	12.028726	,	11
13,25	,	157536	,	-6285	,	-5006	,	11.450636	,	10
13,25	,	157552	,	-6287	,	-5003	,	10.472244	,	8
13,25	,	157583	,	-6286	,	-5008	,	9.166052	,	6
13,26	,	157599	,	-6291	,	-5010	,	7.6029162	,	4
13,26	,	157616	,	-6286	,	-5017	,	5.8789196	,	2
13,26	,	157648	,	-6291	,	-5020	,	4.1286564	,	1
13,26	,	157664	,	-6291	,	-5012	,	2.4815006	,	0
13,26	,	157680	,	-6289	,	-5015	,	1.0232503	,	0
13,26	,	157712	,	-6295	,	-5019	,	-0.18964231	,	0
13,26	,	157727	,	-6292	,	-5013	,	-1.1477644	,	0
13,26	,	157759	,	-6295	,	-5018	,	-1.8705087	,	0
13,26	,	157775	,	-6299	,	-5019	,	-2.3917074	,	0
13,26	,	157791	,	-6298	,	-5020	,	-2.7816176	,	0
13,26	,	157824	,	-6296	,	-5022	,	-3.0771816	,	0
13,26	,	157840	,	-6306	,	-5023	,	-3.2780695	,	0
13,26	,	157855	,	-6309	,	-5027	,	-3.4792535	,	0
13,26	,	157887	,	-6312	,	-5019	,	-3.8461113	,	0
13,26	,	157903	,	-6311	,	-5023	,	-4.4410934	,	0
13,26	,	157935	,	-6313	,	-5026	,	-5.1725283	,	0
13,26	,	157952	,	-6311	,	-5023	,	-5.8687034	,	0
13,26	,	157968	,	-6313	,	-5024	,	-6.357505	,	0
13,26	,	157999	,	-6316	,	-5026	,	-6.5438256	,	0
13,26	,	158015	,	-6319	,	-5038	,	-6.459053	,	0
13,26	,	158031	,	-6324	,	-5034	,	-6.2320595	,	0
13,26	,	158063	,	-6326	,	-5034	,	-6.0194497	,	0
13,26	,	158079	,	-6328	,	-5037	,	-5.933448	,	0
13,26	,	158111	,	-6331	,	-5034	,	-6.007162	,	0
13,26	,	158128	,	-6332	,	-5035	,	-6.214916	,	0
13,26	,	158144	,	-6333	,	-5034	,	-6.4887366	,	0
13,26	,	158175	,	-6334	,	-5034	,	-6.7315807	,	0
13,26	,	158191	,	-6331	,	-5030	,	-6.836958	,	0
13,26	,	158207	,	-6324	,	-5029	,	-6.665866	,	0
13,26	,	158239	,	-6308	,	-5022	,	-5.985031	,	0
13,26	,	158255	,	-6312	,	-5025	,	-4.540939	,	0
13,26	,	158271	,	-6310	,	-5021	,	-2.3260825	,	1
13,26	,	158303	,	-6305	,	-5019	,	0.35949755	,	3
13,26	,	158319	,	-6302	,	-5025	,	3.1547148	,	5
13,26	,	158351	,	-6295	,	-5031	,	5.8026977	,	7
13,26	,	158367	,	-6295	,	-5028	,	8.142361	,	9
13,26	,	158383	,	-6286	,	-5025	,	10.079419	,	11
13,26	,	158415	,	-6291	,	-5020	,	11.563663	,	12
13,26	,	158431	,	-6297	,	-5027	,	12.486772	,	13
13,26	,	158447	,	-6296	,	-5022	,	12.654558	,	13
13,26	,	158479	,	-6304	,	-5021	,	11.9336195	,	12
13,26	,	158495	,	-6300	,	-5025	,	10.348925	,	10
13,26	,	158527	,	-6295	,	-5031	,	8.137735	,	8
13,26	,	158543	,	-6302	,	-5027	,	5.6933804	,	6
13,26	,	158559	,	-6297	,	-5030	,	3.3496575	,	4
13,26	,	158591	,	-6301	,	-5026	,	1.3100128	,	2
13,27	,	158607	,	-6300	,	-5035	,	-0.3029685	,	1
13,27	,	158623	,	-6296	,	-5025	,	-1.4233712	,	0
13,27	,	158655	,	-6307	,	-5027	,	-2.0622144	,	0
13,27	,	158671	,	-6305	,	-5030	,	-2.3727593	,	0
13,27	,	158687	,	-6308	,	-5025	,	-2.5646367	,	0
13,27	,	158719	,	-6312	,	-5031	,	-2.7744098	,	0
13,27	,	158735	,	-6313	,	-5035	,	-3.0832343	,	0
13,27	,	158767	,	-6316	,	-5040	,	-3.5234313	,	0
13,27	,	158783	,	-6312	,	-5037	,	-4.0410357	,	0
13,27	,	158799	,	-6315	,	-5038	,	-4.5056586	,	0
13,27	,	158831	,	-6319	,	-5040	,	-4.81013	,	0
13,27	,	158847	,	-6321	,	-5042	,	-4.964252	,	0
13,27	,	158863	,	-6329	,	-5037	,	-5.0751505	,	0
13,27	,	158895	,	-6324	,	-5041	,	-5.253567	,	0
13,27	,	158911	,	-6331	,	-5043	,	-5.5183163	,	0
13,27	,	158943	,	-6333	,	-5038	,	-5.8336906	,	0
13,27	,	158959	,	-6328	,	-5045	,	-6.1565623	,	0
13,27	,	158975	,	-6334	,	-5050	,	-6.391514	,	0
13,27	,	159007	,	-6333	,	-5046	,	-6.452976	,	0
13,27	,	159023	,	-6342	,	-5044	,	-6.3632045	,	0
13,27	,	159039	,	-6344	,	-5047	,	-6.2539845	,	0
13,27	,	159071	,	-6347	,	-5046	,	-6.280387	,	0
13,27	,	159087	,	-6340	,	-5059	,	-6.4656897	,	0
13,27	,	159119	,	-6347	,	-5051	,	-6.670917	,	0
13,27	,	159135	,	-6337	,	-5045	,	-6.7190976	,	0
13,27	,	159151	,	-6331	,	-5045	,	-6.415125	,	0
13,27	,	159183	,	-6323	,	-5039	,	-5.523439	,	0
13,27	,	159199	,	-6318	,	-5039	,	-3.8824172	,	0
13,27	,	159215	,	-6317	,	-5032	,	-1.527961	,	1
13,27	,	159247	,	-6322	,	-5037	,	1.247786	,	3
13,27	,	159263	,	-6315	,	-5035	,	3.9886181	,	5
13,27	,	159279	,	-6307	,	-5036	,	6.3592343	,	7
13,27	,	159311	,	-6309	,	-5036	,	8.269341	,	9
13,27	,	159327	,	-6304	,	-5039	,	9.711155	,	10
13,27	,	159359	,	-6304	,	-5038	,	10.663027	,	11
13,27	,	159375	,	-6301	,	-5032	,	11.128636	,	11
13,27	,	159391	,	-6297	,	-5032	,	11.165436	,	11
13,27	,	159423	,	-6301	,	-5035	,	10.856806	,	10
13,27	,	159439	,	-6298	,	-5041	,	10.244368	,	8
13,27	,	159455	,	-6302	,	-5037	,	9.339729	,	6
13,27	,	159487	,	-6303	,	-5034	,	8.168358	,	4
13,27	,	159503	,	-6299	,	-5041	,	6.792059	,	2
13,27	,	159535	,	-6299	,	-5040	,	5.3479033	,	1
13,27	,	159551	,	-6299	,	-5039	,	4.0004864	,	0
13,27	,	159567	,	-6298	,	-5041	,	2.856059	,	0
13,28	,	159599	,	-6307	,	-5041	,	1.9232869	,	0
13,28	,	159615	,	-6303	,	-5044	,	1.1131334	,	0
13,28	,	159631	,	-6311	,	-5046	,	0.3208928	,	0
13,28	,	159663	,	-6305	,	-5045	,	-0.49469137	,	0
13,28	,	159678	,	-6310	,	-5044	,	-1.2986408	,	0
13,28	,	159694	,	-6314	,	-5043	,	-2.0464218	,	0
13,28	,	159727	,	-6312	,	-5054	,	-2.7413845	,	0
13,28	,	159743	,	-6313	,	-5052	,	-3.3636072	,	0
13,28	,	159775	,	-6313	,	-5048	,	-3.8408241	,	0
13,28	,	159791	,	-6311	,	-5049	,	-4.104089	,	0
13,28	,	159807	,	-6312	,	-5046	,	-4.1067634	,	0
13,28	,	159839	,	-6322	,	-5055	,	-3.8884645	,	0
13,28	,	159855	,	-6317	,	-5057	,	-3.6108596	,	0
13,28	,	159871	,	-6321	,	-5054	,	-3.4138927	,	0
13,28	,	159902	,	-6325	,	-5053	,	-3.3421538	,	0
13,28	,	159919	,	-6323	,	-5054	,	-3.4105844	,	0
13,28	,	159950	,	-6328	,	-5058	,	-3.6033232	,	0
13,28	,	159967	,	-6334	,	-5059	,	-3.9120173	,	0
13,28	,	159983	,	-6334	,	-5057	,	-4.37613	,	0
13,28	,	160015	,	-6332	,	-5062	,	-4.968499	,	0
13,28	,	160031	,	-6329	,	-5053	,	-5.5211825	,	0
13,28	,	160046	,	-6325	,	-5058	,	-5.803181	,	0
13,28	,	160078	,	-6319	,	-5048	,	-5.60108	,	0
13,28	,	160094	,	-6313	,	-5049	,	-4.752352	,	0
13,28	,	160110	,	-6314	,	-5052	,	-3.2200599	,	0
13,28	,	160142	,	-6312	,	-5048	,	-1.1729107	,	1
13,28	,	160159	,	-6306	,	-5047	,	1.1016204	,	3
13,28	,	160191	,	-6299	,	-5039	,	3.3891025	,	5
13,28	,	160207	,	-6296	,	-5049	,	5.595159	,	7
13,28	,	160223	,	-6298	,	-5044	,	7.6254354	,	9
13,28	,	160254	,	-6302	,	-5045	,	9.27577	,	11
13,28	,	160270	,	-6298	,	-5044	,	10.294308	,	12
13,28	,	160286	,	-6294	,	-5044	,	10.58095	,	13
13,28	,	160318	,	-6295	,	-5045	,	10.252415	,	13
13,28	,	160334	,	-6300	,	-5045	,	9.472302	,	12
13,28	,	160366	,	-6303	,	-5047	,	8.304344	,	10
13,28	,	160383	,	-6294	,	-5048	,	6.807058	,	8
13,28	,	160398	,	-6306	,	-5049	,	5.1377892	,	6
13,28	,	160430	,	-6300	,	-5050	,	3.4457474	,	4
13,28	,	160446	,	-6309	,	-5042	,	1.8025086	,	2
13,28	,	160462	,	-6301	,	-5049	,	0.26654053	,	1
13,28	,	160494	,	-6309	,	-5053	,	-1.0814396	,	0
13,28	,	160511	,	-6302	,	-5046	,	-2.1576843	,	0
13,28	,	160527	,	-6313	,	-5048	,	-2.926344	,	0
13,28	,	160559	,	-6314	,	-5052	,	-3.4637475	,	0
13,28	,	160574	,	-6317	,	-5057	,	-3.9219913	,	0
13,29	,	160606	,	-6315	,	-5052	,	-4.3836536	,	0
13,29	,	160622	,	-6330	,	-5057	,	-4.8696465	,	0
13,29	,	160638	,	-6322	,	-5052	,	-5.438011	,	0
13,29	,	160670	,	-6330	,	-5049	,	-6.103387	,	0
13,29	,	160686	,	-6331	,	-5057	,	-6.7968636	,	0
13,29	,	160702	,	-6331	,	-5056	,	-7.439954	,	0
13,29	,	160734	,	-6329	,	-5059	,	-7.923444	,	0
13,29	,	160750	,	-6332	,	-5057	,	-8.115978	,	0
13,29	,	160782	,	-6340	,	-5060	,	-7.9965568	,	0
13,29	,	160798	,	-6336	,	-5059	,	-7.687197	,	0
13,29	,	160814	,	-6343	,	-5062	,	-7.3151207	,	0
13,29	,	160846	,	-6342	,	-5065	,	-6.9511476	,	0
13,29	,	160862	,	-6350	,	-5065	,	-6.664613	,	0
13,29	,	160879	,	-6347	,	-5065	,	-6.5230193	,	0
13,29	,	160911	,	-6348	,	-5068	,	-6.513242	,	0
13,29	,	160926	,	-6349	,	-5063	,	-6.524952	,	0
13,29	,	160958	,	-6345	,	-5056	,	-6.4350657	,	0
13,29	,	160974	,	-6338	,	-5058	,	-6.1120663	,	0
13,29	,	160990	,	-6332	,	-5052	,	-5.372145	,	0
13,29	,	161022	,	-6331	,	-5050	,	-4.0703707	,	0
13,29	,	161038	,	-6325	,	-5050	,	-2.2224863	,	1
13,29	,	161054	,	-6323	,	-5048	,	0.019407272	,	2
13,29	,	161086	,	-6322	,	-5050	,	2.4324884	,	4
13,29	,	161102	,	-6320	,	-5057	,	4.7470646	,	6
13,29	,	161118	,	-6312	,	-5049	,	6.742935	,	8
13,29	,	161150	,	-6315	,	-5049	,	8.326868	,	9
13,29	,	161166	,	-6313	,	-5046	,	9.450144	,	10
13,29	,	161198	,	-6317	,	-5047	,	10.030172	,	11
13,29	,	161214	,	-6316	,	-5052	,	9.98953	,	11
13,29	,	161230	,	-6316	,	-5050	,	9.329048	,	10
13,29	,	161262	,	-6321	,	-5045	,	8.137911	,	9
13,29	,	161278	,	-6307	,	-5052	,	6.599268	,	7
13,29	,	161294	,	-6316	,	-5048	,	5.0053797	,	5
13,29	,	161326	,	-6319	,	-5050	,	3.577735	,	3
13,29	,	161342	,	-6317	,	-5057	,	2.34005	,	2
13,29	,	161374	,	-6315	,	-5049	,	1.2825317	,	1
13,29	,	161392	,	-6321	,	-5055	,	0.4319142	,	0
13,29	,	161406	,	-6319	,	-5052	,	-0.23264325	,	0
13,29	,	161438	,	-6320	,	-5050	,	-0.75777495	,	0
13,29	,	161454	,	-6320	,	-5056	,	-1.1610893	,	0
13,29	,	161470	,	-6329	,	-5056	,	-1.4814578	,	0
13,29	,	161502	,	-6324	,	-5057	,	-1.8063569	,	0
13,29	,	161518	,	-6322	,	-5056	,	-2.1539893	,	0
13,29	,	161534	,	-6324	,	-5058	,	-2.4300728	,	0
13,29	,	161566	,	-6328	,	-5056	,	-2.5736566	,	0
13,29	,	161582	,	-6331	,	-5067	,	-2.6461177	,	0
13,30	,	161613	,	-6329	,	-5061	,	-2.7433617	,	0
13,30	,	161630	,	-6337	,	-5061	,	-2.91204	,	0
13,30	,	161646	,	-6334	,	-5060	,	-3.1736176	,	0
13,30	,	161678	,	-6340	,	-5068	,	-3.530566	,	0
13,30	,	161694	,	-6346	,	-5062	,	-3.9917922	,	0
13,30	,	161710	,	-6344	,	-5062	,	-4.5962505	,	0
13,30	,	161742	,	-6350	,	-5061	,	-5.328003	,	0
13,30	,	161758	,	-6346	,	-5068	,	-6.085841	,	0
13,30	,	161789	,	-6354	,	-5066	,	-6.7507696	,	0
13,30	,	161805	,	-6349	,	-5065	,	-7.239338	,	0
13,30	,	161822	,	-6336	,	-5061	,	-7.4153814	,	0
13,30	,	161854	,	-6342	,	-5057	,	-7.0460606	,	0
13,30	,	161870	,	-6323	,	-5054	,	-5.9621463	,	0
13,30	,	161886	,	-6320	,	-5059	,	-4.0776467	,	1
13,30	,	161918	,	-6319	,	-5058	,	-1.4065695	,	2
13,30	,	161934	,	-6314	,	-5050	,	1.797184	,	4
13,30	,	161949	,	-6314	,	-5050	,	5.11568	,	7
13,30	,	161981	,	-6304	,	-5050	,	8.163621	,	10
13,30	,	161998	,	-6305	,	-5050	,	10.698104	,	13
13,30	,	162030	,	-6307	,	-5053	,	12.56789	,	15
13,30	,	162046	,	-6311	,	-5050	,	13.603183	,	16
13,30	,	162062	,	-6307	,	-5052	,	13.678101	,	17
13,30	,	162094	,	-6304	,	-5048	,	12.860907	,	16
13,30	,	162109	,	-6306	,	-5053	,	11.40848	,	15
13,30	,	162126	,	-6306	,	-5049	,	9.606079	,	13
13,30	,	162157	,	-6306	,	-5054	,	7.666447	,	10
13,30	,	162173	,	-6304	,	-5050	,	5.7542467	,	7
13,30	,	162206	,	-6304	,	-5047	,	4.01901	,	4
13,30	,	162222	,	-6306	,	-5049	,	2.5695121	,	2
13,30	,	162238	,	-6311	,	-5048	,	1.4172838	,	1
13,30	,	162270	,	-6310	,	-5052	,	0.48174167	,	0
13,30	,	162286	,	-6316	,	-5052	,	-0.33574772	,	0
13,30	,	162301	,	-6312	,	-5055	,	-1.0953829	,	0
13,30	,	162333	,	-6316	,	-5047	,	-1.797414	,	0
13,30	,	162349	,	-6316	,	-5059	,	-2.411461	,	0
13,30	,	162366	,	-6315	,	-5050	,	-2.9060183	,	0
13,30	,	162398	,	-6321	,	-5050	,	-3.2598698	,	0
13,30	,	162413	,	-6319	,	-5049	,	-3.49859	,	0
13,30	,	162445	,	-6321	,	-5057	,	-3.6601305	,	0
13,30	,	162461	,	-6328	,	-5054	,	-3.779933	,	0
13,30	,	162477	,	-6329	,	-5057	,	-3.9440637	,	0
13,30	,	162509	,	-6332	,	-5053	,	-4.2359023	,	0
13,30	,	162526	,	-6331	,	-5053	,	-4.6508927	,	0
13,30	,	162542	,	-6330	,	-5060	,	-5.0868397	,	0
13,30	,	162574	,	-6337	,	-5057	,	-5.4233418	,	0
13,30	,	162589	,	-6337	,	-5064	,	-5.6375484	,	0
13,31	,	162621	,	-6345	,	-5063	,	-5.8090563	,	0
13,31	,	162637	,	-6341	,	-5057	,	-6.023918	,	0
13,31	,	162653	,	-6330	,	-5045	,	-6.215455	,	0
13,31	,	162685	,	-6323	,	-5049	,	-6.0824656	,	0
13,31	,	162702	,	-6310	,	-5043	,	-5.237031	,	0
13,31	,	162717	,	-6307	,	-5044	,	-3.419398	,	0
13,31	,	162749	,	-6309	,	-5043	,	-0.6807847	,	1
13,31	,	162765	,	-6308	,	-5045	,	2.5610957	,	3
13,31	,	162781	,	-6299	,	-5047	,	5.7681475	,	6
13,31	,	162813	,	-6296	,	-5044	,	8.586788	,	9
13,31	,	162829	,	-6290	,	-5035	,	10.885818	,	11
13,31	,	162861	,	-6296	,	-5043	,	12.600365	,	13
13,31	,	162877	,	-6285	,	-5043	,	13.654722	,	14
13,31	,	162893	,	-6290	,	-5041	,	14.0444355	,	15
13,31	,	162925	,	-6292	,	-5032	,	13.81468	,	15
13,31	,	162941	,	-6286	,	-5039	,	12.9978695	,	14
13,31	,	162957	,	-6288	,	-5035	,	11.707411	,	12
13,31	,	162989	,	-6287	,	-5039	,	10.1307	,	9
13,31	,	163005	,	-6285	,	-5043	,	8.443394	,	6
13,31	,	163037	,	-6288	,	-5039	,	6.797198	,	4
13,31	,	163053	,	-6293	,	-5040	,	5.256204	,	2
13,31	,	163069	,	-6289	,	-5037	,	3.7901268	,	1
13,31	,	163101	,	-6294	,	-5044	,	2.388595	,	0
13,31	,	163117	,	-6298	,	-5043	,	1.0642793	,	0
13,31	,	163133	,	-6297	,	-5046	,	-0.20217705	,	0
13,31	,	163165	,	-6298	,	-5043	,	-1.3965394	,	0
13,31	,	163181	,	-6303	,	-5045	,	-2.4561474	,	0
13,31	,	163213	,	-6301	,	-5040	,	-3.3449748	,	0
13,31	,	163229	,	-6308	,	-5048	,	-4.0671496	,	0
13,31	,	163245	,	-6304	,	-5043	,	-4.641393	,	0
13,31	,	163277	,	-6306	,	-5045	,	-5.0526085	,	0
13,31	,	163293	,	-6310	,	-5045	,	-5.264878	,	0
13,31	,	163309	,	-6304	,	-5044	,	-5.279165	,	0
13,31	,	163341	,	-6309	,	-5048	,	-5.1026525	,	0
13,31	,	163357	,	-6316	,	-5045	,	-4.789595	,	0
13,31	,	163373	,	-6315	,	-5049	,	-4.4921007	,	0
13,31	,	163405	,	-6314	,	-5049	,	-4.3186026	,	0
13,31	,	163421	,	-6321	,	-5050	,	-4.2711287	,	0
13,31	,	163453	,	-6324	,	-5052	,	-4.3677235	,	0
13,31	,	163469	,	-6323	,	-5049	,	-4.644205	,	0
13,31	,	163485	,	-6325	,	-5049	,	-5.0460253	,	0
13,31	,	163517	,	-6319	,	-5045	,	-5.4237847	,	0
13,31	,	163533	,	-6310	,	-5038	,	-5.5493	,	0
13,31	,	163549	,	-6299	,	-5040	,	-5.103498	,	0
13,31	,	163581	,	-6293	,	-5038	,	-3.7849479	,	0
13,32	,	163597	,	-6291	,	-5035	,	-1.5166643	,	1
13,32	,	163629	,	-6294	,	-5028	,	1.4371684	,	3
13,32	,	163645	,	-6281	,	-5037	,	4.6125503	,	5
13,32	,	163661	,	-6289	,	-5028	,	7.592903	,	8
13,32	,	163693	,	-6284	,	-5025	,	10.042934	,	10
13,32	,	163709	,	-6281	,	-5030	,	11.717887	,	12
13,32	,	163725	,	-6281	,	-5029	,	12.559564	,	13
13,32	,	163757	,	-6284	,	-5036	,	12.625483	,	13
13,32	,	163773	,	-6285	,	-5031	,	11.974967	,	13
13,32	,	163789	,	-6280	,	-5028	,	10.713417	,	12
13,32	,	163821	,	-6281	,	-5030	,	9.057541	,	10
13,32	,	163837	,	-6273	,	-5026	,	7.300203	,	8
13,32	,	163869	,	-6281	,	-5036	,	5.7063136	,	5
13,32	,	163885	,	-6280	,	-5036	,	4.3833466	,	3
13,32	,	163901	,	-6286	,	-5035	,	3.263984	,	1
13,32	,	163933	,	-6283	,	-5034	,	2.2365468	,	0
13,32	,	163949	,	-6281	,	-5034	,	1.2713134	,	0
13,32	,	163965	,	-6283	,	-5030	,	0.4320352	,	0
13,32	,	163997	,	-6284	,	-5038	,	-0.22303772	,	0
13,32	,	164013	,	-6286	,	-5035	,	-0.7035277	,	0
13,32	,	164045	,	-6291	,	-5029	,	-1.084542	,	0
13,32	,	164061	,	-6295	,	-5034	,	-1.5001004	,	0
13,32	,	164077	,	-6293	,	-5034	,	-2.0623481	,	0
13,32	,	164109	,	-6301	,	-5034	,	-2.785904	,	0
13,32	,	164124	,	-6296	,	-5030	,	-3.6160512	,	0
13,32	,	164141	,	-6297	,	-5031	,	-4.423812	,	0
13,32	,	164173	,	-6304	,	-5037	,	-5.0606256	,	0
13,32	,	164189	,	-6304	,	-5034	,	-5.5060263	,	0
13,32	,	164205	,	-6309	,	-5036	,	-5.8395977	,	0
13,32	,	164237	,	-6317	,	-5032	,	-6.163684	,	0
13,32	,	164253	,	-6309	,	-5031	,	-6.5580072	,	0
13,32	,	164285	,	-6307	,	-5030	,	-6.936961	,	0
13,32	,	164301	,	-6310	,	-5032	,	-7.0822244	,	0
13,32	,	164317	,	-6306	,	-5025	,	-6.851348	,	0
13,32	,	164349	,	-6292	,	-5023	,	-6.153578	,	0
13,32	,	164365	,	-6293	,	-5018	,	-4.8523626	,	0
13,32	,	164381	,	-6284	,	-5010	,	-2.8938434	,	1
13,32	,	164412	,	-6287	,	-5018	,	-0.41686773	,	2
13,32	,	164428	,	-6277	,	-5014	,	2.316491	,	4
13,32	,	164461	,	-6279	,	-5009	,	5.0286355	,	6
13,32	,	164477	,	-6276	,	-5017	,	7.461528	,	8
13,32	,	164493	,	-6268	,	-5006	,	9.424	,	10
13,32	,	164525	,	-6273	,	-5014	,	10.845723	,	11
13,32	,	164541	,	-6270	,	-5015	,	11.689583	,	12
13,32	,	164556	,	-6269	,	-5009	,	11.91506	,	12
13,32	,	164589	,	-6275	,	-5009	,	11.529243	,	11
13,33	,	164605	,	-6274	,	-5004	,	10.56027	,	10
13,33	,	164621	,	-6276	,	-5012	,	9.077322	,	8
13,33	,	164653	,	-6274	,	-5006	,	7.237766	,	6
13,33	,	164669	,	-6266	,	-5009	,	5.297463	,	4
13,33	,	164700	,	-6275	,	-5010	,	3.5487185	,	2
13,33	,	164717	,	-6274	,	-5011	,	2.1366534	,	1
13,33	,	164732	,	-6278	,	-5017	,	1.0175161	,	0
13,33	,	164764	,	-6273	,	-5012	,	0.117459655	,	0
13,33	,	164780	,	-6279	,	-5015	,	-0.5891745	,	0
13,33	,	164796	,	-6288	,	-5015	,	-1.1752048	,	0
13,33	,	164829	,	-6288	,	-5017	,	-1.8168955	,	0
13,33	,	164845	,	-6287	,	-5016	,	-2.6291769	,	0
13,33	,	164876	,	-6292	,	-5018	,	-3.556964	,	0
13,33	,	164892	,	-6289	,	-5022	,	-4.47039	,	0
13,33	,	164908	,	-6295	,	-5022	,	-5.2480164	,	0
13,33	,	164940	,	-6298	,	-5024	,	-5.8422947	,	0
13,33	,	164956	,	-6295	,	-5023	,	-6.274414	,	0
13,33	,	164973	,	-6295	,	-5025	,	-6.519599	,	0
13,33	,	165004	,	-6301	,	-5024	,	-6.5288153	,	0
13,33	,	165020	,	-6313	,	-5031	,	-6.402472	,	0
13,33	,	165052	,	-6312	,	-5031	,	-6.3977184	,	0
13,33	,	165068	,	-6307	,	-5031	,	-6.651248	,	0
13,33	,	165084	,	-6318	,	-5029	,	-7.052397	,	0
13,33	,	165117	,	-6318	,	-5038	,	-7.4785967	,	0
13,33	,	165133	,	-6325	,	-5032	,	-7.9278383	,	0
13,33	,	165148	,	-6325	,	-5031	,	-8.421059	,	0
13,33	,	165180	,	-6323	,	-5034	,	-8.902996	,	0
13,33	,	165196	,	-6311	,	-5035	,	-9.164391	,	0
13,33	,	165212	,	-6310	,	-5035	,	-8.879554	,	0
13,33	,	165244	,	-6301	,	-5021	,	-7.7903194	,	0
13,33	,	165260	,	-6295	,	-5032	,	-5.8139334	,	1
13,33	,	165292	,	-6293	,	-5032	,	-3.0466094	,	2
13,33	,	165308	,	-6293	,	-5029	,	0.21901035	,	4
13,33	,	165324	,	-6290	,	-5029	,	3.5509946	,	7
13,33	,	165356	,	-6291	,	-5031	,	6.5224957	,	10
13,33	,	165372	,	-6289	,	-5026	,	8.809262	,	12
13,33	,	165388	,	-6287	,	-5033	,	10.243539	,	14
13,33	,	165420	,	-6287	,	-5028	,	10.831383	,	15
13,33	,	165436	,	-6288	,	-5034	,	10.681919	,	15
13,33	,	165468	,	-6287	,	-5032	,	9.932395	,	14
13,33	,	165484	,	-6286	,	-5031	,	8.745495	,	13
13,33	,	165500	,	-6287	,	-5035	,	7.3021207	,	11
13,33	,	165532	,	-6288	,	-5036	,	5.7594557	,	8
13,33	,	165548	,	-6285	,	-5036	,	4.248622	,	5
13,33	,	165564	,	-6292	,	-5039	,	2.8680992	,	3
13,34	,	165596	,	-6301	,	-5038	,	1.5878835	,	1
13,34	,	165612	,	-6296	,	-5041	,	0.27709675	,	0
13,34	,	165628	,	-6297	,	-5037	,	-1.0752321	,	0
13,34	,	165660	,	-6292	,	-5037	,	-2.2962666	,	0
13,34	,	165676	,	-6298	,	-5041	,	-3.196427	,	0
13,34	,	165708	,	-6302	,	-5046	,	-3.739249	,	0
13,34	,	165724	,	-6302	,	-5044	,	-4.041721	,	0
13,34	,	165740	,	-6306	,	-5042	,	-4.2336454	,	0
13,34	,	165772	,	-6303	,	-5045	,	-4.3788366	,	0
13,34	,	165788	,	-6311	,	-5042	,	-4.500683	,	0
13,34	,	165804	,	-6312	,	-5046	,	-4.643113	,	0
13,34	,	165836	,	-6310	,	-5052	,	-4.8458786	,	0
13,34	,	165852	,	-6315	,	-5049	,	-5.0760174	,	0
13,34	,	165884	,	-6322	,	-5049	,	-5.318815	,	0
13,34	,	165900	,	-6319	,	-5046	,	-5.631774	,	0
13,34	,	165916	,	-6322	,	-5050	,	-6.0126867	,	0
13,34	,	165948	,	-6325	,	-5053	,	-6.3768	,	0
13,34	,	165964	,	-6320	,	-5045	,	-6.6350136	,	0
13,34	,	165980	,	-6329	,	-5051	,	-6.7170734	,	0
13,34	,	166012	,	-6326	,	-5057	,	-6.6233034	,	0
13,34	,	166028	,	-6333	,	-5059	,	-6.427203	,	0
13,34	,	166044	,	-6333	,	-5058	,	-6.2178845	,	0
13,34	,	166076	,	-6333	,	-5058	,	-6.051915	,	0
13,34	,	166092	,	-6334	,	-5060	,	-5.911581	,	0
13,34	,	166124	,	-6328	,	-5061	,	-5.712701	,	0
13,34	,	166140	,	-6328	,	-5051	,	-5.3290596	,	0
13,34	,	166156	,	-6314	,	-5049	,	-4.601222	,	0
13,34	,	166188	,	-6308	,	-5049	,	-3.3342068	,	0
13,34	,	166204	,	-6308	,	-5048	,	-1.4106112	,	1
13,34	,	166220	,	-6306	,	-5049	,	1.0335324	,	2
13,34	,	166252	,	-6300	,	-5049	,	3.6812391	,	4
13,34	,	166268	,	-6295	,	-5049	,	6.2561703	,	6
13,34	,	166300	,	-6291	,	-5045	,	8.591784	,	8
13,34	,	166316	,	-6294	,	-5043	,	10.5452585	,	10
13,34	,	166332	,	-6297	,	-5044	,	11.910741	,	11
13,34	,	166364	,	-6288	,	-5050	,	12.512697	,	12
13,34	,	166380	,	-6293	,	-5046	,	12.368839	,	12
13,34	,	166396	,	-6294	,	-5048	,	11.608023	,	11
13,34	,	166428	,	-6290	,	-5048	,	10.35008	,	10
13,34	,	166444	,	-6299	,	-5049	,	8.735512	,	8
13,34	,	166460	,	-6295	,	-5049	,	6.898634	,	6
13,34	,	166492	,	-6295	,	-5056	,	4.9742045	,	4
13,34	,	166508	,	-6299	,	-5054	,	3.1233377	,	2
13,34	,	166540	,	-6292	,	-5053	,	1.4837599	,	1
13,34	,	166556	,	-6299	,	-5053	,	0.16299772	,	0
13,34	,	166572	,	-6291	,	-5054	,	-0.7718556	,	0
13,35	,	166604	,	-6298	,	-5051	,	-1.3090966	,	0
13,35	,	166620	,	-6302	,	-5055	,	-1.532979	,	0
13,35	,	166636	,	-6300	,	-5054	,	-1.6258187	,	0
13,35	,	166668	,	-6304	,	-5058	,	-1.7315803	,	0
13,35	,	166684	,	-6305	,	-5058	,	-1.9114347	,	0
13,35	,	166716	,	-6306	,	-5056	,	-2.1927426	,	0
13,35	,	166732	,	-6307	,	-5059	,	-2.559445	,	0
13,35	,	166748	,	-6309	,	-5061	,	-2.9603982	,	0
13,35	,	166780	,	-6316	,	-5057	,	-3.374244	,	0
13,35	,	166796	,	-6316	,	-5061	,	-3.8443315	,	0
13,35	,	166812	,	-6321	,	-5061	,	-4.4202623	,	0
13,35	,	166843	,	-6318	,	-5063	,	-5.084306	,	0
13,35	,	166859	,	-6318	,	-5068	,	-5.7201476	,	0
13,35	,	166892	,	-6330	,	-5065	,	-6.2118387	,	0
13,35	,	166908	,	-6327	,	-5071	,	-6.588171	,	0
13,35	,	166924	,	-6324	,	-5068	,	-6.8927145	,	0
13,35	,	166956	,	-6334	,	-5064	,	-7.0669374	,	0
13,35	,	166972	,	-6336	,	-5073	,	-7.1237936	,	0
13,35	,	166988	,	-6332	,	-5070	,	-7.145137	,	0
13,35	,	167020	,	-6340	,	-5074	,	-7.132589	,	0
13,35	,	167036	,	-6335	,	-5067	,	-7.0597925	,	0
13,35	,	167051	,	-6333	,	-5063	,	-6.8848267	,	0
13,35	,	167083	,	-6325	,	-5063	,	-6.47012	,	0
13,35	,	167100	,	-6323	,	-5064	,	-5.633608	,	0
13,35	,	167132	,	-6322	,	-5060	,	-4.2929263	,	0
13,35	,	167148	,	-6327	,	-5058	,	-2.5703015	,	1
13,35	,	167164	,	-6319	,	-5057	,	-0.7285583	,	2
13,35	,	167195	,	-6318	,	-5060	,	1.0224714	,	3
13,35	,	167211	,	-6317	,	-5058	,	2.5865302	,	4
13,35	,	167227	,	-6310	,	-5057	,	3.921799	,	5
13,35	,	167259	,	-6318	,	-5058	,	5.003581	,	6
13,35	,	167276	,	-6320	,	-5062	,	5.738982	,	7
13,35	,	167307	,	-6309	,	-5062	,	6.024172	,	7
13,35	,	167324	,	-6313	,	-5057	,	5.9279175	,	7
13,35	,	167339	,	-6312	,	-5056	,	5.602417	,	6
13,35	,	167371	,	-6318	,	-5056	,	5.096523	,	5
13,35	,	167387	,	-6316	,	-5061	,	4.3846445	,	4
13,35	,	167403	,	-6319	,	-5062	,	3.475968	,	3
13,35	,	167435	,	-6322	,	-5059	,	2.420687	,	2
13,35	,	167451	,	-6324	,	-5063	,	1.2565265	,	1
13,35	,	167468	,	-6321	,	-5061	,	0.041211247	,	0
13,35	,	167499	,	-6328	,	-5061	,	-1.124026	,	0
13,35	,	167515	,	-6327	,	-5061	,	-2.1707227	,	0
13,35	,	167547	,	-6328	,	-5062	,	-3.072105	,	0
13,35	,	167563	,	-6329	,	-5065	,	-3.7886667	,	0
13,35	,	167579	,	-6329	,	-5067	,	-4.2744827	,	0
13,36	,	167611	,	-6334	,	-5064	,	-4.521766	,	0
13,36	,	167627	,	-6333	,	-5067	,	-4.584157	,	0
13,36	,	167643	,	-6335	,	-5071	,	-4.5320215	,	0
13,36	,	167675	,	-6338	,	-5070	,	-4.421131	,	0
13,36	,	167691	,	-6338	,	-5070	,	-4.311305	,	0
13,36	,	167723	,	-6341	,	-5074	,	-4.2489376	,	0
13,36	,	167739	,	-6349	,	-5071	,	-4.2879734	,	0
13,36	,	167755	,	-6348	,	-5072	,	-4.514719	,	0
13,36	,	167787	,	-6349	,	-5079	,	-4.9462495	,	0
13,36	,	167803	,	-6351	,	-5076	,	-5.4802613	,	0
13,36	,	167819	,	-6352	,	-5078	,	-5.9869866	,	0
13,36	,	167851	,	-6353	,	-5077	,	-6.3674164	,	0
13,36	,	167867	,	-6360	,	-5079	,	-6.583686	,	0
13,36	,	167883	,	-6365	,	-5077	,	-6.715727	,	0
13,36	,	167915	,	-6365	,	-5079	,	-6.901531	,	0
13,36	,	167931	,	-6362	,	-5081	,	-7.1651726	,	0
13,36	,	167963	,	-6362	,	-5076	,	-7.369981	,	0
13,36	,	167979	,	-6358	,	-5076	,	-7.33057	,	0
13,36	,	167995	,	-6349	,	-5065	,	-6.871731	,	0
13,36	,	168027	,	-6352	,	-5070	,	-5.856829	,	0
13,36	,	168043	,	-6346	,	-5071	,	-4.288849	,	1
13,36	,	168059	,	-6345	,	-5070	,	-2.313935	,	2
13,36	,	168091	,	-6344	,	-5068	,	-0.13960385	,	3
13,36	,	168107	,	-6337	,	-5070	,	2.023505	,	5
13,36	,	168139	,	-6335	,	-5066	,	4.0345726	,	7
13,36	,	168155	,	-6338	,	-5061	,	5.7879314	,	9
13,36	,	168171	,	-6334	,	-5064	,	7.137908	,	10
13,36	,	168203	,	-6330	,	-5062	,	7.9947743	,	11
13,36	,	168219	,	-6333	,	-5057	,	8.391507	,	11
13,36	,	168235	,	-6324	,	-5057	,	8.421289	,	10
13,36	,	168267	,	-6325	,	-5062	,	8.221252	,	9
13,36	,	168283	,	-6325	,	-5060	,	7.913931	,	8
13,36	,	168299	,	-6330	,	-5064	,	7.502017	,	6
13,36	,	168331	,	-6330	,	-5062	,	6.897172	,	4
13,36	,	168347	,	-6326	,	-5063	,	6.053878	,	2
13,36	,	168379	,	-6334	,	-5061	,	5.020632	,	1
13,36	,	168395	,	-6333	,	-5063	,	3.8460374	,	0
13,36	,	168411	,	-6334	,	-5063	,	2.5563617	,	0
13,36	,	168443	,	-6335	,	-5064	,	1.2238512	,	0
13,36	,	168459	,	-6334	,	-5062	,	-0.040106654	,	0
13,36	,	168475	,	-6335	,	-5065	,	-1.1190718	,	0
13,36	,	168507	,	-6336	,	-5059	,	-1.9270505	,	0
13,36	,	168523	,	-6337	,	-5064	,	-2.4466004	,	0
13,36	,	168555	,	-6344	,	-5066	,	-2.7448854	,	0
13,36	,	168571	,	-6343	,	-5065	,	-2.9580956	,	0
13,36	,	168587	,	-6341	,	-5066	,	-3.1809368	,	0
13,37	,	168619	,	-6345	,	-5066	,	-3.3954563	,	0
13,37	,	168635	,	-6345	,	-5067	,	-3.5625944	,	0
13,37	,	168651	,	-6352	,	-5062	,	-3.7044468	,	0
13,37	,	168683	,	-6348	,	-5068	,	-3.8733273	,	0
13,37	,	168699	,	-6355	,	-5067	,	-4.087346	,	0
13,37	,	168715	,	-6353	,	-5066	,	-4.3340178	,	0
13,37	,	168747	,	-6355	,	-5072	,	-4.5872383	,	0
13,37	,	168763	,	-6357	,	-5066	,	-4.8003798	,	0
13,37	,	168795	,	-6358	,	-5069	,	-4.94103	,	0
13,37	,	168811	,	-6365	,	-5073	,	-5.030528	,	0
13,37	,	168827	,	-6365	,	-5070	,	-5.1465845	,	0
13,37	,	168859	,	-6366	,	-5075	,	-5.3496943	,	0
13,37	,	168875	,	-6353	,	-5064	,	-5.5491824	,	0
13,37	,	168891	,	-6346	,	-5059	,	-5.4427576	,	0
13,37	,	168923	,	-6339	,	-5053	,	-4.657126	,	0
13,37	,	168939	,	-6341	,	-5056	,	-3.0217216	,	0
13,37	,	168971	,	-6339	,	-5063	,	-0.70994234	,	1
13,37	,	168987	,	-6338	,	-5050	,	1.8776784	,	3
13,37	,	169003	,	-6328	,	-5056	,	4.3674345	,	5
13,37	,	169035	,	-6327	,	-5050	,	6.573943	,	7
13,37	,	169051	,	-6335	,	-5046	,	8.386683	,	9
13,37	,	169067	,	-6320	,	-5054	,	9.661373	,	10
13,37	,	169099	,	-6323	,	-5059	,	10.373863	,	11
13,37	,	169115	,	-6324	,	-5053	,	10.619976	,	11
13,37	,	169146	,	-6317	,	-5055	,	10.467476	,	11
13,37	,	169163	,	-6322	,	-5048	,	9.982321	,	10
13,37	,	169179	,	-6321	,	-5049	,	9.221281	,	8
13,37	,	169211	,	-6317	,	-5048	,	8.227875	,	6
13,37	,	169227	,	-6322	,	-5054	,	7.092102	,	4
13,37	,	169243	,	-6319	,	-5051	,	5.901225	,	2
13,37	,	169274	,	-6319	,	-5048	,	4.717993	,	1
13,37	,	169290	,	-6317	,	-5049	,	3.6247747	,	0
13,37	,	169307	,	-6318	,	-5050	,	2.7045667	,	0
13,37	,	169339	,	-6323	,	-5050	,	1.9712269	,	0
13,37	,	169355	,	-6322	,	-5051	,	1.3493389	,	0
13,37	,	169386	,	-6327	,	-5056	,	0.7449331	,	0
13,37	,	169402	,	-6327	,	-5055	,	0.09082067	,	0
13,37	,	169419	,	-6330	,	-5056	,	-0.6487495	,	0
13,37	,	169450	,	-6330	,	-5049	,	-1.4614164	,	0
13,37	,	169467	,	-6327	,	-5053	,	-2.2685378	,	0
13,37	,	169483	,	-6330	,	-5055	,	-2.9370143	,	0
13,37	,	169515	,	-6333	,	-5056	,	-3.3802977	,	0
13,37	,	169531	,	-6333	,	-5049	,	-3.6242921	,	0
13,37	,	169562	,	-6339	,	-5054	,	-3.755669	,	0
13,37	,	169578	,	-6334	,	-5059	,	-3.8492184	,	0
13,38	,	169594	,	-6336	,	-5058	,	-3.9003253	,	0
13,38	,	169626	,	-6347	,	-5056	,	-3.8987346	,	0
13,38	,	169642	,	-6343	,	-5055	,	-3.9488	,	0
13,38	,	169659	,	-6351	,	-5058	,	-4.16948	,	0
13,38	,	169691	,	-6354	,	-5060	,	-4.6110516	,	0
13,38	,	169707	,	-6354	,	-5056	,	-5.273476	,	0
13,38	,	169722	,	-6355	,	-5055	,	-6.0585647	,	0
13,38	,	169754	,	-6347	,	-5051	,	-6.7536974	,	0
13,38	,	169770	,	-6341	,	-5048	,	-7.0629005	,	0
13,38	,	169802	,	-6330	,	-5036	,	-6.6619635	,	0
13,38	,	169818	,	-6328	,	-5043	,	-5.3275623	,	0
13,38	,	169834	,	-6327	,	-5030	,	-3.092932	,	1
13,38	,	169866	,	-6311	,	-5036	,	-0.20577335	,	3
13,38	,	169883	,	-6307	,	-5029	,	3.1048172	,	5
13,38	,	169898	,	-6313	,	-5023	,	6.600449	,	8
13,38	,	169930	,	-6303	,	-5025	,	9.884805	,	11
13,38	,	169947	,	-6300	,	-5023	,	12.594855	,	14
13,38	,	169978	,	-6305	,	-5022	,	14.541302	,	16
13,38	,	169994	,	-6302	,	-5021	,	15.585034	,	17
13,38	,	170010	,	-6300	,	-5020	,	15.664709	,	18
13,38	,	170042	,	-6301	,	-5022	,	14.8885	,	17
13,38	,	170059	,	-6305	,	-5025	,	13.43829	,	15
13,38	,	170074	,	-6297	,	-5018	,	11.5093155	,	13
13,38	,	170106	,	-6303	,	-5022	,	9.347483	,	10
13,38	,	170122	,	-6309	,	-5020	,	7.1488605	,	7
13,38	,	170138	,	-6308	,	-5020	,	4.971843	,	4
13,38	,	170170	,	-6304	,	-5018	,	2.879611	,	2
13,38	,	170186	,	-6311	,	-5019	,	1.0084789	,	1
13,38	,	170218	,	-6303	,	-5018	,	-0.53175664	,	0
13,38	,	170234	,	-6311	,	-5019	,	-1.6813761	,	0
13,38	,	170250	,	-6317	,	-5018	,	-2.477616	,	0
13,38	,	170282	,	-6309	,	-5015	,	-3.0517359	,	0
13,38	,	170298	,	-6311	,	-5021	,	-3.4456139	,	0
13,38	,	170314	,	-6311	,	-5021	,	-3.5963743	,	0
13,38	,	170346	,	-6317	,	-5026	,	-3.5077527	,	0
13,38	,	170362	,	-6325	,	-5019	,	-3.337903	,	0
13,38	,	170394	,	-6318	,	-5020	,	-3.2959805	,	0
13,38	,	170410	,	-6316	,	-5027	,	-3.4109735	,	0
13,38	,	170426	,	-6324	,	-5021	,	-3.5546112	,	0
13,38	,	170458	,	-6322	,	-5026	,	-3.6700044	,	0
13,38	,	170474	,	-6328	,	-5034	,	-3.7933166	,	0
13,38	,	170490	,	-6328	,	-5028	,	-3.96887	,	0
13,38	,	170522	,	-6332	,	-5036	,	-4.225136	,	0
13,38	,	170538	,	-6331	,	-5034	,	-4.555965	,	0
13,38	,	170570	,	-6337	,	-5029	,	-4.9277697	,	0
13,38	,	170586	,	-6340	,	-5036	,	-5.3320074	,	0
13,39	,	170602	,	-6341	,	-5033	,	-5.786173	,	0
13,39	,	170634	,	-6337	,	-5034	,	-6.238804	,	0
13,39	,	170650	,	-6332	,	-5030	,	-6.5104775	,	0
13,39	,	170666	,	-6322	,	-5027	,	-6.3341546	,	0
13,39	,	170698	,	-6318	,	-5028	,	-5.45751	,	0
13,39	,	170714	,	-6313	,	-5029	,	-3.7738905	,	0
13,39	,	170730	,	-6316	,	-5031	,	-1.4141445	,	1
13,39	,	170762	,	-6306	,	-5028	,	1.3015428	,	3
13,39	,	170778	,	-6303	,	-5029	,	4.060692	,	5
13,39	,	170810	,	-6304	,	-5025	,	6.641988	,	7
13,39	,	170826	,	-6298	,	-5025	,	8.84275	,	9
13,39	,	170842	,	-6294	,	-5035	,	10.5244055	,	11
13,39	,	170874	,	-6291	,	-5029	,	11.6801	,	12
13,39	,	170890	,	-6294	,	-5030	,	12.343088	,	13
13,39	,	170906	,	-6297	,	-5024	,	12.473232	,	13
13,39	,	170938	,	-6303	,	-5032	,	11.956711	,	12
13,39	,	170954	,	-6298	,	-5028	,	10.733376	,	10
13,39	,	170986	,	-6299	,	-5030	,	8.934416	,	8
13,39	,	171002	,	-6303	,	-5039	,	6.821656	,	6
13,39	,	171018	,	-6297	,	-5035	,	4.6454406	,	4
13,39	,	171050	,	-6296	,	-5032	,	2.6552358	,	2
13,39	,	171066	,	-6299	,	-5034	,	1.0764754	,	1
13,39	,	171082	,	-6298	,	-5036	,	-0.008719206	,	0
13,39	,	171114	,	-6302	,	-5037	,	-0.6668935	,	0
13,39	,	171130	,	-6301	,	-5037	,	-1.0288491	,	0
13,39	,	171146	,	-6311	,	-5040	,	-1.2577647	,	0
13,39	,	171178	,	-6312	,	-5039	,	-1.559732	,	0
13,39	,	171194	,	-6315	,	-5035	,	-2.101925	,	0
13,39	,	171226	,	-6311	,	-5040	,	-2.884539	,	0
13,39	,	171242	,	-6317	,	-5039	,	-3.758402	,	0
13,39	,	171258	,	-6316	,	-5048	,	-4.5658083	,	0
13,39	,	171290	,	-6321	,	-5042	,	-5.228398	,	0
13,39	,	171306	,	-6323	,	-5036	,	-5.743892	,	0
13,39	,	171322	,	-6317	,	-5043	,	-6.113042	,	0
13,39	,	171354	,	-6321	,	-5047	,	-6.267741	,	0
13,39	,	171370	,	-6318	,	-5043	,	-6.1324615	,	0
13,39	,	171402	,	-6323	,	-5048	,	-5.7148285	,	0
13,39	,	171418	,	-6317	,	-5051	,	-5.085064	,	0
13,39	,	171434	,	-6325	,	-5053	,	-4.3336096	,	0
13,39	,	171466	,	-6326	,	-5053	,	-3.596303	,	0
13,39	,	171482	,	-6326	,	-5051	,	-3.0239246	,	0
13,39	,	171498	,	-6325	,	-5057	,	-2.6650152	,	0
13,39	,	171529	,	-6326	,	-5042	,	-2.460278	,	0
13,39	,	171546	,	-6307	,	-5043	,	-2.2468424	,	0
13,39	,	171578	,	-6296	,	-5042	,	-1.6623142	,	0
13,40	,	171594	,	-6300	,	-5041	,	-0.3261671	,	0
13,40	,	171610	,	-6294	,	-5041	,	1.7828839	,	1
13,40	,	171642	,	-6288	,	-5038	,	4.3650846	,	3
13,40	,	171658	,	-6291	,	-5036	,	7.0626745	,	5
13,40	,	171674	,	-6284	,	-5036	,	9.527814	,	7
13,40	,	171706	,	-6280	,	-5034	,	11.498222	,	9
13,40	,	171722	,	-6281	,	-5032	,	12.864947	,	10
13,40	,	171738	,	-6280	,	-5037	,	13.586214	,	11
13,40	,	171770	,	-6286	,	-5037	,	13.611964	,	11
13,40	,	171786	,	-6277	,	-5035	,	12.938408	,	11
13,40	,	171817	,	-6279	,	-5036	,	11.710381	,	10
13,40	,	171833	,	-6276	,	-5040	,	10.175489	,	8
13,40	,	171850	,	-6277	,	-5041	,	8.549213	,	6
13,40	,	171882	,	-6277	,	-5045	,	6.9724264	,	4
13,40	,	171898	,	-6281	,	-5044	,	5.509599	,	2
13,40	,	171914	,	-6278	,	-5038	,	4.168776	,	1
13,40	,	171946	,	-6278	,	-5046	,	2.96359	,	0
13,40	,	171962	,	-6283	,	-5044	,	1.9119802	,	0
13,40	,	171993	,	-6286	,	-5050	,	0.96793485	,	0
13,40	,	172009	,	-6287	,	-5045	,	0.04059732	,	0
13,40	,	172026	,	-6293	,	-5047	,	-0.9330525	,	0
13,40	,	172058	,	-6292	,	-5051	,	-1.9704825	,	0
13,40	,	172074	,	-6300	,	-5047	,	-3.0577571	,	0
13,40	,	172089	,	-6299	,	-5058	,	-4.176152	,	0
13,40	,	172121	,	-6302	,	-5048	,	-5.2829924	,	0
13,40	,	172137	,	-6309	,	-5050	,	-6.313915	,	0
13,40	,	172154	,	-6305	,	-5051	,	-7.2223835	,	0
13,40	,	172186	,	-6312	,	-5056	,	-7.950552	,	0
13,40	,	172202	,	-6318	,	-5057	,	-8.481148	,	0
13,40	,	172233	,	-6318	,	-5056	,	-8.892622	,	0
13,40	,	172250	,	-6322	,	-5054	,	-9.246845	,	0
13,40	,	172265	,	-6324	,	-5055	,	-9.536346	,	0
13,40	,	172297	,	-6335	,	-5057	,	-9.777487	,	0
13,40	,	172313	,	-6328	,	-5055	,	-10.02478	,	0
13,40	,	172329	,	-6334	,	-5067	,	-10.25045	,	0
13,40	,	172362	,	-6342	,	-5058	,	-10.38481	,	0
13,40	,	172378	,	-6345	,	-5060	,	-10.472876	,	0
13,40	,	172409	,	-6344	,	-5062	,	-10.593119	,	0
13,40	,	172425	,	-6329	,	-5054	,	-10.628525	,	0
13,40	,	172441	,	-6326	,	-5050	,	-10.218838	,	0
13,40	,	172473	,	-6322	,	-5055	,	-9.019224	,	0
13,40	,	172489	,	-6321	,	-5048	,	-6.969827	,	1
13,40	,	172505	,	-6314	,	-5052	,	-4.268724	,	3
13,40	,	172538	,	-6319	,	-5052	,	-1.2337546	,	5
13,40	,	172553	,	-6313	,	-5050	,	1.7631457	,	8
13,40	,	172569	,	-6311	,	-5047	,	4.4027767	,	10
13,41	,	172601	,	-6307	,	-5053	,	6.5233307	,	12
13,41	,	172617	,	-6313	,	-5055	,	8.052289	,	14
13,41	,	172649	,	-6310	,	-5048	,	8.904196	,	15
13,41	,	172665	,	-6309	,	-5048	,	9.047665	,	15
13,41	,	172681	,	-6308	,	-5046	,	8.589908	,	14
13,41	,	172713	,	-6301	,	-5053	,	7.7500668	,	12
13,41	,	172729	,	-6314	,	-5053	,	6.7453327	,	10
13,41	,	172745	,	-6311	,	-5055	,	5.6406093	,	7
13,41	,	172777	,	-6313	,	-5049	,	4.4024887	,	5
13,41	,	172793	,	-6314	,	-5059	,	3.0573123	,	3
13,41	,	172825	,	-6314	,	-5053	,	1.6880243	,	1
13,41	,	172841	,	-6314	,	-5054	,	0.39934587	,	0
13,41	,	172857	,	-6319	,	-5055	,	-0.7206385	,	0
13,41	,	172889	,	-6326	,	-5056	,	-1.6949179	,	0
13,41	,	172905	,	-6322	,	-5055	,	-2.6232915	,	0
13,41	,	172921	,	-6325	,	-5061	,	-3.516189	,	0
13,41	,	172953	,	-6325	,	-5061	,	-4.279557	,	0
13,41	,	172969	,	-6325	,	-5061	,	-4.8204846	,	0
13,41	,	173001	,	-6326	,	-5057	,	-5.0816884	,	0
13,41	,	173017	,	-6331	,	-5066	,	-5.0769234	,	0
13,41	,	173033	,	-6335	,	-5061	,	-4.9322405	,	0
13,41	,	173065	,	-6330	,	-5062	,	-4.7895803	,	0
13,41	,	173081	,	-6338	,	-5066	,	-4.6922703	,	0
13,41	,	173097	,	-6344	,	-5068	,	-4.6801257	,	0
13,41	,	173129	,	-6341	,	-5060	,	-4.8470073	,	0
13,41	,	173145	,	-6345	,	-5064	,	-5.1985683	,	0
13,41	,	173161	,	-6342	,	-5064	,	-5.614517	,	0
13,41	,	173193	,	-6343	,	-5070	,	-5.934613	,	0
13,41	,	173209	,	-6351	,	-5070	,	-6.0606246	,	0
13,41	,	173241	,	-6344	,	-5070	,	-6.009634	,	0
13,41	,	173257	,	-6344	,	-5066	,	-5.794875	,	0
13,41	,	173273	,	-6345	,	-5065	,	-5.3651175	,	0
13,41	,	173305	,	-6336	,	-5054	,	-4.6698437	,	0
13,41	,	173321	,	-6331	,	-5056	,	-3.6356628	,	0
13,41	,	173337	,	-6328	,	-5060	,	-2.1855764	,	1
13,41	,	173369	,	-6329	,	-5059	,	-0.36577487	,	2
13,41	,	173385	,	-6333	,	-5051	,	1.5899358	,	3
13,41	,	173417	,	-6325	,	-5059	,	3.368656	,	4
13,41	,	173433	,	-6325	,	-5052	,	4.7831573	,	5
13,41	,	173449	,	-6319	,	-5054	,	5.824342	,	6
13,41	,	173481	,	-6313	,	-5054	,	6.5970545	,	7
13,41	,	173497	,	-6314	,	-5054	,	7.2454104	,	7
13,41	,	173513	,	-6316	,	-5054	,	7.8060684	,	7
13,41	,	173545	,	-6320	,	-5052	,	8.142895	,	6
13,41	,	173561	,	-6310	,	-5055	,	8.114975	,	5
13,41	,	173577	,	-6317	,	-5053	,	7.7417054	,	4
13,42	,	173609	,	-6319	,	-5054	,	7.094086	,	3
13,42	,	173625	,	-6323	,	-5056	,	6.1557136	,	2
13,42	,	173657	,	-6322	,	-5053	,	4.9018583	,	1
13,42	,	173673	,	-6319	,	-5057	,	3.4159365	,	0
13,42	,	173689	,	-6320	,	-5055	,	1.8923953	,	0
13,42	,	173721	,	-6327	,	-5055	,	0.50586843	,	0
13,42	,	173737	,	-6331	,	-5056	,	-0.7291653	,	0
13,42	,	173753	,	-6332	,	-5053	,	-1.9053934	,	0
13,42	,	173785	,	-6328	,	-5056	,	-3.0369213	,	0
13,42	,	173801	,	-6334	,	-5060	,	-4.0146117	,	0
13,42	,	173833	,	-6337	,	-5058	,	-4.7588253	,	0
13,42	,	173849	,	-6339	,	-5059	,	-5.303059	,	0
13,42	,	173865	,	-6343	,	-5060	,	-5.726255	,	0
13,42	,	173897	,	-6345	,	-5062	,	-6.099711	,	0
13,42	,	173913	,	-6336	,	-5062	,	-6.4130874	,	0
13,42	,	173929	,	-6343	,	-5058	,	-6.5320597	,	0
13,42	,	173960	,	-6342	,	-5058	,	-6.3526344	,	0
13,42	,	173977	,	-6347	,	-5068	,	-5.9246006	,	0
13,42	,	173993	,	-6355	,	-5063	,	-5.42334	,	0
13,42	,	174025	,	-6349	,	-5064	,	-5.0486264	,	0
13,42	,	174041	,	-6351	,	-5068	,	-4.857051	,	0
13,42	,	174073	,	-6359	,	-5068	,	-4.792592	,	0
13,42	,	174089	,	-6362	,	-5068	,	-4.874959	,	0
13,42	,	174104	,	-6359	,	-5068	,	-5.1503935	,	0
13,42	,	174136	,	-6360	,	-5063	,	-5.5382924	,	0
13,42	,	174152	,	-6346	,	-5058	,	-5.808103	,	0
13,42	,	174169	,	-6343	,	-5049	,	-5.624385	,	0
13,42	,	174201	,	-6342	,	-5053	,	-4.728158	,	0
13,42	,	174217	,	-6329	,	-5056	,	-3.0834935	,	0
13,42	,	174248	,	-6329	,	-5051	,	-0.785331	,	1
13,42	,	174265	,	-6334	,	-5051	,	1.935478	,	3
13,42	,	174281	,	-6330	,	-5052	,	4.653474	,	5
13,42	,	174312	,	-6326	,	-5051	,	6.961637	,	7
13,42	,	174328	,	-6330	,	-5051	,	8.640702	,	9
13,42	,	174345	,	-6330	,	-5050	,	9.575647	,	10
13,42	,	174377	,	-6328	,	-5050	,	9.725469	,	10
13,42	,	174393	,	-6324	,	-5049	,	9.206651	,	10
13,42	,	174409	,	-6325	,	-5053	,	8.266245	,	10
13,42	,	174441	,	-6323	,	-5048	,	7.146053	,	9
13,42	,	174457	,	-6330	,	-5048	,	5.986475	,	7
13,42	,	174488	,	-6326	,	-5049	,	4.8234224	,	5
13,42	,	174504	,	-6326	,	-5045	,	3.6756344	,	3
13,42	,	174520	,	-6334	,	-5048	,	2.5684524	,	1
13,42	,	174553	,	-6338	,	-5051	,	1.4436991	,	0
13,42	,	174569	,	-6327	,	-5053	,	0.24893737	,	0
13,42	,	174584	,	-6335	,	-5053	,	-0.89707303	,	0
13,43	,	174616	,	-6342	,	-5047	,	-1.8708534	,	0
13,43	,	174633	,	-6339	,	-5041	,	-2.7176106	,	0
13,43	,	174664	,	-6338	,	-5046	,	-3.4732275	,	0
13,43	,	174680	,	-6340	,	-5047	,	-4.0519185	,	0
13,43	,	174696	,	-6345	,	-5046	,	-4.399502	,	0
13,43	,	174729	,	-6344	,	-5047	,	-4.576041	,	0
13,43	,	174745	,	-6349	,	-5046	,	-4.6720786	,	0
13,43	,	174761	,	-6352	,	-5046	,	-4.7648716	,	0
13,43	,	174792	,	-6344	,	-5042	,	-4.882459	,	0
13,43	,	174808	,	-6350	,	-5047	,	-4.9435353	,	0
13,43	,	174840	,	-6351	,	-5044	,	-4.8654866	,	0
13,43	,	174856	,	-6356	,	-5047	,	-4.689862	,	0
13,43	,	174872	,	-6360	,	-5042	,	-4.5416737	,	0
13,43	,	174904	,	-6360	,	-5046	,	-4.5372534	,	0
13,43	,	174921	,	-6356	,	-5045	,	-4.6766405	,	0
13,43	,	174937	,	-6362	,	-5042	,	-4.838342	,	0
13,43	,	174968	,	-6363	,	-5041	,	-4.936098	,	0
13,43	,	174984	,	-6368	,	-5046	,	-4.994421	,	0
13,43	,	175000	,	-6368	,	-5042	,	-5.0774794	,	0
13,43	,	175032	,	-6360	,	-5037	,	-5.1740103	,	0
13,43	,	175048	,	-6352	,	-5038	,	-5.096143	,	0
13,43	,	175080	,	-6343	,	-5033	,	-4.5230827	,	0
13,43	,	175097	,	-6348	,	-5031	,	-3.2345126	,	0
13,43	,	175113	,	-6350	,	-5039	,	-1.3479576	,	1
13,43	,	175144	,	-6331	,	-5037	,	0.81709886	,	2
13,43	,	175160	,	-6333	,	-5034	,	3.0923843	,	4
13,43	,	175176	,	-6329	,	-5031	,	5.4165726	,	6
13,43	,	175208	,	-6330	,	-5026	,	7.611813	,	8
13,43	,	175224	,	-6328	,	-5031	,	9.424736	,	10
13,43	,	175256	,	-6322	,	-5040	,	10.684391	,	11
13,43	,	175272	,	-6324	,	-5034	,	11.366954	,	12
13,43	,	175288	,	-6322	,	-5037	,	11.515523	,	12
13,43	,	175320	,	-6318	,	-5037	,	11.19816	,	11
13,43	,	175336	,	-6324	,	-5042	,	10.518459	,	10
13,43	,	175352	,	-6325	,	-5039	,	9.530254	,	8
13,43	,	175384	,	-6321	,	-5046	,	8.252001	,	6
13,43	,	175400	,	-6325	,	-5041	,	6.7784805	,	4
13,43	,	175416	,	-6326	,	-5047	,	5.2356625	,	2
13,43	,	175448	,	-6328	,	-5046	,	3.696552	,	1
13,43	,	175465	,	-6331	,	-5047	,	2.1957572	,	0
13,43	,	175496	,	-6327	,	-5046	,	0.7759099	,	0
13,43	,	175512	,	-6329	,	-5053	,	-0.47035778	,	0
13,43	,	175528	,	-6331	,	-5051	,	-1.4455872	,	0
13,43	,	175560	,	-6335	,	-5050	,	-2.1492205	,	0
13,43	,	175576	,	-6339	,	-5053	,	-2.6890998	,	0
13,44	,	175592	,	-6334	,	-5053	,	-3.1674209	,	0
13,44	,	175624	,	-6343	,	-5058	,	-3.5967581	,	0
13,44	,	175640	,	-6338	,	-5059	,	-3.9610124	,	0
13,44	,	175672	,	-6345	,	-5057	,	-4.260031	,	0
13,44	,	175688	,	-6347	,	-5059	,	-4.5182357	,	0
13,44	,	175704	,	-6343	,	-5061	,	-4.7632055	,	0
13,44	,	175736	,	-6346	,	-5061	,	-4.948832	,	0
13,44	,	175752	,	-6349	,	-5066	,	-5.0142612	,	0
13,44	,	175768	,	-6351	,	-5066	,	-4.98337	,	0
13,44	,	175800	,	-6356	,	-5066	,	-4.9432697	,	0
13,44	,	175816	,	-6360	,	-5064	,	-5.004739	,	0
13,44	,	175832	,	-6356	,	-5068	,	-5.2274156	,	0
13,44	,	175864	,	-6356	,	-5065	,	-5.525517	,	0
13,44	,	175880	,	-6360	,	-5060	,	-5.7387524	,	0
13,44	,	175912	,	-6340	,	-5053	,	-5.693447	,	0
13,44	,	175928	,	-6336	,	-5053	,	-5.0991793	,	0
13,44	,	175944	,	-6329	,	-5055	,	-3.6602495	,	0
13,44	,	175976	,	-6325	,	-5050	,	-1.3347695	,	1
13,44	,	175992	,	-6322	,	-5047	,	1.6486516	,	3
13,44	,	176008	,	-6324	,	-5045	,	4.8889246	,	5
13,44	,	176040	,	-6314	,	-5045	,	7.943204	,	8
13,44	,	176056	,	-6316	,	-5047	,	10.492659	,	11
13,44	,	176088	,	-6311	,	-5048	,	12.367668	,	13
13,44	,	176104	,	-6313	,	-5049	,	13.486687	,	14
13,44	,	176120	,	-6311	,	-5052	,	13.83353	,	15
13,44	,	176152	,	-6302	,	-5049	,	13.503086	,	15
13,44	,	176168	,	-6296	,	-5043	,	12.769596	,	14
13,44	,	176184	,	-6299	,	-5046	,	11.95709	,	12
13,44	,	176216	,	-6304	,	-5047	,	11.176626	,	10
13,44	,	176232	,	-6306	,	-5046	,	10.294392	,	7
13,44	,	176264	,	-6301	,	-5050	,	9.16599	,	4
13,44	,	176280	,	-6304	,	-5046	,	7.8059382	,	2
13,44	,	176296	,	-6301	,	-5048	,	6.333561	,	1
13,44	,	176328	,	-6299	,	-5051	,	4.8906274	,	0
13,44	,	176344	,	-6307	,	-5056	,	3.5831542	,	0
13,44	,	176360	,	-6313	,	-5057	,	2.3763642	,	0
13,44	,	176392	,	-6310	,	-5058	,	1.1436858	,	0
13,44	,	176408	,	-6305	,	-5057	,	-0.10844779	,	0
13,44	,	176424	,	-6313	,	-5059	,	-1.2262368	,	0
13,44	,	176456	,	-6311	,	-5056	,	-2.1142895	,	0
13,44	,	176472	,	-6320	,	-5058	,	-2.8071866	,	0
13,44	,	176504	,	-6310	,	-5057	,	-3.3679588	,	0
13,44	,	176520	,	-6318	,	-5065	,	-3.7906232	,	0
13,44	,	176536	,	-6325	,	-5062	,	-4.086403	,	0
13,44	,	176568	,	-6319	,	-5060	,	-4.3524795	,	0
13,44	,	176583	,	-6320	,	-5066	,	-4.601304	,	0
13,45	,	176600	,	-6316	,	-5063	,	-4.708461	,	0
13,45	,	176632	,	-6325	,	-5070	,	-4.5894423	,	0
13,45	,	176648	,	-6332	,	-5064	,	-4.350253	,	0
13,45	,	176680	,	-6332	,	-5066	,	-4.23308	,	0
13,45	,	176696	,	-6334	,	-5070	,	-4.386504	,	0
13,45	,	176712	,	-6333	,	-5064	,	-4.7636147	,	0
13,45	,	176743	,	-6339	,	-5066	,	-5.2354045	,	0
13,45	,	176760	,	-6334	,	-5066	,	-5.6918707	,	0
13,45	,	176776	,	-6326	,	-5059	,	-5.976014	,	0
13,45	,	176808	,	-6322	,	-5058	,	-5.834467	,	0
13,45	,	176824	,	-6317	,	-5064	,	-5.0491652	,	0
13,45	,	176840	,	-6316	,	-5052	,	-3.573136	,	0
13,45	,	176872	,	-6311	,	-5051	,	-1.5409405	,	1
13,45	,	176887	,	-6307	,	-5052	,	0.8213618	,	3
13,45	,	176919	,	-6312	,	-5054	,	3.2487545	,	5
13,45	,	176936	,	-6308	,	-5053	,	5.42756	,	7
13,45	,	176952	,	-6302	,	-5055	,	7.120583	,	9
13,45	,	176984	,	-6307	,	-5055	,	8.26325	,	10
13,45	,	177000	,	-6305	,	-5054	,	8.843074	,	11
13,45	,	177016	,	-6304	,	-5052	,	8.852696	,	11
13,45	,	177047	,	-6305	,	-5055	,	8.357357	,	11
13,45	,	177063	,	-6302	,	-5055	,	7.488023	,	10
13,45	,	177095	,	-6307	,	-5052	,	6.391955	,	8
13,45	,	177112	,	-6311	,	-5054	,	5.1537247	,	6
13,45	,	177128	,	-6307	,	-5060	,	3.795307	,	4
13,45	,	177160	,	-6310	,	-5057	,	2.3904703	,	2
13,45	,	177176	,	-6310	,	-5059	,	1.0640092	,	1
13,45	,	177191	,	-6315	,	-5056	,	-0.113152504	,	0
13,45	,	177223	,	-6313	,	-5059	,	-1.1375728	,	0
13,45	,	177239	,	-6321	,	-5055	,	-2.029836	,	0
13,45	,	177255	,	-6322	,	-5062	,	-2.84199	,	0
13,45	,	177288	,	-6311	,	-5061	,	-3.5766828	,	0
13,45	,	177304	,	-6311	,	-5054	,	-4.064194	,	0
13,45	,	177336	,	-6317	,	-5059	,	-4.127262	,	0
13,45	,	177352	,	-6322	,	-5059	,	-3.8329616	,	0
13,45	,	177367	,	-6323	,	-5065	,	-3.4360852	,	0
13,45	,	177399	,	-6323	,	-5061	,	-3.1516185	,	0
13,45	,	177415	,	-6324	,	-5062	,	-3.0422924	,	0
13,45	,	177431	,	-6328	,	-5067	,	-3.0767784	,	0
13,45	,	177463	,	-6328	,	-5071	,	-3.2225795	,	0
13,45	,	177479	,	-6332	,	-5062	,	-3.4627776	,	0
13,45	,	177512	,	-6331	,	-5067	,	-3.7776122	,	0
13,45	,	177528	,	-6339	,	-5069	,	-4.151616	,	0
13,45	,	177543	,	-6339	,	-5075	,	-4.5955715	,	0
13,45	,	177575	,	-6342	,	-5064	,	-5.118353	,	0
13,46	,	177591	,	-6339	,	-5070	,	-5.661446	,	0
13,46	,	177607	,	-6332	,	-5066	,	-6.053651	,	0
13,46	,	177640	,	-6322	,	-5063	,	-6.00758	,	0
13,46	,	177655	,	-6317	,	-5063	,	-5.221278	,	0
13,46	,	177671	,	-6319	,	-5057	,	-3.5831099	,	0
13,46	,	177703	,	-6314	,	-5054	,	-1.2800512	,	1
13,46	,	177719	,	-6311	,	-5056	,	1.3406065	,	3
13,46	,	177751	,	-6310	,	-5056	,	3.9496098	,	5
13,46	,	177767	,	-6308	,	-5054	,	6.271927	,	7
13,46	,	177783	,	-6305	,	-5056	,	8.104074	,	9
13,46	,	177815	,	-6309	,	-5055	,	9.326266	,	10
13,46	,	177831	,	-6302	,	-5050	,	9.888881	,	11
13,46	,	177847	,	-6302	,	-5056	,	9.856552	,	11
13,46	,	177879	,	-6307	,	-5049	,	9.367588	,	11
13,46	,	177896	,	-6306	,	-5049	,	8.506823	,	10
13,46	,	177927	,	-6303	,	-5054	,	7.342193	,	8
13,46	,	177943	,	-6310	,	-5053	,	5.989827	,	6
13,46	,	177959	,	-6303	,	-5057	,	4.5657268	,	4
13,46	,	177991	,	-6307	,	-5056	,	3.186458	,	2
13,46	,	178007	,	-6311	,	-5055	,	1.9458427	,	1
13,46	,	178023	,	-6310	,	-5059	,	0.85307574	,	0
13,46	,	178055	,	-6312	,	-5055	,	-0.110954165	,	0
13,46	,	178071	,	-6316	,	-5057	,	-0.9562621	,	0
13,46	,	178087	,	-6319	,	-5061	,	-1.7292101	,	0
13,46	,	178119	,	-6318	,	-5060	,	-2.4827764	,	0
13,46	,	178135	,	-6322	,	-5062	,	-3.2168276	,	0
13,46	,	178167	,	-6323	,	-5062	,	-3.9021244	,	0
13,46	,	178183	,	-6328	,	-5058	,	-4.5268183	,	0
13,46	,	178199	,	-6323	,	-5060	,	-5.077142	,	0
13,46	,	178231	,	-6328	,	-5060	,	-5.4915376	,	0
13,46	,	178247	,	-6334	,	-5064	,	-5.7359257	,	0
13,46	,	178263	,	-6331	,	-5064	,	-5.8771944	,	0
13,46	,	178295	,	-6334	,	-5060	,	-5.969582	,	0
13,46	,	178312	,	-6332	,	-5065	,	-5.981886	,	0
13,46	,	178343	,	-6341	,	-5064	,	-5.8944573	,	0
13,46	,	178359	,	-6340	,	-5064	,	-5.7764883	,	0
13,46	,	178375	,	-6351	,	-5063	,	-5.7563686	,	0
13,46	,	178407	,	-6341	,	-5057	,	-5.915254	,	0
13,46	,	178423	,	-6336	,	-5056	,	-6.1286564	,	0
13,46	,	178439	,	-6335	,	-5057	,	-6.0918436	,	0
13,46	,	178471	,	-6326	,	-5054	,	-5.5457983	,	0
13,46	,	178487	,	-6320	,	-5050	,	-4.3480363	,	0
13,46	,	178519	,	-6320	,	-5055	,	-2.4709868	,	1
13,46	,	178535	,	-6321	,	-5054	,	-0.09537363	,	2
13,46	,	178551	,	-6314	,	-5048	,	2.4380553	,	4
13,46	,	178583	,	-6314	,	-5049	,	4.820919	,	6
13,47	,	178599	,	-6314	,	-5048	,	6.8308854	,	8
13,47	,	178615	,	-6312	,	-5052	,	8.292852	,	10
13,47	,	178647	,	-6313	,	-5050	,	9.110615	,	11
13,47	,	178663	,	-6309	,	-5046	,	9.300332	,	11
13,47	,	178679	,	-6313	,	-5048	,	8.961035	,	11
13,47	,	178711	,	-6313	,	-5049	,	8.19482	,	10
13,47	,	178727	,	-6310	,	-5050	,	7.098549	,	9
13,47	,	178759	,	-6308	,	-5050	,	5.8376145	,	7
13,47	,	178775	,	-6311	,	-5051	,	4.605059	,	5
13,47	,	178791	,	-6313	,	-5052	,	3.4949076	,	3
13,47	,	178823	,	-6314	,	-5051	,	2.4903204	,	1
13,47	,	178839	,	-6322	,	-5053	,	1.5211632	,	0
13,47	,	178855	,	-6322	,	-5051	,	0.48973608	,	0
13,47	,	178887	,	-6321	,	-5052	,	-0.6420989	,	0
13,47	,	178903	,	-6326	,	-5047	,	-1.7980984	,	0
13,47	,	178934	,	-6329	,	-5043	,	-2.8989754	,	0
13,47	,	178951	,	-6324	,	-5049	,	-3.894399	,	0
13,47	,	178967	,	-6327	,	-5045	,	-4.6754766	,	0
13,47	,	178999	,	-6329	,	-5045	,	-5.1382575	,	0
13,47	,	179015	,	-6326	,	-5048	,	-5.273433	,	0
13,47	,	179031	,	-6340	,	-5043	,	-5.169241	,	0
13,47	,	179062	,	-6341	,	-5043	,	-5.042697	,	0
13,47	,	179078	,	-6341	,	-5040	,	-5.1136656	,	0
13,47	,	179095	,	-6343	,	-5044	,	-5.4139204	,	0
13,47	,	179127	,	-6344	,	-5043	,	-5.8387156	,	0
13,47	,	179143	,	-6342	,	-5041	,	-6.252514	,	0
13,47	,	179175	,	-6348	,	-5046	,	-6.5305996	,	0
13,47	,	179191	,	-6348	,	-5041	,	-6.6283574	,	0
13,47	,	179207	,	-6358	,	-5041	,	-6.6157727	,	0
13,47	,	179239	,	-6354	,	-5039	,	-6.617382	,	0
13,47	,	179255	,	-6352	,	-5039	,	-6.6600876	,	0
13,47	,	179270	,	-6345	,	-5037	,	-6.5854597	,	0
13,47	,	179302	,	-6334	,	-5027	,	-6.118685	,	0
13,47	,	179319	,	-6327	,	-5033	,	-4.9713697	,	0
13,47	,	179351	,	-6330	,	-5035	,	-3.0126922	,	1
13,47	,	179367	,	-6333	,	-5030	,	-0.45912528	,	2
13,47	,	179383	,	-6326	,	-5032	,	2.2267222	,	4
13,47	,	179415	,	-6324	,	-5030	,	4.659111	,	6
13,47	,	179431	,	-6322	,	-5031	,	6.6533422	,	8
13,47	,	179446	,	-6323	,	-5025	,	8.121396	,	9
13,47	,	179478	,	-6322	,	-5036	,	8.999084	,	10
13,47	,	179494	,	-6321	,	-5032	,	9.26738	,	10
13,47	,	179511	,	-6316	,	-5032	,	9.002687	,	10
13,47	,	179543	,	-6325	,	-5029	,	8.341793	,	9
13,47	,	179559	,	-6316	,	-5037	,	7.397862	,	8
13,48	,	179590	,	-6318	,	-5039	,	6.296462	,	6
13,48	,	179606	,	-6320	,	-5034	,	5.180526	,	4
13,48	,	179622	,	-6328	,	-5040	,	4.081013	,	2
13,48	,	179654	,	-6330	,	-5041	,	2.8938456	,	1
13,48	,	179670	,	-6323	,	-5045	,	1.5598905	,	0
13,48	,	179687	,	-6326	,	-5041	,	0.20929766	,	0
13,48	,	179719	,	-6331	,	-5045	,	-0.976063	,	0
13,48	,	179734	,	-6326	,	-5050	,	-1.9286529	,	0
13,48	,	179766	,	-6331	,	-5050	,	-2.6370904	,	0
13,48	,	179782	,	-6334	,	-5055	,	-3.1181211	,	0
13,48	,	179798	,	-6332	,	-5053	,	-3.4400868	,	0
13,48	,	179830	,	-6332	,	-5056	,	-3.6372209	,	0
13,48	,	179846	,	-6343	,	-5053	,	-3.7314582	,	0
13,48	,	179862	,	-6340	,	-5056	,	-3.8382308	,	0
13,48	,	179894	,	-6344	,	-5051	,	-4.0672803	,	0
13,48	,	179911	,	-6344	,	-5062	,	-4.4109597	,	0
13,48	,	179927	,	-6354	,	-5059	,	-4.836773	,	0
13,48	,	179959	,	-6355	,	-5055	,	-5.37952	,	0
13,48	,	179975	,	-6349	,	-5069	,	-6.032502	,	0
13,48	,	180006	,	-6349	,	-5057	,	-6.6147046	,	0
13,48	,	180022	,	-6358	,	-5067	,	-6.927288	,	0
13,48	,	180038	,	-6357	,	-5063	,	-6.965844	,	0
13,48	,	180070	,	-6356	,	-5062	,	-6.8238235	,	0
13,48	,	180086	,	-6352	,	-5053	,	-6.516324	,	0
13,48	,	180102	,	-6344	,	-5057	,	-5.9485226	,	0
13,48	,	180134	,	-6332	,	-5052	,	-4.9200954	,	0
13,48	,	180150	,	-6341	,	-5052	,	-3.2690163	,	1
13,48	,	180182	,	-6333	,	-5055	,	-1.1081505	,	2
13,48	,	180198	,	-6325	,	-5053	,	1.2884703	,	4
13,48	,	180214	,	-6318	,	-5059	,	3.7681618	,	6
13,48	,	180246	,	-6323	,	-5047	,	6.2359247	,	8
13,48	,	180262	,	-6316	,	-5053	,	8.489244	,	10
13,48	,	180278	,	-6314	,	-5051	,	10.314801	,	12
13,48	,	180310	,	-6319	,	-5051	,	11.576907	,	13
13,48	,	180326	,	-6312	,	-5053	,	12.175394	,	14
13,48	,	180358	,	-6313	,	-5055	,	12.107595	,	13
13,48	,	180374	,	-6314	,	-5047	,	11.485002	,	12
13,48	,	180390	,	-6313	,	-5050	,	10.426457	,	10
13,48	,	180422	,	-6320	,	-5050	,	9.015501	,	8
13,48	,	180438	,	-6310	,	-5055	,	7.346675	,	6
13,48	,	180454	,	-6313	,	-5052	,	5.6073365	,	4
13,48	,	180486	,	-6307	,	-5054	,	4.045027	,	2
13,48	,	180502	,	-6308	,	-5056	,	2.8510363	,	1
13,48	,	180518	,	-6315	,	-5054	,	2.0649474	,	0
13,48	,	180550	,	-6315	,	-5058	,	1.5427637	,	0
13,48	,	180566	,	-6308	,	-5065	,	1.1274391	,	0
13,49	,	180598	,	-6324	,	-5058	,	0.7459556	,	0
13,49	,	180614	,	-6317	,	-5059	,	0.2919166	,	0
13,49	,	180630	,	-6326	,	-5056	,	-0.34007508	,	0
13,49	,	180662	,	-6314	,	-5062	,	-1.1242942	,	0
13,49	,	180678	,	-6323	,	-5062	,	-1.9103616	,	0
13,49	,	180694	,	-6327	,	-5067	,	-2.5789514	,	0
13,49	,	180726	,	-6317	,	-5063	,	-3.1072464	,	0
13,49	,	180742	,	-6325	,	-5067	,	-3.442667	,	0
13,49	,	180774	,	-6329	,	-5070	,	-3.5637	,	0
13,49	,	180790	,	-6335	,	-5067	,	-3.6180034	,	0
13,49	,	180806	,	-6334	,	-5070	,	-3.7991874	,	0
13,49	,	180838	,	-6334	,	-5070	,	-4.1586714	,	0
13,49	,	180854	,	-6338	,	-5078	,	-4.608244	,	0
13,49	,	180870	,	-6349	,	-5075	,	-5.1067786	,	0
13,49	,	180902	,	-6344	,	-5076	,	-5.7212477	,	0
13,49	,	180918	,	-6338	,	-5069	,	-6.4052734	,	0
13,49	,	180934	,	-6332	,	-5068	,	-6.8699102	,	0
13,49	,	180966	,	-6328	,	-5061	,	-6.7630224	,	0
13,49	,	180982	,	-6325	,	-5065	,	-5.888256	,	0
13,49	,	181014	,	-6318	,	-5063	,	-4.2486715	,	0
13,49	,	181030	,	-6317	,	-5062	,	-1.9839265	,	1
13,49	,	181046	,	-6320	,	-5057	,	0.6321633	,	3
13,49	,	181078	,	-6318	,	-5062	,	3.203946	,	5
13,49	,	181094	,	-6318	,	-5057	,	5.3608947	,	7
13,49	,	181110	,	-6318	,	-5058	,	6.8743796	,	9
13,49	,	181142	,	-6325	,	-5062	,	7.624073	,	10
13,49	,	181158	,	-6326	,	-5060	,	7.543572	,	10
13,49	,	181189	,	-6315	,	-5065	,	6.716641	,	10
13,49	,	181206	,	-6323	,	-5060	,	5.4432373	,	10
13,49	,	181222	,	-6321	,	-5060	,	4.035675	,	9
13,49	,	181254	,	-6323	,	-5060	,	2.6657736	,	7
13,49	,	181270	,	-6322	,	-5063	,	1.4351656	,	5
13,49	,	181286	,	-6327	,	-5065	,	0.3987081	,	3
13,49	,	181318	,	-6325	,	-5069	,	-0.45631003	,	1
13,49	,	181334	,	-6332	,	-5062	,	-1.179146	,	0
13,49	,	181350	,	-6336	,	-5069	,	-1.8609184	,	0
13,49	,	181382	,	-6330	,	-5067	,	-2.5777905	,	0
13,49	,	181398	,	-6339	,	-5070	,	-3.2942634	,	0
13,49	,	181430	,	-6336	,	-5071	,	-3.9425583	,	0
13,49	,	181446	,	-6340	,	-5066	,	-4.4926853	,	0
13,49	,	181462	,	-6344	,	-5074	,	-4.9372854	,	0
13,49	,	181494	,	-6349	,	-5070	,	-5.332133	,	0
13,49	,	181510	,	-6351	,	-5069	,	-5.773608	,	0
13,49	,	181526	,	-6347	,	-5078	,	-6.271968	,	0
13,49	,	181558	,	-6353	,	-5073	,	-6.7125273	,	0
13,49	,	181573	,	-6349	,	-5075	,	-6.968253	,	0
13,50	,	181606	,	-6351	,	-5079	,	-6.964946	,	0
13,50	,	181622	,	-6363	,	-5078	,	-6.7342606	,	0
13,50	,	181638	,	-6365	,	-5078	,	-6.4834614	,	0
13,50	,	181670	,	-6358	,	-5079	,	-6.3987656	,	0
13,50	,	181686	,	-6364	,	-5077	,	-6.4315643	,	0
13,50	,	181702	,	-6364	,	-5078	,	-6.4411764	,	0
13,50	,	181733	,	-6362	,	-5082	,	-6.346033	,	0
13,50	,	181750	,	-6361	,	-5076	,	-6.078128	,	0
13,50	,	181766	,	-6362	,	-5074	,	-5.580125	,	0
13,50	,	181798	,	-6355	,	-5072	,	-4.828062	,	0
13,50	,	181814	,	-6350	,	-5076	,	-3.7800784	,	0
13,50	,	181846	,	-6345	,	-5069	,	-2.371419	,	1
13,50	,	181862	,	-6347	,	-5072	,	-0.61398125	,	2
13,50	,	181877	,	-6343	,	-5073	,	1.3381302	,	3
13,50	,	181909	,	-6339	,	-5076	,	3.2749877	,	4
13,50	,	181925	,	-6340	,	-5069	,	5.0271297	,	5
13,50	,	181941	,	-6335	,	-5064	,	6.467802	,	6
13,50	,	181974	,	-6338	,	-5070	,	7.5150266	,	7
13,50	,	181990	,	-6330	,	-5067	,	8.14732	,	8
13,50	,	182021	,	-6341	,	-5067	,	8.376463	,	8
13,50	,	182037	,	-6336	,	-5067	,	8.181312	,	7
13,50	,	182054	,	-6346	,	-5070	,	7.507038	,	6
13,50	,	182085	,	-6336	,	-5066	,	6.3636293	,	5
13,50	,	182101	,	-6339	,	-5070	,	4.9171486	,	4
13,50	,	182117	,	-6346	,	-5063	,	3.3877432	,	3
13,50	,	182150	,	-6346	,	-5073	,	1.8662691	,	2
13,50	,	182166	,	-6352	,	-5068	,	0.35126042	,	1
13,50	,	182182	,	-6350	,	-5073	,	-1.1397637	,	0
13,50	,	182213	,	-6359	,	-5075	,	-2.5702622	,	0
13,50	,	182229	,	-6352	,	-5073	,	-3.8937705	,	0
13,50	,	182261	,	-6361	,	-5071	,	-5.033816	,	0
13,50	,	182277	,	-6354	,	-5067	,	-5.906124	,	0
13,50	,	182293	,	-6360	,	-5069	,	-6.4480286	,	0
13,50	,	182326	,	-6365	,	-5075	,	-6.669528	,	0
13,50	,	182341	,	-6363	,	-5072	,	-6.681324	,	0
13,50	,	182357	,	-6365	,	-5072	,	-6.577599	,	0
13,50	,	182389	,	-6362	,	-5084	,	-6.360417	,	0
13,50	,	182405	,	-6367	,	-5076	,	-6.002243	,	0
13,50	,	182437	,	-6369	,	-5082	,	-5.5340004	,	0
13,50	,	182453	,	-6373	,	-5079	,	-5.0696983	,	0
13,50	,	182469	,	-6372	,	-5084	,	-4.7273602	,	0
13,50	,	182501	,	-6378	,	-5082	,	-4.5629873	,	0
13,50	,	182517	,	-6380	,	-5083	,	-4.6008816	,	0
13,50	,	182533	,	-6378	,	-5085	,	-4.8285346	,	0
13,50	,	182565	,	-6379	,	-5084	,	-5.135444	,	0
13,50	,	182581	,	-6380	,	-5074	,	-5.367618	,	0
13,51	,	182613	,	-6385	,	-5079	,	-5.4527855	,	0
13,51	,	182629	,	-6376	,	-5077	,	-5.3895555	,	0
13,51	,	182645	,	-6374	,	-5071	,	-5.115821	,	0
13,51	,	182677	,	-6366	,	-5082	,	-4.4791327	,	0
13,51	,	182693	,	-6359	,	-5071	,	-3.3208973	,	0
13,51	,	182709	,	-6355	,	-5074	,	-1.5570412	,	1
13,51	,	182741	,	-6357	,	-5069	,	0.7233484	,	2
13,51	,	182757	,	-6359	,	-5063	,	3.2034168	,	4
13,51	,	182773	,	-6356	,	-5067	,	5.4568563	,	6
13,51	,	182805	,	-6352	,	-5069	,	7.1771355	,	8
13,51	,	182821	,	-6356	,	-5068	,	8.255809	,	9
13,51	,	182853	,	-6351	,	-5071	,	8.69312	,	10
13,51	,	182869	,	-6355	,	-5065	,	8.554638	,	10
13,51	,	182885	,	-6350	,	-5063	,	7.96099	,	10
13,51	,	182917	,	-6350	,	-5070	,	7.0733457	,	9
13,51	,	182933	,	-6354	,	-5062	,	6.048788	,	8
13,51	,	182949	,	-6353	,	-5059	,	4.967485	,	6
13,51	,	182981	,	-6357	,	-5067	,	3.846594	,	4
13,51	,	182997	,	-6355	,	-5066	,	2.7009776	,	2
13,51	,	183029	,	-6348	,	-5070	,	1.6191847	,	1
13,51	,	183045	,	-6352	,	-5067	,	0.7672906	,	0
13,51	,	183061	,	-6359	,	-5070	,	0.20441234	,	0
13,51	,	183093	,	-6359	,	-5064	,	-0.20565683	,	0
13,51	,	183109	,	-6364	,	-5066	,	-0.64385605	,	0
13,51	,	183125	,	-6360	,	-5071	,	-1.1969986	,	0
13,51	,	183157	,	-6367	,	-5061	,	-1.8451068	,	0
13,51	,	183173	,	-6364	,	-5062	,	-2.5274842	,	0
13,51	,	183205	,	-6368	,	-5066	,	-3.178701	,	0
13,51	,	183221	,	-6371	,	-5060	,	-3.749285	,	0
13,51	,	183237	,	-6370	,	-5062	,	-4.237217	,	0
13,51	,	183269	,	-6373	,	-5058	,	-4.642803	,	0
13,51	,	183285	,	-6372	,	-5059	,	-4.9370127	,	0
13,51	,	183301	,	-6378	,	-5059	,	-5.1104407	,	0
13,51	,	183333	,	-6380	,	-5053	,	-5.2167587	,	0
13,51	,	183349	,	-6379	,	-5055	,	-5.3223534	,	0
13,51	,	183365	,	-6374	,	-5055	,	-5.3972316	,	0
13,51	,	183397	,	-6380	,	-5056	,	-5.334837	,	0
13,51	,	183413	,	-6389	,	-5059	,	-5.1363773	,	0
13,51	,	183445	,	-6393	,	-5062	,	-4.9963784	,	0
13,51	,	183461	,	-6391	,	-5059	,	-5.110322	,	0
13,51	,	183477	,	-6389	,	-5059	,	-5.4530625	,	0
13,51	,	183509	,	-6387	,	-5051	,	-5.8059707	,	0
13,51	,	183525	,	-6377	,	-5048	,	-5.8888197	,	0
13,51	,	183541	,	-6366	,	-5043	,	-5.386695	,	0
13,51	,	183573	,	-6366	,	-5050	,	-4.038415	,	0
13,51	,	183589	,	-6362	,	-5047	,	-1.8487797	,	1
13,52	,	183621	,	-6358	,	-5048	,	0.89774394	,	3
13,52	,	183637	,	-6359	,	-5042	,	3.8152206	,	5
13,52	,	183653	,	-6354	,	-5039	,	6.5336456	,	7
13,52	,	183685	,	-6351	,	-5040	,	8.783714	,	9
13,52	,	183701	,	-6351	,	-5047	,	10.4332075	,	11
13,52	,	183717	,	-6352	,	-5040	,	11.418052	,	12
13,52	,	183748	,	-6346	,	-5043	,	11.723984	,	12
13,52	,	183764	,	-6347	,	-5040	,	11.44054	,	12
13,52	,	183781	,	-6349	,	-5049	,	10.707328	,	11
13,52	,	183813	,	-6351	,	-5052	,	9.612934	,	9
13,52	,	183829	,	-6351	,	-5046	,	8.219616	,	7
13,52	,	183861	,	-6355	,	-5047	,	6.610641	,	5
13,52	,	183877	,	-6352	,	-5049	,	4.8822055	,	3
13,52	,	183892	,	-6352	,	-5049	,	3.1665661	,	1
13,52	,	183924	,	-6353	,	-5053	,	1.6217475	,	0
13,52	,	183941	,	-6353	,	-5047	,	0.35937405	,	0
13,52	,	183957	,	-6354	,	-5057	,	-0.5760069	,	0
13,52	,	183989	,	-6359	,	-5055	,	-1.2157131	,	0
13,52	,	184005	,	-6358	,	-5058	,	-1.6699827	,	0
13,52	,	184036	,	-6364	,	-5062	,	-2.0639935	,	0
13,52	,	184052	,	-6359	,	-5060	,	-2.4664524	,	0
13,52	,	184069	,	-6363	,	-5061	,	-2.8546193	,	0
13,52	,	184101	,	-6371	,	-5067	,	-3.2060697	,	0
13,52	,	184117	,	-6368	,	-5059	,	-3.5888638	,	0
13,52	,	184133	,	-6369	,	-5064	,	-4.0338798	,	0
13,52	,	184165	,	-6371	,	-5064	,	-4.4657545	,	0
13,52	,	184181	,	-6373	,	-5070	,	-4.8158526	,	0
13,52	,	184196	,	-6376	,	-5065	,	-5.072564	,	0
13,52	,	184228	,	-6373	,	-5064	,	-5.2326255	,	0
13,52	,	184244	,	-6382	,	-5071	,	-5.291842	,	0
13,52	,	184276	,	-6379	,	-5065	,	-5.297372	,	0
13,52	,	184293	,	-6378	,	-5074	,	-5.285263	,	0
13,52	,	184309	,	-6385	,	-5071	,	-5.2241354	,	0
13,52	,	184341	,	-6384	,	-5073	,	-5.11965	,	0
13,52	,	184356	,	-6387	,	-5073	,	-5.0243416	,	0
13,52	,	184372	,	-6380	,	-5070	,	-4.9313793	,	0
13,52	,	184404	,	-6368	,	-5061	,	-4.6828747	,	0
13,52	,	184420	,	-6362	,	-5064	,	-3.970661	,	0
13,52	,	184452	,	-6359	,	-5061	,	-2.5463474	,	0
13,52	,	184468	,	-6351	,	-5056	,	-0.4040575	,	1
13,52	,	184485	,	-6353	,	-5058	,	2.252774	,	3
13,52	,	184516	,	-6354	,	-5057	,	5.063499	,	5
13,52	,	184532	,	-6350	,	-5060	,	7.5961857	,	7
13,52	,	184548	,	-6344	,	-5052	,	9.554621	,	9
13,52	,	184580	,	-6340	,	-5057	,	10.886249	,	10
13,53	,	184596	,	-6331	,	-5054	,	11.719605	,	11
13,53	,	184612	,	-6332	,	-5057	,	12.244405	,	11
13,53	,	184644	,	-6337	,	-5066	,	12.53245	,	11
13,53	,	184660	,	-6325	,	-5055	,	12.516182	,	10
13,53	,	184692	,	-6324	,	-5057	,	12.214319	,	8
13,53	,	184708	,	-6338	,	-5055	,	11.692963	,	6
13,53	,	184724	,	-6324	,	-5060	,	10.886032	,	4
13,53	,	184756	,	-6326	,	-5056	,	9.787206	,	2
13,53	,	184773	,	-6327	,	-5057	,	8.544479	,	1
13,53	,	184789	,	-6322	,	-5058	,	7.2914143	,	0
13,53	,	184820	,	-6321	,	-5069	,	6.139836	,	0
13,53	,	184836	,	-6330	,	-5062	,	5.1528845	,	0
13,53	,	184868	,	-6329	,	-5060	,	4.244267	,	0
13,53	,	184884	,	-6334	,	-5067	,	3.2698832	,	0
13,53	,	184900	,	-6327	,	-5066	,	2.1872296	,	0
13,53	,	184932	,	-6328	,	-5064	,	1.0990524	,	0
13,53	,	184948	,	-6339	,	-5065	,	0.114414334	,	0
13,53	,	184964	,	-6337	,	-5068	,	-0.8060523	,	0
13,53	,	184996	,	-6338	,	-5070	,	-1.7336693	,	0
13,53	,	185012	,	-6334	,	-5070	,	-2.6082985	,	0
13,53	,	185044	,	-6338	,	-5067	,	-3.29699	,	0
13,53	,	185060	,	-6343	,	-5076	,	-3.7449183	,	0
13,53	,	185076	,	-6336	,	-5069	,	-3.9952734	,	0
13,53	,	185108	,	-6355	,	-5072	,	-4.13797	,	0
13,53	,	185124	,	-6352	,	-5074	,	-4.352893	,	0
13,53	,	185140	,	-6349	,	-5078	,	-4.7789	,	0
13,53	,	185172	,	-6356	,	-5073	,	-5.3417935	,	0
13,53	,	185188	,	-6355	,	-5074	,	-5.9031687	,	0
13,53	,	185204	,	-6360	,	-5073	,	-6.3913527	,	0
13,53	,	185236	,	-6366	,	-5079	,	-6.801119	,	0
13,53	,	185252	,	-6363	,	-5076	,	-7.1758785	,	0
13,53	,	185284	,	-6359	,	-5065	,	-7.4755297	,	0
13,53	,	185300	,	-6347	,	-5071	,	-7.47344	,	0
13,53	,	185316	,	-6346	,	-5062	,	-6.855631	,	0
13,53	,	185348	,	-6342	,	-5064	,	-5.451995	,	0
13,53	,	185364	,	-6341	,	-5063	,	-3.3584156	,	1
13,53	,	185380	,	-6335	,	-5065	,	-0.8379793	,	3
13,53	,	185412	,	-6330	,	-5063	,	1.8421149	,	5
13,53	,	185428	,	-6331	,	-5061	,	4.4640236	,	7
13,53	,	185460	,	-6331	,	-5066	,	6.793683	,	9
13,53	,	185476	,	-6331	,	-5062	,	8.576017	,	11
13,53	,	185492	,	-6333	,	-5068	,	9.622074	,	12
13,53	,	185524	,	-6334	,	-5060	,	9.850391	,	13
13,53	,	185540	,	-6326	,	-5068	,	9.333101	,	13
13,53	,	185556	,	-6332	,	-5059	,	8.3053	,	12
13,53	,	185588	,	-6326	,	-5063	,	7.0321336	,	10
13,54	,	185604	,	-6330	,	-5063	,	5.7113657	,	8
13,54	,	185620	,	-6334	,	-5064	,	4.441577	,	6
13,54	,	185652	,	-6335	,	-5066	,	3.2080977	,	4
13,54	,	185668	,	-6329	,	-5068	,	2.006287	,	2
13,54	,	185700	,	-6334	,	-5066	,	0.93083453	,	1
13,54	,	185716	,	-6337	,	-5071	,	0.05368042	,	0
13,54	,	185732	,	-6341	,	-5067	,	-0.6795872	,	0
13,54	,	185764	,	-6341	,	-5067	,	-1.3784134	,	0
13,54	,	185780	,	-6335	,	-5072	,	-2.0640025	,	0
13,54	,	185796	,	-6341	,	-5063	,	-2.637117	,	0
13,54	,	185828	,	-6339	,	-5067	,	-3.0114737	,	0
13,54	,	185844	,	-6355	,	-5075	,	-3.2495565	,	0
13,54	,	185876	,	-6352	,	-5071	,	-3.5581365	,	0
13,54	,	185892	,	-6353	,	-5075	,	-4.090515	,	0
13,54	,	185908	,	-6351	,	-5073	,	-4.7772236	,	0
13,54	,	185940	,	-6355	,	-5069	,	-5.426825	,	0
13,54	,	185956	,	-6352	,	-5074	,	-5.888571	,	0
13,54	,	185972	,	-6358	,	-5076	,	-6.093871	,	0
13,54	,	186004	,	-6356	,	-5073	,	-6.0490155	,	0
13,54	,	186020	,	-6364	,	-5083	,	-5.827633	,	0
13,54	,	186036	,	-6364	,	-5081	,	-5.556925	,	0
13,54	,	186068	,	-6372	,	-5077	,	-5.382436	,	0
13,54	,	186084	,	-6366	,	-5083	,	-5.394916	,	0
13,54	,	186116	,	-6370	,	-5076	,	-5.5597982	,	0
13,54	,	186132	,	-6364	,	-5075	,	-5.7365656	,	0
13,54	,	186148	,	-6357	,	-5072	,	-5.716555	,	0
13,54	,	186180	,	-6346	,	-5071	,	-5.2140703	,	0
13,54	,	186196	,	-6346	,	-5069	,	-3.9772558	,	0
13,54	,	186211	,	-6341	,	-5072	,	-1.9813917	,	1
13,54	,	186244	,	-6338	,	-5061	,	0.5631738	,	2
13,54	,	186260	,	-6348	,	-5068	,	3.290265	,	4
13,54	,	186292	,	-6341	,	-5067	,	5.7348804	,	6
13,54	,	186308	,	-6336	,	-5065	,	7.5610666	,	8
13,54	,	186324	,	-6333	,	-5064	,	8.734141	,	9
13,54	,	186356	,	-6335	,	-5067	,	9.36348	,	10
13,54	,	186372	,	-6331	,	-5069	,	9.531665	,	10
13,54	,	186388	,	-6326	,	-5065	,	9.339882	,	10
13,54	,	186419	,	-6335	,	-5063	,	8.916668	,	9
13,54	,	186436	,	-6331	,	-5057	,	8.294405	,	8
13,54	,	186452	,	-6338	,	-5067	,	7.414171	,	6
13,54	,	186484	,	-6336	,	-5063	,	6.23751	,	4
13,54	,	186500	,	-6338	,	-5068	,	4.8064404	,	2
13,54	,	186531	,	-6335	,	-5066	,	3.2502651	,	1
13,54	,	186547	,	-6342	,	-5066	,	1.7159157	,	0
13,54	,	186564	,	-6341	,	-5066	,	0.2884724	,	0
13,55	,	186595	,	-6345	,	-5063	,	-1.0001433	,	0
13,55	,	186611	,	-6343	,	-5069	,	-2.1206317	,	0
13,55	,	186628	,	-6347	,	-5068	,	-3.03269	,	0
13,55	,	186660	,	-6345	,	-5068	,	-3.7060452	,	0
13,55	,	186676	,	-6344	,	-5074	,	-4.1151476	,	0
13,55	,	186707	,	-6348	,	-5064	,	-4.242204	,	0
13,55	,	186723	,	-6354	,	-5070	,	-4.163079	,	0
13,55	,	186739	,	-6360	,	-5068	,	-4.086959	,	0
13,55	,	186771	,	-6359	,	-5069	,	-4.223758	,	0
13,55	,	186787	,	-6357	,	-5072	,	-4.6044126	,	0
13,55	,	186803	,	-6355	,	-5070	,	-5.0563016	,	0
13,55	,	186836	,	-6362	,	-5067	,	-5.378079	,	0
13,55	,	186852	,	-6364	,	-5070	,	-5.5246725	,	0
13,55	,	186868	,	-6364	,	-5074	,	-5.5722737	,	0
13,55	,	186899	,	-6375	,	-5073	,	-5.611292	,	0
13,55	,	186915	,	-6371	,	-5077	,	-5.7458296	,	0
13,55	,	186947	,	-6374	,	-5073	,	-6.0213146	,	0
13,55	,	186963	,	-6369	,	-5074	,	-6.3374524	,	0
13,55	,	186979	,	-6361	,	-5069	,	-6.4701357	,	0
13,55	,	187011	,	-6362	,	-5064	,	-6.161432	,	0
13,55	,	187028	,	-6350	,	-5061	,	-5.23822	,	0
13,55	,	187044	,	-6347	,	-5057	,	-3.6268456	,	0
13,55	,	187075	,	-6344	,	-5063	,	-1.3685534	,	1
13,55	,	187091	,	-6341	,	-5061	,	1.320051	,	3
13,55	,	187123	,	-6335	,	-5058	,	4.1340218	,	5
13,55	,	187139	,	-6335	,	-5063	,	6.8008304	,	7
13,55	,	187155	,	-6334	,	-5059	,	9.075032	,	9
13,55	,	187187	,	-6337	,	-5060	,	10.716312	,	11
13,55	,	187204	,	-6338	,	-5059	,	11.530116	,	12
13,55	,	187220	,	-6338	,	-5061	,	11.433821	,	12
13,55	,	187252	,	-6339	,	-5060	,	10.503794	,	12
13,55	,	187267	,	-6337	,	-5055	,	8.956575	,	11
13,55	,	187283	,	-6339	,	-5056	,	7.0730824	,	9
13,55	,	187315	,	-6341	,	-5055	,	5.1074395	,	7
13,55	,	187331	,	-6340	,	-5057	,	3.2396526	,	5
13,55	,	187363	,	-6344	,	-5062	,	1.5833597	,	3
13,55	,	187379	,	-6350	,	-5060	,	0.1544056	,	1
13,55	,	187395	,	-6352	,	-5059	,	-1.1407557	,	0
13,55	,	187427	,	-6348	,	-5060	,	-2.363625	,	0
13,55	,	187444	,	-6352	,	-5054	,	-3.438361	,	0
13,55	,	187459	,	-6356	,	-5061	,	-4.2772007	,	0
13,55	,	187491	,	-6347	,	-5055	,	-4.853878	,	0
13,55	,	187507	,	-6356	,	-5051	,	-5.1294184	,	0
13,55	,	187539	,	-6360	,	-5052	,	-5.1342654	,	0
13,55	,	187555	,	-6366	,	-5055	,	-5.0549707	,	0
13,55	,	187571	,	-6362	,	-5052	,	-5.078172	,	0
13,56	,	187603	,	-6367	,	-5047	,	-5.2435203	,	0
13,56	,	187619	,	-6370	,	-5049	,	-5.509186	,	0
13,56	,	187635	,	-6372	,	-5050	,	-5.8510075	,	0
13,56	,	187667	,	-6372	,	-5056	,	-6.235758	,	0
13,56	,	187683	,	-6377	,	-5052	,	-6.5970206	,	0
13,56	,	187715	,	-6383	,	-5052	,	-6.9133973	,	0
13,56	,	187731	,	-6377	,	-5053	,	-7.208634	,	0
13,56	,	187747	,	-6382	,	-5055	,	-7.4342413	,	0
13,56	,	187779	,	-6384	,	-5046	,	-7.5048847	,	0
13,56	,	187795	,	-6388	,	-5051	,	-7.424642	,	0
13,56	,	187811	,	-6383	,	-5043	,	-7.239863	,	0
13,56	,	187843	,	-6372	,	-5041	,	-6.8738127	,	0
13,56	,	187859	,	-6366	,	-5040	,	-6.07493	,	0
13,56	,	187875	,	-6366	,	-5037	,	-4.6191626	,	0
13,56	,	187907	,	-6363	,	-5042	,	-2.5367765	,	1
13,56	,	187923	,	-6362	,	-5030	,	-0.08639312	,	3
13,56	,	187955	,	-6362	,	-5037	,	2.394047	,	5
13,56	,	187971	,	-6359	,	-5035	,	4.5942135	,	7
13,56	,	187987	,	-6354	,	-5029	,	6.326178	,	9
13,56	,	188019	,	-6365	,	-5030	,	7.505688	,	10
13,56	,	188035	,	-6356	,	-5039	,	8.057819	,	11
13,56	,	188051	,	-6364	,	-5035	,	7.9678574	,	11
13,56	,	188083	,	-6365	,	-5035	,	7.2999344	,	11
13,56	,	188099	,	-6364	,	-5034	,	6.1425133	,	10
13,56	,	188131	,	-6368	,	-5034	,	4.6354113	,	8
13,56	,	188147	,	-6361	,	-5044	,	2.9741871	,	6
13,56	,	188163	,	-6359	,	-5035	,	1.4129212	,	4
13,56	,	188195	,	-6368	,	-5038	,	0.17821479	,	2
13,56	,	188211	,	-6362	,	-5043	,	-0.6829418	,	1
13,56	,	188227	,	-6366	,	-5042	,	-1.2356327	,	0
13,56	,	188259	,	-6370	,	-5046	,	-1.5596199	,	0
13,56	,	188275	,	-6372	,	-5049	,	-1.7829568	,	0
13,56	,	188291	,	-6370	,	-5050	,	-2.0276608	,	0
13,56	,	188323	,	-6378	,	-5049	,	-2.3428242	,	0
13,56	,	188339	,	-6376	,	-5055	,	-2.7504635	,	0
13,56	,	188371	,	-6382	,	-5061	,	-3.2621346	,	0
13,56	,	188387	,	-6377	,	-5058	,	-3.840259	,	0
13,56	,	188403	,	-6378	,	-5058	,	-4.371195	,	0
13,56	,	188435	,	-6376	,	-5050	,	-4.704351	,	0
13,56	,	188451	,	-6383	,	-5064	,	-4.7682858	,	0
13,56	,	188467	,	-6380	,	-5051	,	-4.6136274	,	0
13,56	,	188499	,	-6393	,	-5064	,	-4.3764534	,	0
13,56	,	188515	,	-6383	,	-5060	,	-4.2203703	,	0
13,56	,	188546	,	-6395	,	-5064	,	-4.2278137	,	0
13,56	,	188563	,	-6389	,	-5060	,	-4.383939	,	0
13,56	,	188579	,	-6399	,	-5064	,	-4.653667	,	0
13,57	,	188611	,	-6395	,	-5066	,	-5.0090504	,	0
13,57	,	188627	,	-6398	,	-5059	,	-5.398262	,	0
13,57	,	188643	,	-6385	,	-5059	,	-5.671144	,	0
13,57	,	188675	,	-6380	,	-5054	,	-5.5483713	,	0
13,57	,	188691	,	-6370	,	-5050	,	-4.722298	,	0
13,57	,	188706	,	-6370	,	-5052	,	-3.0398805	,	0
13,57	,	188738	,	-6366	,	-5057	,	-0.6189923	,	1
13,57	,	188754	,	-6362	,	-5052	,	2.2173994	,	3
13,57	,	188787	,	-6362	,	-5058	,	5.0969915	,	5
13,57	,	188803	,	-6362	,	-5057	,	7.670926	,	7
13,57	,	188819	,	-6360	,	-5057	,	9.647301	,	9
13,57	,	188851	,	-6360	,	-5052	,	10.855096	,	10
13,57	,	188867	,	-6362	,	-5060	,	11.249426	,	11
13,57	,	188882	,	-6358	,	-5056	,	10.883773	,	11
13,57	,	188914	,	-6355	,	-5059	,	9.934026	,	11
13,57	,	188931	,	-6353	,	-5057	,	8.680998	,	10
13,57	,	188963	,	-6358	,	-5057	,	7.37266	,	8
13,57	,	188979	,	-6356	,	-5059	,	6.1134214	,	6
13,57	,	188995	,	-6356	,	-5061	,	4.9196806	,	4
13,57	,	189027	,	-6352	,	-5057	,	3.832576	,	2
13,57	,	189043	,	-6358	,	-5063	,	2.912367	,	1
13,57	,	189058	,	-6357	,	-5059	,	2.158867	,	0
13,57	,	189090	,	-6350	,	-5066	,	1.55658	,	0
13,57	,	189107	,	-6359	,	-5057	,	1.1314881	,	0
13,57	,	189123	,	-6355	,	-5066	,	0.85158145	,	0
13,57	,	189155	,	-6360	,	-5061	,	0.61014396	,	0
13,57	,	189171	,	-6356	,	-5067	,	0.33064306	,	0
13,57	,	189202	,	-6360	,	-5063	,	-4.813075E-4	,	0
13,57	,	189218	,	-6360	,	-5068	,	-0.36779404	,	0
13,57	,	189234	,	-6363	,	-5069	,	-0.7625878	,	0
13,57	,	189266	,	-6362	,	-5069	,	-1.1799307	,	0
13,57	,	189282	,	-6359	,	-5068	,	-1.5783906	,	0
13,57	,	189299	,	-6364	,	-5072	,	-1.8889263	,	0
13,57	,	189331	,	-6364	,	-5067	,	-2.092649	,	0
13,57	,	189347	,	-6368	,	-5066	,	-2.2351193	,	0
13,57	,	189378	,	-6372	,	-5072	,	-2.3959975	,	0
13,57	,	189394	,	-6376	,	-5072	,	-2.6841578	,	0
13,57	,	189410	,	-6370	,	-5070	,	-3.1450994	,	0
13,57	,	189442	,	-6365	,	-5067	,	-3.632279	,	0
13,57	,	189458	,	-6359	,	-5070	,	-3.848729	,	0
13,57	,	189474	,	-6349	,	-5063	,	-3.4904401	,	0
13,57	,	189506	,	-6347	,	-5063	,	-2.3558283	,	0
13,57	,	189523	,	-6351	,	-5067	,	-0.49069953	,	1
13,57	,	189554	,	-6347	,	-5061	,	1.7668808	,	2
13,57	,	189570	,	-6352	,	-5067	,	3.9682884	,	4
13,57	,	189586	,	-6339	,	-5059	,	5.782401	,	6
13,58	,	189618	,	-6344	,	-5061	,	7.1072083	,	7
13,58	,	189634	,	-6340	,	-5059	,	7.970768	,	8
13,58	,	189650	,	-6345	,	-5064	,	8.379522	,	8
13,58	,	189682	,	-6347	,	-5063	,	8.292912	,	8
13,58	,	189698	,	-6348	,	-5057	,	7.6701975	,	8
13,58	,	189715	,	-6348	,	-5060	,	6.555171	,	7
13,58	,	189746	,	-6349	,	-5066	,	5.099325	,	6
13,58	,	189762	,	-6357	,	-5067	,	3.4567425	,	4
13,58	,	189794	,	-6350	,	-5065	,	1.7292488	,	2
13,58	,	189810	,	-6354	,	-5058	,	0.054873943	,	1
13,58	,	189826	,	-6351	,	-5070	,	-1.381088	,	0
13,58	,	189859	,	-6358	,	-5070	,	-2.4658594	,	0
13,58	,	189874	,	-6361	,	-5072	,	-3.2307897	,	0
13,58	,	189890	,	-6362	,	-5069	,	-3.8000276	,	0
13,58	,	189922	,	-6366	,	-5068	,	-4.283745	,	0
13,58	,	189938	,	-6362	,	-5070	,	-4.7160645	,	0
13,58	,	189970	,	-6367	,	-5070	,	-5.0535	,	0
13,58	,	189986	,	-6372	,	-5069	,	-5.275362	,	0
13,58	,	190002	,	-6368	,	-5073	,	-5.4315567	,	0
13,58	,	190034	,	-6371	,	-5069	,	-5.527754	,	0
13,58	,	190050	,	-6373	,	-5071	,	-5.5214653	,	0
13,58	,	190066	,	-6378	,	-5074	,	-5.435199	,	0
13,58	,	190098	,	-6375	,	-5076	,	-5.339985	,	0
13,58	,	190114	,	-6385	,	-5071	,	-5.2937183	,	0
13,58	,	190130	,	-6382	,	-5074	,	-5.3544493	,	0
13,58	,	190162	,	-6384	,	-5082	,	-5.5323744	,	0
13,58	,	190178	,	-6393	,	-5075	,	-5.7858896	,	0
13,58	,	190210	,	-6391	,	-5077	,	-6.1242557	,	0
13,58	,	190226	,	-6392	,	-5082	,	-6.5474615	,	0
13,58	,	190242	,	-6392	,	-5079	,	-6.9528327	,	0
13,58	,	190274	,	-6384	,	-5075	,	-7.165197	,	0
13,58	,	190290	,	-6377	,	-5075	,	-6.9431286	,	0
13,58	,	190306	,	-6375	,	-5069	,	-6.055294	,	0
13,58	,	190338	,	-6374	,	-5075	,	-4.4562674	,	0
13,58	,	190354	,	-6376	,	-5066	,	-2.3517966	,	1
13,58	,	190386	,	-6369	,	-5073	,	-0.071083546	,	3
13,58	,	190402	,	-6364	,	-5068	,	2.1418803	,	5
13,58	,	190418	,	-6356	,	-5065	,	4.2201495	,	7
13,58	,	190450	,	-6361	,	-5065	,	6.1585717	,	9
13,58	,	190466	,	-6358	,	-5072	,	7.849174	,	10
13,58	,	190482	,	-6361	,	-5062	,	9.093108	,	11
13,58	,	190514	,	-6358	,	-5066	,	9.734872	,	12
13,58	,	190530	,	-6356	,	-5065	,	9.752468	,	12
13,58	,	190546	,	-6358	,	-5074	,	9.247101	,	11
13,58	,	190578	,	-6359	,	-5069	,	8.341506	,	9
13,59	,	190594	,	-6362	,	-5074	,	7.1233954	,	7
13,59	,	190626	,	-6366	,	-5071	,	5.6551476	,	5
13,59	,	190642	,	-6362	,	-5071	,	4.005042	,	3
13,59	,	190658	,	-6363	,	-5069	,	2.31473	,	2
13,59	,	190690	,	-6359	,	-5073	,	0.79352355	,	1
13,59	,	190706	,	-6366	,	-5072	,	-0.39512348	,	0
13,59	,	190722	,	-6366	,	-5071	,	-1.232324	,	0
13,59	,	190754	,	-6367	,	-5071	,	-1.8073504	,	0
13,59	,	190770	,	-6370	,	-5077	,	-2.2163017	,	0
13,59	,	190802	,	-6370	,	-5075	,	-2.5327675	,	0
13,59	,	190818	,	-6369	,	-5074	,	-2.7862499	,	0
13,59	,	190834	,	-6379	,	-5072	,	-2.9926815	,	0
13,59	,	190866	,	-6378	,	-5074	,	-3.2409582	,	0
13,59	,	190882	,	-6382	,	-5077	,	-3.627235	,	0
13,59	,	190898	,	-6379	,	-5072	,	-4.138095	,	0
13,59	,	190930	,	-6379	,	-5073	,	-4.653692	,	0
13,59	,	190946	,	-6385	,	-5075	,	-5.045256	,	0
13,59	,	190962	,	-6388	,	-5073	,	-5.2979565	,	0
13,59	,	190994	,	-6393	,	-5077	,	-5.510868	,	0
13,59	,	191010	,	-6392	,	-5078	,	-5.7771673	,	0
13,59	,	191042	,	-6393	,	-5076	,	-6.092148	,	0
13,59	,	191058	,	-6396	,	-5079	,	-6.3757644	,	0
13,59	,	191074	,	-6396	,	-5079	,	-6.5566053	,	0
13,59	,	191106	,	-6390	,	-5076	,	-6.5649776	,	0
13,59	,	191122	,	-6387	,	-5079	,	-6.279804	,	0
13,59	,	191138	,	-6376	,	-5068	,	-5.5361195	,	0
13,59	,	191170	,	-6374	,	-5061	,	-4.176752	,	0
13,59	,	191186	,	-6365	,	-5067	,	-2.1427014	,	1
13,59	,	191218	,	-6368	,	-5068	,	0.44729018	,	3
13,59	,	191234	,	-6366	,	-5061	,	3.281715	,	5
13,59	,	191250	,	-6360	,	-5064	,	5.9726386	,	7
13,59	,	191282	,	-6364	,	-5067	,	8.218595	,	9
13,59	,	191298	,	-6358	,	-5063	,	9.835244	,	11
13,59	,	191314	,	-6363	,	-5064	,	10.735628	,	12
13,59	,	191346	,	-6360	,	-5058	,	10.906982	,	12
13,59	,	191362	,	-6357	,	-5067	,	10.415987	,	12
13,59	,	191378	,	-6364	,	-5062	,	9.417082	,	11
13,59	,	191410	,	-6360	,	-5059	,	8.064575	,	9
13,59	,	191426	,	-6360	,	-5059	,	6.4982424	,	7
13,59	,	191457	,	-6363	,	-5065	,	4.876495	,	5
13,59	,	191474	,	-6360	,	-5061	,	3.3310287	,	3
13,59	,	191489	,	-6364	,	-5065	,	1.9540982	,	1
13,59	,	191521	,	-6367	,	-5061	,	0.7820599	,	0
13,59	,	191538	,	-6363	,	-5067	,	-0.20784426	,	0
13,59	,	191554	,	-6372	,	-5062	,	-1.0456762	,	0
13,59	,	191586	,	-6368	,	-5063	,	-1.7695796	,	0
14,0	,	191602	,	-6367	,	-5072	,	-2.385439	,	0
14,0	,	191633	,	-6372	,	-5069	,	-2.8400764	,	0
14,0	,	191649	,	-6376	,	-5065	,	-3.1440647	,	0
14,0	,	191665	,	-6375	,	-5065	,	-3.3940506	,	0
14,0	,	191697	,	-6379	,	-5069	,	-3.6596258	,	0
14,0	,	191714	,	-6379	,	-5068	,	-3.955679	,	0
14,0	,	191730	,	-6382	,	-5071	,	-4.26764	,	0
14,0	,	191762	,	-6381	,	-5069	,	-4.5596647	,	0
14,0	,	191777	,	-6385	,	-5069	,	-4.793162	,	0
14,0	,	191794	,	-6389	,	-5066	,	-4.970934	,	0
14,0	,	191825	,	-6389	,	-5069	,	-5.140279	,	0
14,0	,	191841	,	-6389	,	-5075	,	-5.3137302	,	0
14,0	,	191873	,	-6386	,	-5072	,	-5.423026	,	0
14,0	,	191889	,	-6393	,	-5076	,	-5.3865075	,	0
14,0	,	191906	,	-6403	,	-5073	,	-5.255797	,	0
14,0	,	191937	,	-6398	,	-5068	,	-5.2148094	,	0
14,0	,	191953	,	-6392	,	-5068	,	-5.3159623	,	0
14,0	,	191969	,	-6388	,	-5065	,	-5.349544	,	0
14,0	,	192001	,	-6379	,	-5067	,	-5.008447	,	0
14,0	,	192017	,	-6378	,	-5061	,	-4.0623326	,	0
14,0	,	192049	,	-6371	,	-5062	,	-2.4432094	,	0
14,0	,	192065	,	-6367	,	-5056	,	-0.24464011	,	1
14,0	,	192081	,	-6358	,	-5057	,	2.3588982	,	3
14,0	,	192114	,	-6365	,	-5054	,	5.1325874	,	5
14,0	,	192130	,	-6365	,	-5052	,	7.715901	,	7
14,0	,	192145	,	-6360	,	-5050	,	9.714344	,	9
14,0	,	192177	,	-6358	,	-5049	,	10.929327	,	10
14,0	,	192193	,	-6354	,	-5052	,	11.405761	,	11
14,0	,	192209	,	-6357	,	-5049	,	11.293858	,	11
14,0	,	192241	,	-6363	,	-5049	,	10.688234	,	11
14,0	,	192257	,	-6358	,	-5049	,	9.607182	,	10
14,0	,	192289	,	-6355	,	-5054	,	8.152519	,	8
14,0	,	192305	,	-6359	,	-5045	,	6.546629	,	6
14,0	,	192321	,	-6359	,	-5045	,	4.9773273	,	4
14,0	,	192353	,	-6359	,	-5040	,	3.5380101	,	2
14,0	,	192369	,	-6357	,	-5043	,	2.2892842	,	1
14,0	,	192385	,	-6362	,	-5048	,	1.2677398	,	0
14,0	,	192417	,	-6357	,	-5048	,	0.46949255	,	0
14,0	,	192433	,	-6367	,	-5045	,	-0.14608109	,	0
14,0	,	192465	,	-6366	,	-5042	,	-0.67903125	,	0
14,0	,	192481	,	-6367	,	-5045	,	-1.2326479	,	0
14,0	,	192497	,	-6370	,	-5050	,	-1.8309402	,	0
14,0	,	192529	,	-6367	,	-5045	,	-2.439766	,	0
14,0	,	192545	,	-6367	,	-5041	,	-2.9704025	,	0
14,0	,	192561	,	-6370	,	-5042	,	-3.3134267	,	0
14,1	,	192593	,	-6370	,	-5040	,	-3.4381685	,	0
14,1	,	192609	,	-6370	,	-5041	,	-3.3838596	,	0
14,1	,	192641	,	-6375	,	-5041	,	-3.2130008	,	0
14,1	,	192657	,	-6377	,	-5045	,	-3.0347567	,	0
14,1	,	192673	,	-6374	,	-5038	,	-2.9510527	,	0
14,1	,	192705	,	-6382	,	-5043	,	-2.9866652	,	0
14,1	,	192721	,	-6382	,	-5040	,	-3.1588426	,	0
14,1	,	192737	,	-6381	,	-5046	,	-3.47761	,	0
14,1	,	192769	,	-6389	,	-5042	,	-3.8953347	,	0
14,1	,	192785	,	-6381	,	-5049	,	-4.3508043	,	0
14,1	,	192801	,	-6386	,	-5048	,	-4.753144	,	0
14,1	,	192833	,	-6381	,	-5046	,	-4.977881	,	0
14,1	,	192849	,	-6378	,	-5045	,	-4.913489	,	0
14,1	,	192881	,	-6369	,	-5040	,	-4.4286876	,	0
14,1	,	192897	,	-6357	,	-5037	,	-3.3364794	,	0
14,1	,	192913	,	-6363	,	-5045	,	-1.514652	,	1
14,1	,	192945	,	-6357	,	-5037	,	0.8889196	,	2
14,1	,	192961	,	-6352	,	-5037	,	3.528119	,	4
14,1	,	192977	,	-6352	,	-5038	,	6.0928106	,	6
14,1	,	193009	,	-6353	,	-5039	,	8.320326	,	8
14,1	,	193025	,	-6347	,	-5041	,	9.97817	,	10
14,1	,	193057	,	-6351	,	-5039	,	10.944323	,	11
14,1	,	193073	,	-6344	,	-5042	,	11.22107	,	11
14,1	,	193089	,	-6346	,	-5040	,	10.918398	,	11
14,1	,	193121	,	-6341	,	-5042	,	10.217926	,	10
14,1	,	193137	,	-6346	,	-5040	,	9.283907	,	9
14,1	,	193153	,	-6337	,	-5043	,	8.232837	,	7
14,1	,	193185	,	-6345	,	-5042	,	7.1658072	,	5
14,1	,	193201	,	-6346	,	-5050	,	6.1208806	,	3
14,1	,	193217	,	-6345	,	-5047	,	5.0566063	,	1
14,1	,	193249	,	-6352	,	-5046	,	3.930203	,	0
14,1	,	193265	,	-6352	,	-5047	,	2.6994355	,	0
14,1	,	193297	,	-6347	,	-5050	,	1.3721998	,	0
14,1	,	193313	,	-6353	,	-5057	,	0.07681215	,	0
14,1	,	193329	,	-6359	,	-5050	,	-1.083251	,	0
14,1	,	193361	,	-6351	,	-5053	,	-2.1060348	,	0
14,1	,	193377	,	-6358	,	-5054	,	-2.9625957	,	0
14,1	,	193393	,	-6367	,	-5055	,	-3.6514835	,	0
14,1	,	193425	,	-6362	,	-5060	,	-4.285056	,	0
14,1	,	193441	,	-6363	,	-5054	,	-4.9020224	,	0
14,1	,	193473	,	-6357	,	-5057	,	-5.3618574	,	0
14,1	,	193489	,	-6361	,	-5061	,	-5.4854946	,	0
14,1	,	193505	,	-6366	,	-5063	,	-5.2355614	,	0
14,1	,	193536	,	-6363	,	-5061	,	-4.7472706	,	0
14,1	,	193553	,	-6372	,	-5066	,	-4.2030506	,	0
14,1	,	193569	,	-6377	,	-5064	,	-3.795591	,	0
14,2	,	193601	,	-6370	,	-5067	,	-3.6769686	,	0
14,2	,	193617	,	-6378	,	-5064	,	-3.828458	,	0
14,2	,	193633	,	-6386	,	-5065	,	-4.182361	,	0
14,2	,	193665	,	-6383	,	-5067	,	-4.756551	,	0
14,2	,	193681	,	-6376	,	-5066	,	-5.4644823	,	0
14,2	,	193712	,	-6375	,	-5058	,	-6.0146265	,	0
14,2	,	193728	,	-6360	,	-5058	,	-6.0579867	,	0
14,2	,	193745	,	-6362	,	-5054	,	-5.3158026	,	0
14,2	,	193777	,	-6353	,	-5057	,	-3.6983883	,	0
14,2	,	193793	,	-6354	,	-5057	,	-1.3540227	,	1
14,2	,	193809	,	-6353	,	-5053	,	1.3988724	,	3
14,2	,	193841	,	-6350	,	-5050	,	4.1616526	,	5
14,2	,	193857	,	-6342	,	-5055	,	6.617065	,	7
14,2	,	193888	,	-6336	,	-5055	,	8.659623	,	9
14,2	,	193905	,	-6338	,	-5055	,	10.308007	,	11
14,2	,	193921	,	-6335	,	-5053	,	11.536655	,	12
14,2	,	193953	,	-6336	,	-5055	,	12.262344	,	13
14,2	,	193969	,	-6330	,	-5053	,	12.442358	,	13
14,2	,	193985	,	-6334	,	-5054	,	12.114582	,	12
14,2	,	194016	,	-6333	,	-5053	,	11.343418	,	10
14,2	,	194032	,	-6329	,	-5055	,	10.216029	,	8
14,2	,	194048	,	-6334	,	-5058	,	8.875064	,	6
14,2	,	194081	,	-6331	,	-5057	,	7.4482694	,	4
14,2	,	194097	,	-6335	,	-5056	,	6.0031543	,	2
14,2	,	194129	,	-6338	,	-5056	,	4.5625496	,	1
14,2	,	194145	,	-6336	,	-5057	,	3.1292763	,	0
14,2	,	194161	,	-6334	,	-5055	,	1.7624991	,	0
14,2	,	194193	,	-6337	,	-5062	,	0.5773804	,	0
14,2	,	194208	,	-6330	,	-5062	,	-0.32614958	,	0
14,2	,	194224	,	-6335	,	-5060	,	-0.8797017	,	0
14,2	,	194256	,	-6337	,	-5061	,	-1.0981802	,	0
14,2	,	194273	,	-6341	,	-5060	,	-1.1215432	,	0
14,2	,	194305	,	-6341	,	-5058	,	-1.1308048	,	0
14,2	,	194321	,	-6346	,	-5062	,	-1.2607232	,	0
14,2	,	194336	,	-6338	,	-5057	,	-1.5475264	,	0
14,2	,	194369	,	-6346	,	-5063	,	-1.9168104	,	0
14,2	,	194384	,	-6351	,	-5069	,	-2.3193362	,	0
14,2	,	194400	,	-6349	,	-5067	,	-2.800859	,	0
14,2	,	194433	,	-6346	,	-5066	,	-3.3408735	,	0
14,2	,	194449	,	-6353	,	-5067	,	-3.8180153	,	0
14,2	,	194480	,	-6355	,	-5070	,	-4.1875477	,	0
14,2	,	194496	,	-6358	,	-5070	,	-4.5147696	,	0
14,2	,	194512	,	-6360	,	-5069	,	-4.8590508	,	0
14,2	,	194544	,	-6363	,	-5069	,	-5.2368364	,	0
14,2	,	194560	,	-6356	,	-5075	,	-5.606536	,	0
14,2	,	194576	,	-6352	,	-5070	,	-5.8072796	,	0
14,3	,	194609	,	-6346	,	-5061	,	-5.595751	,	0
14,3	,	194625	,	-6335	,	-5064	,	-4.744334	,	0
14,3	,	194656	,	-6338	,	-5064	,	-3.1321983	,	0
14,3	,	194672	,	-6336	,	-5061	,	-0.8819003	,	1
14,3	,	194688	,	-6334	,	-5058	,	1.6535578	,	3
14,3	,	194720	,	-6334	,	-5057	,	4.084532	,	5
14,3	,	194736	,	-6337	,	-5063	,	6.0833015	,	7
14,3	,	194752	,	-6328	,	-5058	,	7.4366255	,	8
14,3	,	194784	,	-6326	,	-5055	,	8.152326	,	9
14,3	,	194800	,	-6331	,	-5062	,	8.378569	,	9
14,3	,	194816	,	-6328	,	-5062	,	8.2027445	,	9
14,3	,	194848	,	-6328	,	-5062	,	7.663811	,	9
14,3	,	194864	,	-6330	,	-5064	,	6.8370247	,	8
14,3	,	194896	,	-6335	,	-5061	,	5.7836156	,	6
14,3	,	194912	,	-6338	,	-5063	,	4.5034256	,	4
14,3	,	194928	,	-6337	,	-5063	,	3.0048945	,	2
14,3	,	194960	,	-6335	,	-5062	,	1.4072635	,	1
14,3	,	194976	,	-6336	,	-5062	,	-0.07885909	,	0
14,3	,	194992	,	-6342	,	-5061	,	-1.2994663	,	0
14,3	,	195024	,	-6340	,	-5066	,	-2.2360992	,	0
14,3	,	195040	,	-6347	,	-5069	,	-2.9483938	,	0
14,3	,	195072	,	-6346	,	-5066	,	-3.525336	,	0
14,3	,	195088	,	-6355	,	-5065	,	-4.068365	,	0
14,3	,	195104	,	-6349	,	-5068	,	-4.6389613	,	0
14,3	,	195136	,	-6354	,	-5068	,	-5.201165	,	0
14,3	,	195152	,	-6354	,	-5071	,	-5.665984	,	0
14,3	,	195168	,	-6362	,	-5066	,	-6.0058293	,	0
14,3	,	195200	,	-6358	,	-5071	,	-6.2649865	,	0
14,3	,	195216	,	-6361	,	-5075	,	-6.4592876	,	0
14,3	,	195232	,	-6361	,	-5074	,	-6.54345	,	0
14,3	,	195264	,	-6361	,	-5075	,	-6.469717	,	0
14,3	,	195280	,	-6368	,	-5072	,	-6.2376785	,	0
14,3	,	195312	,	-6370	,	-5075	,	-5.936886	,	0
14,3	,	195328	,	-6372	,	-5074	,	-5.704497	,	0
14,3	,	195344	,	-6378	,	-5078	,	-5.6349463	,	0
14,3	,	195376	,	-6377	,	-5076	,	-5.769458	,	0
14,3	,	195392	,	-6381	,	-5080	,	-6.085453	,	0
14,3	,	195408	,	-6376	,	-5080	,	-6.4703474	,	0
14,3	,	195440	,	-6369	,	-5075	,	-6.7057757	,	0
14,3	,	195456	,	-6376	,	-5071	,	-6.550464	,	0
14,3	,	195488	,	-6361	,	-5074	,	-5.876437	,	0
14,3	,	195504	,	-6357	,	-5071	,	-4.609151	,	0
14,3	,	195520	,	-6350	,	-5066	,	-2.6782582	,	1
14,3	,	195552	,	-6352	,	-5068	,	-0.16247201	,	2
14,3	,	195568	,	-6347	,	-5067	,	2.652749	,	4
14,3	,	195584	,	-6348	,	-5065	,	5.396488	,	6
14,4	,	195616	,	-6344	,	-5067	,	7.746263	,	8
14,4	,	195632	,	-6343	,	-5065	,	9.494656	,	10
14,4	,	195648	,	-6342	,	-5064	,	10.562462	,	11
14,4	,	195680	,	-6341	,	-5066	,	10.966057	,	12
14,4	,	195696	,	-6348	,	-5065	,	10.745662	,	12
14,4	,	195728	,	-6349	,	-5070	,	9.907431	,	11
14,4	,	195744	,	-6346	,	-5067	,	8.492634	,	10
14,4	,	195760	,	-6345	,	-5063	,	6.6875567	,	8
14,4	,	195792	,	-6348	,	-5064	,	4.7659583	,	6
14,4	,	195808	,	-6353	,	-5065	,	2.9261591	,	4
14,4	,	195824	,	-6352	,	-5070	,	1.2353044	,	2
14,4	,	195856	,	-6353	,	-5069	,	-0.27594948	,	1
14,4	,	195872	,	-6355	,	-5074	,	-1.5540819	,	0
14,4	,	195904	,	-6356	,	-5073	,	-2.5673685	,	0
14,4	,	195920	,	-6352	,	-5066	,	-3.3004732	,	0
14,4	,	195936	,	-6359	,	-5070	,	-3.735745	,	0
14,4	,	195968	,	-6358	,	-5069	,	-3.916246	,	0
14,4	,	195984	,	-6356	,	-5076	,	-3.9199946	,	0
14,4	,	196000	,	-6366	,	-5074	,	-3.8110347	,	0
14,4	,	196032	,	-6362	,	-5075	,	-3.695908	,	0
14,4	,	196048	,	-6363	,	-5074	,	-3.6584945	,	0
14,4	,	196064	,	-6365	,	-5076	,	-3.678193	,	0
14,4	,	196096	,	-6369	,	-5077	,	-3.7246165	,	0
14,4	,	196112	,	-6370	,	-5075	,	-3.8150544	,	0
14,4	,	196144	,	-6377	,	-5081	,	-3.9941344	,	0
14,4	,	196160	,	-6380	,	-5074	,	-4.3362784	,	0
14,4	,	196176	,	-6380	,	-5073	,	-4.886252	,	0
14,4	,	196208	,	-6381	,	-5080	,	-5.5734687	,	0
14,4	,	196224	,	-6382	,	-5075	,	-6.247228	,	0
14,4	,	196240	,	-6389	,	-5080	,	-6.79478	,	0
14,4	,	196272	,	-6388	,	-5077	,	-7.198458	,	0
14,4	,	196288	,	-6393	,	-5081	,	-7.484476	,	0
14,4	,	196320	,	-6397	,	-5080	,	-7.6899414	,	0
14,4	,	196336	,	-6393	,	-5077	,	-7.8433404	,	0
14,4	,	196352	,	-6383	,	-5077	,	-7.842167	,	0
14,4	,	196384	,	-6381	,	-5073	,	-7.4280143	,	0
14,4	,	196400	,	-6370	,	-5070	,	-6.3502283	,	0
14,4	,	196416	,	-6367	,	-5066	,	-4.4848704	,	1
14,4	,	196448	,	-6363	,	-5071	,	-1.8914058	,	2
14,4	,	196464	,	-6365	,	-5070	,	1.144062	,	4
14,4	,	196495	,	-6365	,	-5063	,	4.173254	,	7
14,4	,	196512	,	-6356	,	-5063	,	6.7866626	,	10
14,4	,	196528	,	-6357	,	-5064	,	8.786831	,	12
14,4	,	196559	,	-6360	,	-5064	,	10.110788	,	14
14,4	,	196576	,	-6361	,	-5061	,	10.681589	,	15
14,5	,	196592	,	-6359	,	-5061	,	10.462728	,	15
14,5	,	196624	,	-6364	,	-5062	,	9.539722	,	14
14,5	,	196640	,	-6362	,	-5064	,	8.076483	,	13
14,5	,	196656	,	-6363	,	-5062	,	6.278922	,	11
14,5	,	196687	,	-6362	,	-5066	,	4.381419	,	8
14,5	,	196703	,	-6362	,	-5059	,	2.5982494	,	5
14,5	,	196736	,	-6364	,	-5064	,	1.081615	,	3
14,5	,	196752	,	-6364	,	-5069	,	-0.09710479	,	1
14,5	,	196767	,	-6367	,	-5064	,	-0.94448364	,	0
14,5	,	196799	,	-6369	,	-5067	,	-1.5293074	,	0
14,5	,	196816	,	-6366	,	-5067	,	-1.9325774	,	0
14,5	,	196832	,	-6371	,	-5067	,	-2.2003186	,	0
14,5	,	196864	,	-6372	,	-5066	,	-2.3826325	,	0
14,5	,	196880	,	-6373	,	-5070	,	-2.5494478	,	0
14,5	,	196896	,	-6375	,	-5068	,	-2.739666	,	0
14,5	,	196928	,	-6379	,	-5069	,	-2.969659	,	0
14,5	,	196943	,	-6379	,	-5064	,	-3.2644868	,	0
14,5	,	196975	,	-6381	,	-5071	,	-3.6272979	,	0
14,5	,	196991	,	-6385	,	-5073	,	-4.028929	,	0
14,5	,	197008	,	-6387	,	-5071	,	-4.452467	,	0
14,5	,	197040	,	-6383	,	-5071	,	-4.869748	,	0
14,5	,	197056	,	-6388	,	-5073	,	-5.195854	,	0
14,5	,	197072	,	-6393	,	-5070	,	-5.3856554	,	0
14,5	,	197104	,	-6392	,	-5070	,	-5.501767	,	0
14,5	,	197119	,	-6399	,	-5073	,	-5.6255794	,	0
14,5	,	197151	,	-6399	,	-5071	,	-5.808214	,	0
14,5	,	197167	,	-6402	,	-5081	,	-6.070272	,	0
14,5	,	197184	,	-6403	,	-5075	,	-6.382929	,	0
14,5	,	197215	,	-6401	,	-5070	,	-6.663789	,	0
14,5	,	197231	,	-6385	,	-5069	,	-6.711522	,	0
14,5	,	197247	,	-6387	,	-5063	,	-6.2100415	,	0
14,5	,	197279	,	-6379	,	-5067	,	-4.952649	,	0
14,5	,	197295	,	-6380	,	-5069	,	-2.9880443	,	1
14,5	,	197327	,	-6378	,	-5062	,	-0.56522846	,	2
14,5	,	197343	,	-6375	,	-5064	,	1.9723547	,	4
14,5	,	197359	,	-6370	,	-5060	,	4.332361	,	6
14,5	,	197391	,	-6364	,	-5065	,	6.372705	,	8
14,5	,	197407	,	-6362	,	-5064	,	8.073618	,	10
14,5	,	197423	,	-6367	,	-5056	,	9.407872	,	11
14,5	,	197455	,	-6370	,	-5058	,	10.235086	,	12
14,5	,	197471	,	-6370	,	-5053	,	10.382554	,	12
14,5	,	197487	,	-6371	,	-5057	,	9.800184	,	11
14,5	,	197519	,	-6369	,	-5049	,	8.599066	,	10
14,5	,	197535	,	-6368	,	-5056	,	7.0026646	,	8
14,5	,	197567	,	-6369	,	-5052	,	5.266522	,	6
14,5	,	197583	,	-6368	,	-5047	,	3.601563	,	4
14,6	,	197599	,	-6365	,	-5056	,	2.1666045	,	2
14,6	,	197631	,	-6368	,	-5051	,	1.072804	,	1
14,6	,	197647	,	-6374	,	-5052	,	0.31400383	,	0
14,6	,	197663	,	-6373	,	-5050	,	-0.24891198	,	0
14,6	,	197695	,	-6375	,	-5055	,	-0.757099	,	0
14,6	,	197711	,	-6377	,	-5047	,	-1.2722113	,	0
14,6	,	197743	,	-6375	,	-5048	,	-1.7972994	,	0
14,6	,	197759	,	-6386	,	-5049	,	-2.3267407	,	0
14,6	,	197775	,	-6381	,	-5051	,	-2.898699	,	0
14,6	,	197807	,	-6384	,	-5048	,	-3.52065	,	0
14,6	,	197823	,	-6383	,	-5045	,	-4.1017513	,	0
14,6	,	197839	,	-6380	,	-5049	,	-4.5128417	,	0
14,6	,	197871	,	-6384	,	-5048	,	-4.6514487	,	0
14,6	,	197887	,	-6384	,	-5047	,	-4.50852	,	0
14,6	,	197903	,	-6387	,	-5048	,	-4.1740804	,	0
14,6	,	197935	,	-6389	,	-5043	,	-3.7758062	,	0
14,6	,	197952	,	-6393	,	-5050	,	-3.4478264	,	0
14,6	,	197983	,	-6388	,	-5045	,	-3.2716498	,	0
14,6	,	197999	,	-6393	,	-5048	,	-3.2220864	,	0
14,6	,	198015	,	-6396	,	-5045	,	-3.2522075	,	0
14,6	,	198047	,	-6401	,	-5044	,	-3.3911328	,	0
14,6	,	198063	,	-6401	,	-5046	,	-3.6944137	,	0
14,6	,	198079	,	-6392	,	-5041	,	-4.1037226	,	0
14,6	,	198111	,	-6386	,	-5040	,	-4.3663845	,	0
14,6	,	198127	,	-6376	,	-5041	,	-4.127517	,	0
14,6	,	198159	,	-6373	,	-5037	,	-3.1103816	,	0
14,6	,	198175	,	-6370	,	-5035	,	-1.2640758	,	1
14,6	,	198191	,	-6369	,	-5034	,	1.1967611	,	2
14,6	,	198223	,	-6369	,	-5027	,	3.8861628	,	4
14,6	,	198239	,	-6367	,	-5035	,	6.3845963	,	6
14,6	,	198255	,	-6362	,	-5033	,	8.377866	,	8
14,6	,	198287	,	-6360	,	-5033	,	9.74352	,	9
14,6	,	198303	,	-6361	,	-5041	,	10.494816	,	10
14,6	,	198319	,	-6357	,	-5038	,	10.68692	,	10
14,6	,	198351	,	-6358	,	-5039	,	10.405636	,	10
14,6	,	198367	,	-6360	,	-5034	,	9.744036	,	9
14,6	,	198399	,	-6362	,	-5040	,	8.75358	,	8
14,6	,	198415	,	-6366	,	-5034	,	7.454966	,	6
14,6	,	198431	,	-6359	,	-5040	,	5.9104624	,	4
14,6	,	198463	,	-6365	,	-5043	,	4.27103	,	2
14,6	,	198479	,	-6362	,	-5042	,	2.7010682	,	1
14,6	,	198495	,	-6363	,	-5039	,	1.3154056	,	0
14,6	,	198527	,	-6362	,	-5045	,	0.20136166	,	0
14,6	,	198543	,	-6369	,	-5047	,	-0.62118423	,	0
14,6	,	198575	,	-6364	,	-5045	,	-1.2211938	,	0
14,7	,	198591	,	-6367	,	-5049	,	-1.6578624	,	0
14,7	,	198607	,	-6370	,	-5051	,	-1.9529518	,	0
14,7	,	198639	,	-6372	,	-5059	,	-2.1641521	,	0
14,7	,	198655	,	-6370	,	-5051	,	-2.3588705	,	0
14,7	,	198671	,	-6372	,	-5057	,	-2.540545	,	0
14,7	,	198703	,	-6378	,	-5051	,	-2.7064319	,	0
14,7	,	198719	,	-6378	,	-5060	,	-2.9182882	,	0
14,7	,	198735	,	-6378	,	-5053	,	-3.2221007	,	0
14,7	,	198767	,	-6385	,	-5056	,	-3.6020894	,	0
14,7	,	198783	,	-6385	,	-5060	,	-4.0510974	,	0
14,7	,	198815	,	-6384	,	-5061	,	-4.545674	,	0
14,7	,	198831	,	-6380	,	-5057	,	-4.966831	,	0
14,7	,	198847	,	-6392	,	-5063	,	-5.1991735	,	0
14,7	,	198879	,	-6395	,	-5061	,	-5.309057	,	0
14,7	,	198895	,	-6391	,	-5062	,	-5.4499483	,	0
14,7	,	198911	,	-6382	,	-5059	,	-5.5827727	,	0
14,7	,	198943	,	-6378	,	-5057	,	-5.442438	,	0
14,7	,	198959	,	-6375	,	-5056	,	-4.7636585	,	0
14,7	,	198991	,	-6368	,	-5053	,	-3.4397213	,	0
14,7	,	199007	,	-6362	,	-5050	,	-1.4965203	,	1
14,7	,	199022	,	-6355	,	-5054	,	0.9685848	,	2
14,7	,	199055	,	-6366	,	-5048	,	3.721879	,	4
14,7	,	199071	,	-6359	,	-5056	,	6.3355565	,	6
14,7	,	199086	,	-6352	,	-5049	,	8.425715	,	8
14,7	,	199119	,	-6354	,	-5051	,	9.879187	,	10
14,7	,	199135	,	-6355	,	-5050	,	10.702572	,	11
14,7	,	199167	,	-6352	,	-5057	,	10.886116	,	11
14,7	,	199183	,	-6346	,	-5053	,	10.509674	,	11
14,7	,	199199	,	-6345	,	-5048	,	9.787655	,	10
14,7	,	199230	,	-6348	,	-5046	,	8.9243765	,	9
14,7	,	199247	,	-6347	,	-5053	,	7.992882	,	7
14,7	,	199263	,	-6344	,	-5054	,	7.0035677	,	5
14,7	,	199295	,	-6337	,	-5044	,	6.0427155	,	3
14,7	,	199311	,	-6345	,	-5053	,	5.248514	,	1
14,7	,	199326	,	-6340	,	-5055	,	4.657427	,	0
14,7	,	199358	,	-6346	,	-5054	,	4.1865883	,	0
14,7	,	199375	,	-6341	,	-5051	,	3.7408173	,	0
14,7	,	199407	,	-6340	,	-5056	,	3.2928622	,	0
14,7	,	199423	,	-6338	,	-5055	,	2.8948765	,	0
14,7	,	199439	,	-6340	,	-5053	,	2.5965028	,	0
14,7	,	199471	,	-6346	,	-5055	,	2.347477	,	0
14,7	,	199487	,	-6341	,	-5059	,	2.029731	,	0
14,7	,	199503	,	-6347	,	-5053	,	1.5787314	,	0
14,7	,	199534	,	-6350	,	-5056	,	0.9766071	,	0
14,7	,	199550	,	-6350	,	-5059	,	0.2034027	,	0
14,7	,	199583	,	-6350	,	-5055	,	-0.69971645	,	0
14,8	,	199599	,	-6347	,	-5062	,	-1.6032432	,	0
14,8	,	199614	,	-6346	,	-5062	,	-2.340522	,	0
14,8	,	199646	,	-6353	,	-5065	,	-2.8022492	,	0
14,8	,	199662	,	-6360	,	-5060	,	-3.0552468	,	0
14,8	,	199679	,	-6356	,	-5062	,	-3.2872066	,	0
14,8	,	199711	,	-6356	,	-5058	,	-3.576401	,	0
14,8	,	199727	,	-6355	,	-5064	,	-3.828682	,	0
14,8	,	199743	,	-6355	,	-5063	,	-3.9157255	,	0
14,8	,	199775	,	-6360	,	-5061	,	-3.7945051	,	0
14,8	,	199790	,	-6346	,	-5058	,	-3.4769075	,	0
14,8	,	199822	,	-6342	,	-5060	,	-2.8681548	,	0
14,8	,	199838	,	-6330	,	-5050	,	-1.7562616	,	0
14,8	,	199854	,	-6326	,	-5052	,	0.016227245	,	1
14,8	,	199887	,	-6330	,	-5056	,	2.3840537	,	2
14,8	,	199903	,	-6326	,	-5049	,	5.0053	,	4
14,8	,	199920	,	-6322	,	-5057	,	7.455373	,	6
14,8	,	199950	,	-6328	,	-5054	,	9.415376	,	8
14,8	,	199966	,	-6328	,	-5054	,	10.6402	,	9
14,8	,	199998	,	-6331	,	-5058	,	10.962697	,	10
14,8	,	200014	,	-6324	,	-5056	,	10.402438	,	10
14,8	,	200030	,	-6329	,	-5056	,	9.177349	,	10
14,8	,	200063	,	-6327	,	-5058	,	7.565342	,	9
14,8	,	200079	,	-6323	,	-5060	,	5.8183403	,	8
14,8	,	200095	,	-6326	,	-5050	,	4.168533	,	6
14,8	,	200126	,	-6326	,	-5059	,	2.7651331	,	4
14,8	,	200143	,	-6332	,	-5060	,	1.6201437	,	2
14,8	,	200158	,	-6340	,	-5062	,	0.61182916	,	1
14,8	,	200190	,	-6332	,	-5061	,	-0.4171319	,	0
14,8	,	200206	,	-6337	,	-5064	,	-1.474092	,	0
14,8	,	200238	,	-6342	,	-5062	,	-2.4651842	,	0
14,8	,	200254	,	-6336	,	-5058	,	-3.3390586	,	0
14,8	,	200270	,	-6346	,	-5068	,	-4.060083	,	0
14,8	,	200302	,	-6355	,	-5061	,	-4.683515	,	0
14,8	,	200319	,	-6340	,	-5069	,	-5.328328	,	0
14,8	,	200334	,	-6352	,	-5056	,	-5.941581	,	0
14,8	,	200366	,	-6354	,	-5064	,	-6.4047656	,	0
14,8	,	200382	,	-6355	,	-5071	,	-6.728327	,	0
14,8	,	200414	,	-6358	,	-5065	,	-6.949519	,	0
14,8	,	200430	,	-6364	,	-5066	,	-7.095931	,	0
14,8	,	200446	,	-6363	,	-5065	,	-7.231094	,	0
14,8	,	200478	,	-6367	,	-5067	,	-7.391249	,	0
14,8	,	200494	,	-6368	,	-5072	,	-7.5542793	,	0
14,8	,	200510	,	-6370	,	-5070	,	-7.683914	,	0
14,8	,	200542	,	-6376	,	-5070	,	-7.7691593	,	0
14,8	,	200558	,	-6380	,	-5076	,	-7.8525267	,	0
14,8	,	200574	,	-6372	,	-5066	,	-7.955497	,	0
14,9	,	200606	,	-6381	,	-5071	,	-7.995283	,	0
14,9	,	200622	,	-6384	,	-5077	,	-7.9191914	,	0
14,9	,	200654	,	-6381	,	-5066	,	-7.7734146	,	0
14,9	,	200670	,	-6367	,	-5072	,	-7.4878836	,	0
14,9	,	200686	,	-6370	,	-5061	,	-6.8086185	,	0
14,9	,	200718	,	-6364	,	-5066	,	-5.5510435	,	0
14,9	,	200734	,	-6355	,	-5064	,	-3.7133212	,	1
14,9	,	200750	,	-6357	,	-5068	,	-1.3883667	,	2
14,9	,	200782	,	-6351	,	-5062	,	1.2282598	,	4
14,9	,	200798	,	-6353	,	-5067	,	3.8500862	,	6
14,9	,	200830	,	-6351	,	-5063	,	6.180191	,	8
14,9	,	200846	,	-6349	,	-5063	,	7.9769497	,	10
14,9	,	200862	,	-6347	,	-5065	,	9.126244	,	11
14,9	,	200894	,	-6345	,	-5060	,	9.647629	,	12
14,9	,	200910	,	-6351	,	-5064	,	9.609999	,	12
14,9	,	200926	,	-6347	,	-5061	,	9.066882	,	11
14,9	,	200958	,	-6350	,	-5063	,	8.097773	,	10
14,9	,	200974	,	-6347	,	-5064	,	6.843788	,	8
14,9	,	200990	,	-6348	,	-5059	,	5.4653006	,	6
14,9	,	201022	,	-6352	,	-5063	,	4.0834293	,	4
14,9	,	201038	,	-6351	,	-5068	,	2.7557158	,	2
14,9	,	201070	,	-6355	,	-5066	,	1.5067008	,	1
14,9	,	201086	,	-6354	,	-5068	,	0.3525579	,	0
14,9	,	201102	,	-6356	,	-5065	,	-0.681877	,	0
14,9	,	201134	,	-6355	,	-5071	,	-1.548236	,	0
14,9	,	201150	,	-6363	,	-5071	,	-2.230934	,	0
14,9	,	201166	,	-6359	,	-5065	,	-2.7868252	,	0
14,9	,	201198	,	-6362	,	-5068	,	-3.258562	,	0
14,9	,	201214	,	-6371	,	-5069	,	-3.6686573	,	0
14,9	,	201246	,	-6366	,	-5073	,	-4.0893774	,	0
14,9	,	201262	,	-6366	,	-5072	,	-4.527163	,	0
14,9	,	201278	,	-6370	,	-5075	,	-4.875119	,	0
14,9	,	201310	,	-6374	,	-5071	,	-5.085952	,	0
14,9	,	201326	,	-6373	,	-5070	,	-5.216011	,	0
14,9	,	201342	,	-6381	,	-5073	,	-5.334998	,	0
14,9	,	201374	,	-6384	,	-5080	,	-5.525529	,	0
14,9	,	201390	,	-6379	,	-5076	,	-5.8343587	,	0
14,9	,	201406	,	-6383	,	-5079	,	-6.16963	,	0
14,9	,	201438	,	-6385	,	-5077	,	-6.3993216	,	0
14,9	,	201454	,	-6388	,	-5076	,	-6.4955044	,	0
14,9	,	201486	,	-6382	,	-5077	,	-6.4749036	,	0
14,9	,	201502	,	-6386	,	-5075	,	-6.300578	,	0
14,9	,	201518	,	-6381	,	-5069	,	-5.913155	,	0
14,9	,	201550	,	-6375	,	-5064	,	-5.2517514	,	0
14,9	,	201566	,	-6364	,	-5063	,	-4.1905603	,	0
14,9	,	201582	,	-6363	,	-5066	,	-2.5780334	,	1
14,10	,	201614	,	-6369	,	-5068	,	-0.45632768	,	2
14,10	,	201630	,	-6367	,	-5065	,	1.8302358	,	4
14,10	,	201661	,	-6363	,	-5064	,	3.8703146	,	6
14,10	,	201677	,	-6364	,	-5067	,	5.43297	,	8
14,10	,	201694	,	-6359	,	-5060	,	6.4607043	,	9
14,10	,	201726	,	-6360	,	-5065	,	6.998231	,	10
14,10	,	201742	,	-6359	,	-5062	,	7.1342974	,	10
14,10	,	201758	,	-6366	,	-5062	,	6.915536	,	10
14,10	,	201790	,	-6360	,	-5065	,	6.340839	,	9
14,10	,	201806	,	-6362	,	-5063	,	5.466965	,	8
14,10	,	201837	,	-6363	,	-5066	,	4.4264135	,	6
14,10	,	201853	,	-6366	,	-5068	,	3.3271096	,	4
14,10	,	201870	,	-6371	,	-5064	,	2.1954563	,	2
14,10	,	201902	,	-6374	,	-5067	,	0.9877503	,	1
14,10	,	201918	,	-6372	,	-5067	,	-0.31877708	,	0
14,10	,	201934	,	-6374	,	-5063	,	-1.6341326	,	0
14,10	,	201966	,	-6375	,	-5066	,	-2.8121982	,	0
14,10	,	201982	,	-6374	,	-5067	,	-3.7404194	,	0
14,10	,	201997	,	-6382	,	-5068	,	-4.3761363	,	0
14,10	,	202030	,	-6375	,	-5073	,	-4.7562237	,	0
14,10	,	202046	,	-6380	,	-5067	,	-4.9200716	,	0
14,10	,	202078	,	-6382	,	-5070	,	-4.890567	,	0
14,10	,	202094	,	-6380	,	-5063	,	-4.7234898	,	0
14,10	,	202109	,	-6389	,	-5074	,	-4.4956017	,	0
14,10	,	202141	,	-6390	,	-5069	,	-4.3291683	,	0
14,10	,	202157	,	-6392	,	-5073	,	-4.352797	,	0
14,10	,	202173	,	-6384	,	-5076	,	-4.548668	,	0
14,10	,	202206	,	-6390	,	-5077	,	-4.7461534	,	0
14,10	,	202221	,	-6393	,	-5073	,	-4.814654	,	0
14,10	,	202253	,	-6397	,	-5070	,	-4.7849503	,	0
14,10	,	202269	,	-6395	,	-5077	,	-4.752281	,	0
14,10	,	202285	,	-6400	,	-5076	,	-4.758424	,	0
14,10	,	202317	,	-6407	,	-5077	,	-4.839815	,	0
14,10	,	202333	,	-6397	,	-5072	,	-5.0391645	,	0
14,10	,	202350	,	-6397	,	-5071	,	-5.257242	,	0
14,10	,	202382	,	-6393	,	-5069	,	-5.2691174	,	0
14,10	,	202398	,	-6393	,	-5067	,	-4.905661	,	0
14,10	,	202413	,	-6381	,	-5069	,	-4.0782156	,	0
14,10	,	202445	,	-6387	,	-5061	,	-2.7461169	,	0
14,10	,	202461	,	-6381	,	-5064	,	-1.0031803	,	1
14,10	,	202493	,	-6378	,	-5064	,	0.9381957	,	2
14,10	,	202509	,	-6378	,	-5069	,	2.8781133	,	3
14,10	,	202525	,	-6376	,	-5058	,	4.640106	,	4
14,10	,	202557	,	-6373	,	-5064	,	6.0733414	,	5
14,10	,	202574	,	-6372	,	-5058	,	7.1070623	,	6
14,11	,	202589	,	-6370	,	-5060	,	7.740845	,	7
14,11	,	202621	,	-6370	,	-5058	,	8.003376	,	7
14,11	,	202637	,	-6376	,	-5054	,	7.902814	,	7
14,11	,	202669	,	-6373	,	-5059	,	7.4074297	,	6
14,11	,	202685	,	-6375	,	-5057	,	6.5207357	,	5
14,11	,	202701	,	-6376	,	-5058	,	5.3340855	,	4
14,11	,	202734	,	-6374	,	-5056	,	3.9895046	,	3
14,11	,	202749	,	-6379	,	-5056	,	2.623357	,	2
14,11	,	202765	,	-6381	,	-5057	,	1.3076017	,	1
14,11	,	202797	,	-6380	,	-5055	,	0.064555526	,	0
14,11	,	202813	,	-6382	,	-5058	,	-1.0565971	,	0
14,11	,	202829	,	-6382	,	-5054	,	-1.9835845	,	0
14,11	,	202861	,	-6375	,	-5046	,	-2.6343248	,	0
14,11	,	202877	,	-6379	,	-5050	,	-2.9098306	,	0
14,11	,	202909	,	-6385	,	-5052	,	-2.8162942	,	0
14,11	,	202925	,	-6391	,	-5052	,	-2.569571	,	0
14,11	,	202941	,	-6384	,	-5048	,	-2.4267263	,	0
14,11	,	202973	,	-6385	,	-5050	,	-2.4426527	,	0
14,11	,	202989	,	-6389	,	-5058	,	-2.5187407	,	0
14,11	,	203005	,	-6391	,	-5047	,	-2.609079	,	0
14,11	,	203037	,	-6390	,	-5051	,	-2.733766	,	0
14,11	,	203053	,	-6392	,	-5048	,	-2.8818865	,	0
14,11	,	203085	,	-6393	,	-5048	,	-3.0146775	,	0
14,11	,	203101	,	-6400	,	-5053	,	-3.140403	,	0
14,11	,	203117	,	-6405	,	-5043	,	-3.3596287	,	0
14,11	,	203149	,	-6402	,	-5046	,	-3.77987	,	0
14,11	,	203165	,	-6401	,	-5054	,	-4.356484	,	0
14,11	,	203181	,	-6403	,	-5051	,	-4.9041743	,	0
