Data recorded on Tue Jul 25 10-29-36 CAT 2017
Time: 10:30:0
Time		Millis		IR PPG		Red PPG		Filtered		SSF
30,9	,	70530	,	-23087	,	-20984	,	-16.658173	,	3
30,9	,	70546	,	-23081	,	-20983	,	-10.22831	,	8
30,9	,	70562	,	-23077	,	-20949	,	-3.0003395	,	14
30,9	,	70594	,	-23046	,	-20954	,	4.421116	,	21
30,9	,	70610	,	-23045	,	-20957	,	11.664331	,	28
30,9	,	70626	,	-23050	,	-20953	,	18.392504	,	35
30,9	,	70658	,	-23038	,	-20951	,	24.033447	,	41
30,9	,	70675	,	-23044	,	-20956	,	28.047272	,	46
30,9	,	70706	,	-23036	,	-20952	,	30.168926	,	50
30,9	,	70722	,	-23037	,	-20944	,	30.410736	,	49
30,9	,	70738	,	-23049	,	-20939	,	28.964127	,	44
30,9	,	70770	,	-23035	,	-20940	,	26.092674	,	38
30,9	,	70786	,	-23030	,	-20945	,	22.271278	,	31
30,9	,	70802	,	-23037	,	-20928	,	18.14753	,	24
30,9	,	70834	,	-23046	,	-20943	,	14.1359825	,	17
30,9	,	70850	,	-23044	,	-20939	,	10.320091	,	11
30,9	,	70866	,	-23045	,	-20943	,	6.7386866	,	6
30,9	,	70898	,	-23059	,	-20939	,	3.4601908	,	2
30,9	,	70914	,	-23063	,	-20944	,	0.42474508	,	0
30,9	,	70946	,	-23064	,	-20945	,	-2.476533	,	0
30,9	,	70962	,	-23067	,	-20949	,	-5.199461	,	0
30,9	,	70978	,	-23075	,	-20954	,	-7.6092157	,	0
30,9	,	71010	,	-23077	,	-20950	,	-9.635923	,	0
30,9	,	71026	,	-23084	,	-20972	,	-11.281872	,	0
30,9	,	71042	,	-23085	,	-20944	,	-12.568498	,	0
30,9	,	71074	,	-23103	,	-20966	,	-13.564999	,	0
30,9	,	71090	,	-23112	,	-20966	,	-14.480392	,	0
30,9	,	71122	,	-23107	,	-20966	,	-15.525295	,	0
30,9	,	71138	,	-23121	,	-20974	,	-16.678894	,	0
30,9	,	71154	,	-23133	,	-20972	,	-17.849117	,	0
30,9	,	71186	,	-23130	,	-20980	,	-19.030382	,	0
30,9	,	71202	,	-23144	,	-20992	,	-20.164295	,	0
30,9	,	71218	,	-23158	,	-20990	,	-21.208355	,	0
30,9	,	71250	,	-23153	,	-20988	,	-22.208876	,	0
30,9	,	71266	,	-23153	,	-21018	,	-23.04787	,	0
30,9	,	71298	,	-23169	,	-20978	,	-23.467716	,	0
30,9	,	71314	,	-23187	,	-20998	,	-23.488243	,	0
30,9	,	71330	,	-23182	,	-21008	,	-23.418016	,	0
30,9	,	71362	,	-23188	,	-21008	,	-23.406658	,	0
30,9	,	71378	,	-23174	,	-21003	,	-23.246859	,	0
30,9	,	71394	,	-23171	,	-20993	,	-22.511457	,	0
30,9	,	71426	,	-23156	,	-20997	,	-20.750282	,	0
30,9	,	71442	,	-23141	,	-20992	,	-17.62199	,	1
30,9	,	71458	,	-23118	,	-20983	,	-12.907156	,	4
30,9	,	71490	,	-23107	,	-20985	,	-6.5624847	,	8
30,9	,	71506	,	-23101	,	-20982	,	1.1026039	,	14
30,10	,	71538	,	-23094	,	-20957	,	9.361896	,	21
30,10	,	71554	,	-23061	,	-20959	,	17.421776	,	29
30,10	,	71570	,	-23042	,	-20957	,	24.911854	,	37
30,10	,	71602	,	-23041	,	-20949	,	31.76683	,	44
30,10	,	71618	,	-23035	,	-20947	,	37.705776	,	50
30,10	,	71634	,	-23032	,	-20955	,	42.188427	,	54
30,10	,	71666	,	-23030	,	-20953	,	44.74806	,	55
30,10	,	71682	,	-23033	,	-20964	,	45.147858	,	53
30,10	,	71714	,	-23036	,	-20954	,	43.35974	,	47
30,10	,	71730	,	-23027	,	-20949	,	39.60877	,	40
30,10	,	71745	,	-23031	,	-20962	,	34.42448	,	32
30,10	,	71777	,	-23034	,	-20948	,	28.447845	,	24
30,10	,	71793	,	-23027	,	-20956	,	22.244518	,	17
30,10	,	71810	,	-23051	,	-20964	,	16.24048	,	11
30,10	,	71842	,	-23048	,	-20956	,	10.589258	,	6
30,10	,	71858	,	-23040	,	-20956	,	5.352417	,	2
30,10	,	71874	,	-23064	,	-20959	,	0.7101183	,	0
30,10	,	71906	,	-23069	,	-20968	,	-3.321898	,	0
30,10	,	71922	,	-23070	,	-20960	,	-6.916517	,	0
30,10	,	71953	,	-23070	,	-20972	,	-10.073725	,	0
30,10	,	71969	,	-23079	,	-20962	,	-12.623762	,	0
30,10	,	71985	,	-23086	,	-20975	,	-14.4947405	,	0
30,10	,	72018	,	-23092	,	-20962	,	-15.789963	,	0
30,10	,	72034	,	-23112	,	-20973	,	-16.746437	,	0
30,10	,	72050	,	-23114	,	-20975	,	-17.685555	,	0
30,10	,	72082	,	-23126	,	-20982	,	-18.835062	,	0
30,10	,	72098	,	-23131	,	-20982	,	-20.210823	,	0
30,10	,	72130	,	-23142	,	-20985	,	-21.708015	,	0
30,10	,	72146	,	-23151	,	-20990	,	-23.21797	,	0
30,10	,	72161	,	-23158	,	-20990	,	-24.658524	,	0
30,10	,	72194	,	-23154	,	-20992	,	-25.881966	,	0
30,10	,	72210	,	-23159	,	-20993	,	-26.61155	,	0
30,10	,	72226	,	-23168	,	-21007	,	-26.616947	,	0
30,10	,	72258	,	-23178	,	-20993	,	-25.944191	,	0
30,10	,	72274	,	-23196	,	-21005	,	-24.939304	,	0
30,10	,	72290	,	-23187	,	-21010	,	-24.004864	,	1
30,10	,	72322	,	-23205	,	-21005	,	-23.30991	,	1
30,10	,	72337	,	-23209	,	-21010	,	-22.85986	,	1
30,10	,	72369	,	-23201	,	-21011	,	-22.59092	,	1
30,10	,	72386	,	-23184	,	-21000	,	-22.140797	,	1
30,10	,	72401	,	-23173	,	-21003	,	-20.845783	,	1
30,10	,	72433	,	-23159	,	-20992	,	-18.109524	,	2
30,10	,	72449	,	-23140	,	-20993	,	-13.648438	,	4
30,10	,	72465	,	-23144	,	-20994	,	-7.5719633	,	8
30,10	,	72498	,	-23124	,	-20977	,	-0.40974712	,	13
30,10	,	72513	,	-23108	,	-20972	,	7.17536	,	20
30,11	,	72545	,	-23097	,	-20969	,	14.6986065	,	27
30,11	,	72561	,	-23078	,	-20964	,	21.811445	,	34
30,11	,	72577	,	-23082	,	-20965	,	28.168219	,	41
30,11	,	72610	,	-23077	,	-20969	,	33.32044	,	47
30,11	,	72625	,	-23078	,	-20958	,	36.769455	,	51
30,11	,	72641	,	-23079	,	-20969	,	38.170807	,	52
30,11	,	72673	,	-23076	,	-20961	,	37.450024	,	49
30,11	,	72689	,	-23071	,	-20970	,	34.862633	,	43
30,11	,	72705	,	-23076	,	-20965	,	30.91957	,	36
30,11	,	72738	,	-23078	,	-20953	,	26.139738	,	29
30,11	,	72754	,	-23083	,	-20958	,	20.917358	,	22
30,11	,	72785	,	-23084	,	-20965	,	15.571947	,	15
30,11	,	72801	,	-23086	,	-20960	,	10.406832	,	9
30,11	,	72817	,	-23083	,	-20962	,	5.7278423	,	4
30,11	,	72849	,	-23094	,	-20958	,	1.7728014	,	1
30,11	,	72865	,	-23095	,	-20971	,	-1.4127822	,	0
30,11	,	72881	,	-23100	,	-20969	,	-3.9348006	,	0
30,11	,	72913	,	-23114	,	-20964	,	-5.9673805	,	0
30,11	,	72929	,	-23115	,	-20970	,	-7.750524	,	0
30,11	,	72961	,	-23125	,	-20976	,	-9.483713	,	0
30,11	,	72977	,	-23118	,	-20963	,	-11.189107	,	0
30,11	,	72993	,	-23129	,	-20968	,	-12.717285	,	0
30,11	,	73025	,	-23130	,	-20970	,	-13.905437	,	0
30,11	,	73041	,	-23137	,	-20974	,	-14.702642	,	0
30,11	,	73057	,	-23143	,	-20967	,	-15.158907	,	0
30,11	,	73089	,	-23143	,	-20967	,	-15.365252	,	0
30,11	,	73105	,	-23145	,	-20969	,	-15.353897	,	0
30,11	,	73121	,	-23153	,	-20972	,	-15.1130905	,	0
30,11	,	73153	,	-23162	,	-20976	,	-14.735424	,	0
30,11	,	73169	,	-23173	,	-20985	,	-14.451175	,	0
30,11	,	73201	,	-23172	,	-20980	,	-14.476447	,	0
30,11	,	73217	,	-23188	,	-20985	,	-14.884809	,	0
30,11	,	73233	,	-23202	,	-21001	,	-15.721859	,	0
30,11	,	73265	,	-23194	,	-20990	,	-17.018196	,	0
30,11	,	73281	,	-23207	,	-20990	,	-18.575724	,	0
30,11	,	73297	,	-23211	,	-20990	,	-20.06682	,	0
30,11	,	73329	,	-23198	,	-20984	,	-21.187273	,	0
30,11	,	73345	,	-23185	,	-20988	,	-21.480232	,	0
30,11	,	73377	,	-23177	,	-20971	,	-20.378536	,	0
30,11	,	73393	,	-23166	,	-20968	,	-17.546661	,	1
30,11	,	73409	,	-23142	,	-20966	,	-12.959873	,	3
30,11	,	73441	,	-23136	,	-20957	,	-6.7778215	,	7
30,11	,	73457	,	-23137	,	-20949	,	0.53564453	,	13
30,11	,	73473	,	-23101	,	-20937	,	8.259211	,	20
30,11	,	73505	,	-23098	,	-20936	,	15.858689	,	27
30,12	,	73521	,	-23096	,	-20929	,	22.9598	,	34
30,12	,	73553	,	-23090	,	-20935	,	29.017431	,	41
30,12	,	73569	,	-23077	,	-20924	,	33.51465	,	47
30,12	,	73585	,	-23083	,	-20926	,	36.228264	,	50
30,12	,	73617	,	-23080	,	-20928	,	37.105045	,	50
30,12	,	73633	,	-23082	,	-20922	,	36.169853	,	46
30,12	,	73649	,	-23064	,	-20922	,	33.681976	,	40
30,12	,	73681	,	-23079	,	-20919	,	30.150673	,	33
30,12	,	73697	,	-23064	,	-20921	,	26.079742	,	26
30,12	,	73713	,	-23071	,	-20931	,	21.871353	,	19
30,12	,	73745	,	-23071	,	-20934	,	17.826233	,	12
30,12	,	73761	,	-23066	,	-20945	,	14.105306	,	6
30,12	,	73793	,	-23066	,	-20951	,	10.837807	,	2
30,12	,	73809	,	-23079	,	-20954	,	8.083314	,	0
30,12	,	73825	,	-23067	,	-20953	,	5.744353	,	0
30,12	,	73857	,	-23076	,	-20957	,	3.7411795	,	0
30,12	,	73873	,	-23085	,	-20961	,	2.0132632	,	0
30,12	,	73889	,	-23094	,	-20970	,	0.3484161	,	0
30,12	,	73921	,	-23106	,	-20959	,	-1.5540302	,	0
30,12	,	73937	,	-23111	,	-20965	,	-3.9153702	,	0
30,12	,	73968	,	-23120	,	-20964	,	-6.7719116	,	0
30,12	,	73985	,	-23114	,	-20968	,	-9.914075	,	0
30,12	,	74001	,	-23129	,	-20975	,	-12.958742	,	0
30,12	,	74033	,	-23134	,	-20979	,	-15.599771	,	0
30,12	,	74049	,	-23154	,	-20971	,	-17.799671	,	0
30,12	,	74065	,	-23144	,	-20976	,	-19.665178	,	0
30,12	,	74096	,	-23156	,	-20977	,	-21.173847	,	0
30,12	,	74113	,	-23156	,	-20975	,	-22.174637	,	0
30,12	,	74129	,	-23166	,	-20979	,	-22.592607	,	0
30,12	,	74161	,	-23178	,	-20975	,	-22.529907	,	0
30,12	,	74177	,	-23191	,	-20973	,	-22.275871	,	0
30,12	,	74208	,	-23178	,	-20985	,	-22.085825	,	0
30,12	,	74225	,	-23176	,	-20991	,	-21.836727	,	0
30,12	,	74240	,	-23158	,	-20990	,	-21.04257	,	0
30,12	,	74273	,	-23151	,	-20981	,	-19.15525	,	0
30,12	,	74289	,	-23139	,	-20945	,	-15.8288965	,	1
30,12	,	74304	,	-23132	,	-20977	,	-11.062652	,	4
30,12	,	74336	,	-23121	,	-20956	,	-5.1772995	,	8
30,12	,	74353	,	-23113	,	-20959	,	1.3281274	,	13
30,12	,	74384	,	-23095	,	-20962	,	7.961388	,	19
30,12	,	74400	,	-23092	,	-20943	,	14.340667	,	25
30,12	,	74416	,	-23080	,	-20939	,	20.133512	,	31
30,12	,	74449	,	-23070	,	-20946	,	25.046284	,	36
30,12	,	74465	,	-23047	,	-20940	,	28.980276	,	40
30,12	,	74481	,	-23067	,	-20941	,	31.958054	,	42
30,12	,	74512	,	-23061	,	-20946	,	33.77293	,	41
30,13	,	74529	,	-23063	,	-20937	,	34.059006	,	38
30,13	,	74560	,	-23050	,	-20932	,	32.741947	,	33
30,13	,	74576	,	-23068	,	-20937	,	30.087082	,	27
30,13	,	74592	,	-23059	,	-20932	,	26.403416	,	21
30,13	,	74625	,	-23060	,	-20943	,	22.008724	,	15
30,13	,	74641	,	-23068	,	-20922	,	17.29355	,	10
30,13	,	74657	,	-23070	,	-20936	,	12.573113	,	6
30,13	,	74689	,	-23078	,	-20937	,	8.017756	,	3
30,13	,	74705	,	-23075	,	-20945	,	3.7505054	,	1
30,13	,	74721	,	-23085	,	-20951	,	-0.089686394	,	0
30,13	,	74752	,	-23091	,	-20944	,	-3.4214754	,	0
30,13	,	74768	,	-23096	,	-20952	,	-6.2859745	,	0
30,13	,	74800	,	-23102	,	-20946	,	-8.763891	,	0
30,13	,	74816	,	-23108	,	-20961	,	-10.911523	,	0
30,13	,	74832	,	-23110	,	-20961	,	-12.747341	,	0
30,13	,	74864	,	-23123	,	-20960	,	-14.271521	,	0
30,13	,	74880	,	-23128	,	-20953	,	-15.549085	,	0
30,13	,	74896	,	-23147	,	-20969	,	-16.744879	,	0
30,13	,	74928	,	-23149	,	-20965	,	-18.053194	,	0
30,13	,	74944	,	-23151	,	-20977	,	-19.518621	,	0
30,13	,	74976	,	-23156	,	-20974	,	-20.944948	,	0
30,13	,	74992	,	-23162	,	-20973	,	-22.068935	,	0
30,13	,	75008	,	-23177	,	-20978	,	-22.783974	,	0
30,13	,	75040	,	-23194	,	-20980	,	-23.248957	,	0
30,13	,	75057	,	-23179	,	-20977	,	-23.683985	,	0
30,13	,	75072	,	-23193	,	-20985	,	-24.0196	,	0
30,13	,	75104	,	-23191	,	-21000	,	-24.013939	,	0
30,13	,	75120	,	-23203	,	-20974	,	-23.571941	,	0
30,13	,	75136	,	-23194	,	-20985	,	-22.72052	,	0
30,13	,	75168	,	-23174	,	-20980	,	-21.329613	,	0
30,13	,	75184	,	-23160	,	-20969	,	-18.963976	,	1
30,13	,	75216	,	-23148	,	-20970	,	-15.160329	,	3
30,13	,	75232	,	-23133	,	-20963	,	-9.780387	,	6
30,13	,	75248	,	-23122	,	-20953	,	-3.0520754	,	11
30,13	,	75280	,	-23129	,	-20957	,	4.4521155	,	17
30,13	,	75296	,	-23108	,	-20949	,	11.896815	,	24
30,13	,	75312	,	-23102	,	-20936	,	18.56134	,	31
30,13	,	75344	,	-23079	,	-20950	,	24.13363	,	37
30,13	,	75360	,	-23076	,	-20914	,	28.619621	,	42
30,13	,	75392	,	-23077	,	-20924	,	32.032566	,	45
30,13	,	75408	,	-23067	,	-20922	,	34.223656	,	46
30,13	,	75424	,	-23072	,	-20926	,	35.040115	,	45
30,13	,	75456	,	-23065	,	-20927	,	34.45998	,	40
30,13	,	75472	,	-23059	,	-20913	,	32.637184	,	34
30,13	,	75488	,	-23063	,	-20921	,	29.893406	,	27
30,14	,	75520	,	-23068	,	-20923	,	26.511114	,	20
30,14	,	75536	,	-23065	,	-20926	,	22.642273	,	14
30,14	,	75568	,	-23064	,	-20922	,	18.478037	,	9
30,14	,	75584	,	-23060	,	-20937	,	14.338301	,	5
30,14	,	75600	,	-23064	,	-20908	,	10.554262	,	2
30,14	,	75632	,	-23067	,	-20921	,	7.308216	,	0
30,14	,	75648	,	-23090	,	-20935	,	4.506336	,	0
30,14	,	75664	,	-23085	,	-20929	,	1.8167162	,	0
30,14	,	75696	,	-23092	,	-20935	,	-1.0010986	,	0
30,14	,	75712	,	-23090	,	-20936	,	-3.8728352	,	0
30,14	,	75728	,	-23100	,	-20934	,	-6.568468	,	0
30,14	,	75760	,	-23103	,	-20946	,	-8.928677	,	0
30,14	,	75776	,	-23109	,	-20940	,	-10.9114065	,	0
30,14	,	75808	,	-23112	,	-20939	,	-12.51844	,	0
30,14	,	75824	,	-23116	,	-20956	,	-13.742846	,	0
30,14	,	75840	,	-23122	,	-20928	,	-14.580099	,	0
30,14	,	75872	,	-23147	,	-20953	,	-15.171531	,	0
30,14	,	75888	,	-23140	,	-20948	,	-15.842849	,	0
30,14	,	75904	,	-23159	,	-20958	,	-16.821575	,	0
30,14	,	75936	,	-23148	,	-20955	,	-18.054972	,	0
30,14	,	75952	,	-23165	,	-20956	,	-19.301481	,	0
30,14	,	75984	,	-23186	,	-20959	,	-20.427752	,	0
30,14	,	76000	,	-23176	,	-20968	,	-21.534702	,	0
30,14	,	76016	,	-23178	,	-20968	,	-22.56461	,	0
30,14	,	76048	,	-23188	,	-20977	,	-23.203691	,	0
30,14	,	76064	,	-23207	,	-20988	,	-23.350845	,	0
30,14	,	76080	,	-23199	,	-20964	,	-23.212679	,	0
30,14	,	76112	,	-23188	,	-20968	,	-22.832712	,	0
30,14	,	76128	,	-23154	,	-20951	,	-21.73094	,	0
30,14	,	76144	,	-23153	,	-20962	,	-19.124908	,	1
30,14	,	76176	,	-23138	,	-20950	,	-14.559991	,	3
30,14	,	76191	,	-23130	,	-20945	,	-8.224745	,	7
30,14	,	76224	,	-23124	,	-20941	,	-0.75332546	,	13
30,14	,	76240	,	-23108	,	-20929	,	7.069141	,	20
30,14	,	76256	,	-23102	,	-20933	,	14.552366	,	27
30,14	,	76288	,	-23092	,	-20923	,	21.183157	,	34
30,14	,	76304	,	-23072	,	-20936	,	26.656822	,	40
30,14	,	76320	,	-23069	,	-20908	,	30.93079	,	45
30,14	,	76352	,	-23069	,	-20911	,	34.009995	,	48
30,14	,	76368	,	-23059	,	-20914	,	35.77624	,	49
30,14	,	76399	,	-23066	,	-20901	,	36.128353	,	46
30,14	,	76416	,	-23064	,	-20896	,	35.04549	,	40
30,14	,	76432	,	-23066	,	-20911	,	32.57924	,	33
30,14	,	76464	,	-23058	,	-20899	,	28.963049	,	26
30,14	,	76480	,	-23075	,	-20901	,	24.573883	,	19
30,14	,	76496	,	-23069	,	-20898	,	19.727654	,	13
30,15	,	76528	,	-23062	,	-20906	,	14.743919	,	8
30,15	,	76544	,	-23083	,	-20922	,	9.999393	,	4
30,15	,	76559	,	-23074	,	-20901	,	5.6892757	,	1
30,15	,	76591	,	-23085	,	-20910	,	1.8568816	,	0
30,15	,	76608	,	-23081	,	-20914	,	-1.427959	,	0
30,15	,	76640	,	-23092	,	-20921	,	-4.1157894	,	0
30,15	,	76656	,	-23095	,	-20923	,	-6.260693	,	0
30,15	,	76672	,	-23095	,	-20920	,	-7.9754252	,	0
30,15	,	76704	,	-23103	,	-20924	,	-9.325645	,	0
30,15	,	76719	,	-23115	,	-20923	,	-10.40438	,	0
30,15	,	76736	,	-23111	,	-20927	,	-11.377022	,	0
30,15	,	76768	,	-23118	,	-20930	,	-12.303483	,	0
30,15	,	76784	,	-23133	,	-20939	,	-13.171238	,	0
30,15	,	76816	,	-23132	,	-20932	,	-14.056223	,	0
30,15	,	76832	,	-23139	,	-20938	,	-15.000362	,	0
30,15	,	76847	,	-23152	,	-20944	,	-15.963055	,	0
30,15	,	76879	,	-23146	,	-20945	,	-16.917961	,	0
30,15	,	76895	,	-23164	,	-20946	,	-17.808865	,	0
30,15	,	76912	,	-23165	,	-20949	,	-18.591915	,	0
30,15	,	76944	,	-23166	,	-20954	,	-19.24516	,	0
30,15	,	76960	,	-23191	,	-20954	,	-19.753286	,	0
30,15	,	76976	,	-23197	,	-20957	,	-20.287169	,	0
30,15	,	77008	,	-23184	,	-20963	,	-21.001091	,	0
30,15	,	77024	,	-23206	,	-20968	,	-21.713634	,	0
30,15	,	77055	,	-23195	,	-20959	,	-22.154911	,	0
30,15	,	77071	,	-23179	,	-20958	,	-22.038643	,	0
30,15	,	77087	,	-23173	,	-20950	,	-20.883362	,	0
30,15	,	77120	,	-23158	,	-20945	,	-18.250423	,	1
30,15	,	77135	,	-23144	,	-20944	,	-13.985339	,	3
30,15	,	77151	,	-23131	,	-20939	,	-8.195246	,	7
30,15	,	77183	,	-23122	,	-20934	,	-1.2341433	,	12
30,15	,	77199	,	-23116	,	-20938	,	6.3091497	,	18
30,15	,	77231	,	-23095	,	-20926	,	13.772633	,	25
30,15	,	77247	,	-23087	,	-20928	,	20.667461	,	32
30,15	,	77263	,	-23089	,	-20922	,	26.633177	,	38
30,15	,	77295	,	-23083	,	-20918	,	31.237104	,	43
30,15	,	77311	,	-23083	,	-20917	,	34.079765	,	46
30,15	,	77327	,	-23074	,	-20920	,	35.02584	,	46
30,15	,	77359	,	-23076	,	-20925	,	34.24597	,	42
30,15	,	77375	,	-23065	,	-20914	,	32.11783	,	37
30,15	,	77407	,	-23078	,	-20911	,	29.060602	,	31
30,15	,	77423	,	-23070	,	-20916	,	25.382593	,	24
30,15	,	77439	,	-23080	,	-20913	,	21.298508	,	17
30,15	,	77471	,	-23070	,	-20916	,	17.041668	,	11
30,15	,	77487	,	-23080	,	-20925	,	12.880726	,	6
30,15	,	77503	,	-23078	,	-20923	,	9.029626	,	2
30,16	,	77535	,	-23090	,	-20922	,	5.5598674	,	0
30,16	,	77551	,	-23087	,	-20918	,	2.429666	,	0
30,16	,	77567	,	-23099	,	-20922	,	-0.42308617	,	0
30,16	,	77599	,	-23103	,	-20928	,	-3.0647657	,	0
30,16	,	77615	,	-23114	,	-20922	,	-5.588008	,	0
30,16	,	77647	,	-23101	,	-20926	,	-7.9899526	,	0
30,16	,	77663	,	-23111	,	-20939	,	-10.052343	,	0
30,16	,	77679	,	-23115	,	-20928	,	-11.546388	,	0
30,16	,	77711	,	-23130	,	-20926	,	-12.515186	,	0
30,16	,	77727	,	-23121	,	-20946	,	-13.174757	,	0
30,16	,	77743	,	-23149	,	-20941	,	-13.715021	,	0
30,16	,	77775	,	-23142	,	-20936	,	-14.340087	,	0
30,16	,	77791	,	-23141	,	-20944	,	-15.129602	,	0
30,16	,	77823	,	-23148	,	-20939	,	-15.876335	,	0
30,16	,	77839	,	-23159	,	-20945	,	-16.381168	,	0
30,16	,	77855	,	-23168	,	-20947	,	-16.703863	,	0
30,16	,	77887	,	-23165	,	-20950	,	-16.992867	,	0
30,16	,	77903	,	-23173	,	-20950	,	-17.260687	,	0
30,16	,	77919	,	-23185	,	-20954	,	-17.469013	,	0
30,16	,	77951	,	-23186	,	-20957	,	-17.678417	,	0
30,16	,	77967	,	-23180	,	-20962	,	-17.875511	,	0
30,16	,	77983	,	-23171	,	-20938	,	-17.776955	,	0
30,16	,	78015	,	-23169	,	-20949	,	-16.96838	,	0
30,16	,	78031	,	-23145	,	-20932	,	-15.09871	,	0
30,16	,	78063	,	-23132	,	-20923	,	-11.86489	,	1
30,16	,	78079	,	-23123	,	-20930	,	-7.1076045	,	4
30,16	,	78095	,	-23112	,	-20921	,	-1.0351529	,	8
30,16	,	78127	,	-23112	,	-20920	,	5.77747	,	14
30,16	,	78143	,	-23097	,	-20923	,	12.587936	,	20
30,16	,	78159	,	-23088	,	-20906	,	18.766403	,	26
30,16	,	78191	,	-23079	,	-20912	,	23.94912	,	32
30,16	,	78207	,	-23085	,	-20919	,	27.900333	,	37
30,16	,	78239	,	-23080	,	-20907	,	30.362114	,	40
30,16	,	78255	,	-23077	,	-20903	,	31.169212	,	41
30,16	,	78271	,	-23074	,	-20903	,	30.415848	,	38
30,16	,	78303	,	-23070	,	-20889	,	28.413067	,	34
30,16	,	78319	,	-23073	,	-20903	,	25.545586	,	28
30,16	,	78335	,	-23074	,	-20901	,	22.14855	,	22
30,16	,	78367	,	-23074	,	-20903	,	18.469921	,	16
30,16	,	78383	,	-23073	,	-20902	,	14.730351	,	10
30,16	,	78399	,	-23078	,	-20902	,	11.133561	,	5
30,16	,	78431	,	-23078	,	-20901	,	7.8144007	,	2
30,16	,	78447	,	-23076	,	-20911	,	4.864519	,	0
30,16	,	78479	,	-23093	,	-20898	,	2.314488	,	0
30,16	,	78495	,	-23084	,	-20899	,	0.07527113	,	0
30,16	,	78511	,	-23094	,	-20907	,	-1.9279444	,	0
30,17	,	78543	,	-23100	,	-20904	,	-3.7162995	,	0
30,17	,	78559	,	-23108	,	-20905	,	-5.3940535	,	0
30,17	,	78575	,	-23102	,	-20907	,	-7.051907	,	0
30,17	,	78607	,	-23121	,	-20917	,	-8.654524	,	0
30,17	,	78623	,	-23128	,	-20907	,	-10.225109	,	0
30,17	,	78655	,	-23118	,	-20910	,	-11.82452	,	0
30,17	,	78671	,	-23139	,	-20909	,	-13.344984	,	0
30,17	,	78687	,	-23137	,	-20930	,	-14.6730795	,	0
30,17	,	78719	,	-23142	,	-20912	,	-15.791789	,	0
30,17	,	78735	,	-23150	,	-20924	,	-16.665262	,	0
30,17	,	78751	,	-23161	,	-20923	,	-17.320908	,	0
30,17	,	78783	,	-23174	,	-20934	,	-17.933903	,	0
30,17	,	78799	,	-23174	,	-20936	,	-18.699173	,	0
30,17	,	78815	,	-23178	,	-20930	,	-19.618183	,	0
30,17	,	78847	,	-23176	,	-20934	,	-20.452593	,	0
30,17	,	78863	,	-23171	,	-20931	,	-20.844923	,	0
30,17	,	78895	,	-23155	,	-20924	,	-20.37252	,	0
30,17	,	78911	,	-23131	,	-20915	,	-18.528934	,	0
30,17	,	78927	,	-23123	,	-20923	,	-14.860036	,	1
30,17	,	78959	,	-23117	,	-20898	,	-9.315999	,	4
30,17	,	78975	,	-23111	,	-20902	,	-2.4167624	,	9
30,17	,	78991	,	-23103	,	-20895	,	4.9972095	,	15
30,17	,	79023	,	-23098	,	-20890	,	12.100441	,	22
30,17	,	79038	,	-23082	,	-20889	,	18.292635	,	29
30,17	,	79071	,	-23069	,	-20889	,	23.326534	,	35
30,17	,	79087	,	-23071	,	-20891	,	27.198586	,	40
30,17	,	79103	,	-23065	,	-20881	,	29.869549	,	43
30,17	,	79135	,	-23068	,	-20882	,	31.216484	,	44
30,17	,	79151	,	-23076	,	-20883	,	31.106224	,	42
30,17	,	79167	,	-23061	,	-20880	,	29.500587	,	37
30,17	,	79199	,	-23053	,	-20865	,	26.721478	,	31
30,17	,	79214	,	-23055	,	-20878	,	23.40291	,	24
30,17	,	79247	,	-23063	,	-20881	,	20.027107	,	17
30,17	,	79263	,	-23060	,	-20883	,	16.72509	,	11
30,17	,	79279	,	-23064	,	-20888	,	13.493694	,	6
30,17	,	79311	,	-23064	,	-20883	,	10.374407	,	3
30,17	,	79326	,	-23069	,	-20892	,	7.432488	,	1
30,17	,	79343	,	-23076	,	-20892	,	4.6779304	,	0
30,17	,	79375	,	-23079	,	-20896	,	2.0481238	,	0
30,17	,	79391	,	-23087	,	-20893	,	-0.5234995	,	0
30,17	,	79406	,	-23091	,	-20900	,	-3.062076	,	0
30,17	,	79439	,	-23092	,	-20888	,	-5.526866	,	0
30,17	,	79454	,	-23099	,	-20915	,	-7.8044252	,	0
30,17	,	79487	,	-23106	,	-20907	,	-9.807919	,	0
30,17	,	79503	,	-23108	,	-20902	,	-11.526936	,	0
30,18	,	79519	,	-23124	,	-20911	,	-13.00024	,	0
30,18	,	79551	,	-23121	,	-20908	,	-14.310278	,	0
30,18	,	79567	,	-23142	,	-20912	,	-15.551994	,	0
30,18	,	79583	,	-23139	,	-20917	,	-16.815983	,	0
30,18	,	79614	,	-23139	,	-20916	,	-18.073023	,	0
30,18	,	79630	,	-23147	,	-20910	,	-19.101515	,	0
30,18	,	79662	,	-23151	,	-20929	,	-19.708784	,	0
30,18	,	79678	,	-23162	,	-20901	,	-19.90033	,	0
30,18	,	79694	,	-23167	,	-20923	,	-19.827461	,	0
30,18	,	79726	,	-23186	,	-20920	,	-19.726255	,	0
30,18	,	79742	,	-23181	,	-20922	,	-19.830318	,	0
30,18	,	79758	,	-23170	,	-20936	,	-20.088305	,	0
30,18	,	79790	,	-23173	,	-20925	,	-20.057823	,	0
30,18	,	79807	,	-23149	,	-20919	,	-19.197449	,	0
30,18	,	79823	,	-23128	,	-20911	,	-16.981972	,	0
30,18	,	79854	,	-23124	,	-20898	,	-12.984113	,	2
30,18	,	79870	,	-23105	,	-20908	,	-7.194483	,	5
30,18	,	79902	,	-23093	,	-20910	,	-0.022366524	,	10
30,18	,	79918	,	-23094	,	-20887	,	7.880203	,	17
30,18	,	79934	,	-23054	,	-20881	,	15.79645	,	24
30,18	,	79966	,	-23047	,	-20876	,	23.311129	,	31
30,18	,	79982	,	-23024	,	-20876	,	30.307186	,	38
30,18	,	79999	,	-23023	,	-20876	,	36.605614	,	44
30,18	,	80030	,	-23027	,	-20865	,	41.76975	,	50
30,18	,	80046	,	-23021	,	-20874	,	45.179268	,	53
30,18	,	80078	,	-23010	,	-20872	,	46.42959	,	53
30,18	,	80094	,	-23007	,	-20870	,	45.61492	,	49
30,18	,	80110	,	-22993	,	-20866	,	43.196957	,	42
30,18	,	80142	,	-23014	,	-20880	,	39.681293	,	35
30,18	,	80158	,	-23011	,	-20859	,	35.30711	,	28
30,18	,	80174	,	-23015	,	-20863	,	30.135645	,	21
30,18	,	80206	,	-23030	,	-20866	,	24.300756	,	15
30,18	,	80222	,	-23020	,	-20866	,	18.030602	,	9
30,18	,	80254	,	-23023	,	-20868	,	11.729432	,	4
30,18	,	80270	,	-23024	,	-20864	,	5.9407883	,	1
30,18	,	80286	,	-23024	,	-20875	,	1.0950241	,	0
30,18	,	80318	,	-23044	,	-20859	,	-2.669094	,	0
30,18	,	80334	,	-23038	,	-20873	,	-5.5334578	,	0
30,18	,	80350	,	-23049	,	-20882	,	-7.7702355	,	0
30,18	,	80382	,	-23049	,	-20887	,	-9.544979	,	0
30,18	,	80398	,	-23065	,	-20875	,	-10.993932	,	0
30,18	,	80414	,	-23067	,	-20881	,	-12.299044	,	0
30,18	,	80446	,	-23076	,	-20884	,	-13.612347	,	0
30,18	,	80462	,	-23089	,	-20888	,	-15.011457	,	0
30,18	,	80494	,	-23086	,	-20888	,	-16.515993	,	0
30,18	,	80510	,	-23105	,	-20890	,	-18.064276	,	0
30,19	,	80526	,	-23106	,	-20895	,	-19.5797	,	0
30,19	,	80558	,	-23113	,	-20895	,	-20.99343	,	0
30,19	,	80574	,	-23116	,	-20891	,	-22.171425	,	0
30,19	,	80590	,	-23109	,	-20903	,	-22.904934	,	0
30,19	,	80622	,	-23124	,	-20919	,	-22.982021	,	0
30,19	,	80638	,	-23131	,	-20906	,	-22.409199	,	0
30,19	,	80670	,	-23138	,	-20912	,	-21.470995	,	0
30,19	,	80686	,	-23148	,	-20919	,	-20.50755	,	0
30,19	,	80702	,	-23158	,	-20907	,	-19.795708	,	0
30,19	,	80734	,	-23163	,	-20919	,	-19.52303	,	0
30,19	,	80750	,	-23168	,	-20928	,	-19.708574	,	0
30,19	,	80766	,	-23166	,	-20922	,	-20.16184	,	0
30,19	,	80798	,	-23149	,	-20917	,	-20.46045	,	0
30,19	,	80814	,	-23125	,	-20912	,	-19.902725	,	0
30,19	,	80830	,	-23119	,	-20908	,	-17.710976	,	0
30,19	,	80862	,	-23101	,	-20910	,	-13.483046	,	2
30,19	,	80878	,	-23089	,	-20886	,	-7.3476896	,	6
30,19	,	80910	,	-23068	,	-20891	,	0.24883652	,	12
30,19	,	80926	,	-23050	,	-20885	,	8.770079	,	19
30,19	,	80942	,	-23037	,	-20885	,	17.664974	,	27
30,19	,	80974	,	-23029	,	-20877	,	26.303617	,	35
30,19	,	80990	,	-23025	,	-20871	,	33.956238	,	43
30,19	,	81006	,	-23016	,	-20869	,	39.93426	,	50
30,19	,	81038	,	-23008	,	-20873	,	43.80843	,	55
30,19	,	81054	,	-23017	,	-20866	,	45.437115	,	56
30,19	,	81086	,	-23011	,	-20870	,	44.815544	,	53
30,19	,	81102	,	-23014	,	-20883	,	42.098595	,	47
30,19	,	81118	,	-23011	,	-20869	,	37.686527	,	40
30,19	,	81150	,	-23011	,	-20862	,	32.149307	,	32
30,19	,	81166	,	-23014	,	-20864	,	26.080801	,	24
30,19	,	81182	,	-23024	,	-20863	,	19.932667	,	16
30,19	,	81214	,	-23016	,	-20871	,	13.997793	,	9
30,19	,	81230	,	-23030	,	-20868	,	8.528337	,	4
30,19	,	81246	,	-23044	,	-20878	,	3.6274538	,	1
30,19	,	81278	,	-23047	,	-20876	,	-0.84876966	,	0
30,19	,	81294	,	-23054	,	-20877	,	-5.041456	,	0
30,19	,	81326	,	-23051	,	-20887	,	-8.875164	,	0
30,19	,	81342	,	-23070	,	-20888	,	-12.17197	,	0
30,19	,	81358	,	-23062	,	-20880	,	-14.833825	,	0
30,19	,	81390	,	-23082	,	-20884	,	-16.85218	,	0
30,19	,	81406	,	-23074	,	-20894	,	-18.271793	,	0
30,19	,	81422	,	-23109	,	-20895	,	-19.253872	,	0
30,19	,	81454	,	-23105	,	-20895	,	-20.134731	,	0
30,19	,	81470	,	-23100	,	-20893	,	-21.131937	,	0
30,19	,	81502	,	-23112	,	-20904	,	-22.061014	,	0
30,19	,	81518	,	-23124	,	-20902	,	-22.688248	,	0
30,20	,	81534	,	-23128	,	-20895	,	-23.039043	,	0
30,20	,	81566	,	-23141	,	-20908	,	-23.243286	,	0
30,20	,	81581	,	-23144	,	-20908	,	-23.409048	,	0
30,20	,	81598	,	-23160	,	-20898	,	-23.62587	,	0
30,20	,	81630	,	-23165	,	-20909	,	-23.980247	,	0
30,20	,	81646	,	-23174	,	-20902	,	-24.51243	,	0
30,20	,	81678	,	-23189	,	-20917	,	-25.203804	,	0
30,20	,	81694	,	-23191	,	-20899	,	-26.028397	,	0
30,20	,	81710	,	-23204	,	-20912	,	-26.918907	,	0
30,20	,	81742	,	-23208	,	-20913	,	-27.759995	,	0
30,20	,	81758	,	-23212	,	-20913	,	-28.416992	,	0
30,20	,	81774	,	-23201	,	-20921	,	-28.643944	,	0
30,20	,	81806	,	-23193	,	-20916	,	-28.017538	,	0
30,20	,	81822	,	-23179	,	-20907	,	-26.063713	,	0
30,20	,	81838	,	-23159	,	-20899	,	-22.415215	,	1
30,20	,	81870	,	-23133	,	-20896	,	-16.82848	,	4
30,20	,	81885	,	-23123	,	-20895	,	-9.269316	,	9
30,20	,	81917	,	-23118	,	-20886	,	-0.17349052	,	16
30,20	,	81933	,	-23108	,	-20882	,	9.523277	,	25
30,20	,	81950	,	-23095	,	-20874	,	18.777224	,	34
30,20	,	81982	,	-23081	,	-20871	,	26.832298	,	43
30,20	,	81998	,	-23075	,	-20870	,	33.287086	,	51
30,20	,	82013	,	-23073	,	-20861	,	37.92019	,	57
30,20	,	82045	,	-23066	,	-20860	,	40.58004	,	60
30,20	,	82062	,	-23069	,	-20860	,	41.23986	,	59
30,20	,	82093	,	-23057	,	-20864	,	40.060356	,	54
30,20	,	82109	,	-23059	,	-20865	,	37.406937	,	47
30,20	,	82125	,	-23058	,	-20861	,	33.735664	,	38
30,20	,	82157	,	-23058	,	-20859	,	29.435436	,	29
30,20	,	82174	,	-23063	,	-20870	,	24.80252	,	20
30,20	,	82189	,	-23054	,	-20863	,	20.097462	,	12
30,20	,	82222	,	-23055	,	-20864	,	15.629064	,	6
30,20	,	82238	,	-23057	,	-20864	,	11.687794	,	2
30,20	,	82254	,	-23070	,	-20870	,	8.335659	,	0
30,20	,	82285	,	-23070	,	-20875	,	5.3893156	,	0
30,20	,	82301	,	-23072	,	-20857	,	2.6586404	,	0
30,20	,	82334	,	-23075	,	-20867	,	0.11430216	,	0
30,20	,	82349	,	-23089	,	-20876	,	-2.232728	,	0
30,20	,	82365	,	-23088	,	-20871	,	-4.45688	,	0
30,20	,	82397	,	-23089	,	-20873	,	-6.5830345	,	0
30,20	,	82413	,	-23097	,	-20872	,	-8.507809	,	0
30,20	,	82429	,	-23090	,	-20878	,	-10.097635	,	0
30,20	,	82461	,	-23108	,	-20877	,	-11.261807	,	0
30,20	,	82478	,	-23112	,	-20881	,	-12.076212	,	0
30,20	,	82509	,	-23114	,	-20883	,	-12.746167	,	0
30,21	,	82525	,	-23122	,	-20898	,	-13.383394	,	0
30,21	,	82541	,	-23116	,	-20878	,	-13.954697	,	0
30,21	,	82573	,	-23144	,	-20900	,	-14.425898	,	0
30,21	,	82589	,	-23146	,	-20888	,	-14.962123	,	0
30,21	,	82605	,	-23150	,	-20898	,	-15.79401	,	0
30,21	,	82637	,	-23161	,	-20892	,	-16.936178	,	0
30,21	,	82653	,	-23170	,	-20901	,	-18.291157	,	0
30,21	,	82669	,	-23168	,	-20897	,	-19.74686	,	0
30,21	,	82701	,	-23178	,	-20904	,	-21.091835	,	0
30,21	,	82718	,	-23185	,	-20907	,	-22.119701	,	0
30,21	,	82749	,	-23197	,	-20909	,	-22.799393	,	0
30,21	,	82765	,	-23194	,	-20925	,	-23.205475	,	0
30,21	,	82781	,	-23175	,	-20899	,	-23.215343	,	0
30,21	,	82813	,	-23171	,	-20898	,	-22.370804	,	0
30,21	,	82829	,	-23144	,	-20891	,	-20.117842	,	0
30,21	,	82845	,	-23137	,	-20893	,	-16.068623	,	2
30,21	,	82877	,	-23125	,	-20879	,	-10.194777	,	6
30,21	,	82893	,	-23107	,	-20885	,	-2.881423	,	11
30,21	,	82925	,	-23111	,	-20880	,	5.215079	,	18
30,21	,	82941	,	-23109	,	-20874	,	13.200266	,	26
30,21	,	82957	,	-23094	,	-20865	,	20.138884	,	33
30,21	,	82989	,	-23097	,	-20871	,	25.440674	,	39
30,21	,	83005	,	-23091	,	-20873	,	28.870104	,	44
30,21	,	83021	,	-23088	,	-20853	,	30.400255	,	47
30,21	,	83053	,	-23078	,	-20870	,	30.245228	,	46
30,21	,	83069	,	-23080	,	-20861	,	28.819351	,	42
30,21	,	83085	,	-23071	,	-20860	,	26.571339	,	37
30,21	,	83117	,	-23076	,	-20855	,	23.877998	,	30
30,21	,	83133	,	-23070	,	-20859	,	21.007687	,	22
30,21	,	83165	,	-23064	,	-20854	,	18.174839	,	15
30,21	,	83181	,	-23071	,	-20863	,	15.565768	,	9
30,21	,	83197	,	-23070	,	-20857	,	13.217047	,	4
30,21	,	83229	,	-23079	,	-20856	,	11.002036	,	1
30,21	,	83245	,	-23078	,	-20868	,	8.768709	,	0
30,21	,	83261	,	-23086	,	-20848	,	6.4289384	,	0
30,21	,	83293	,	-23084	,	-20863	,	3.9779468	,	0
30,21	,	83309	,	-23093	,	-20857	,	1.4788775	,	0
30,21	,	83341	,	-23098	,	-20864	,	-1.0020716	,	0
30,21	,	83357	,	-23109	,	-20861	,	-3.466889	,	0
30,21	,	83373	,	-23108	,	-20864	,	-5.9401503	,	0
30,21	,	83405	,	-23102	,	-20871	,	-8.294659	,	0
30,21	,	83421	,	-23120	,	-20871	,	-10.274874	,	0
30,21	,	83437	,	-23125	,	-20881	,	-11.815026	,	0
30,21	,	83469	,	-23126	,	-20875	,	-13.061891	,	0
30,21	,	83485	,	-23124	,	-20890	,	-14.056671	,	0
30,21	,	83517	,	-23137	,	-20868	,	-14.712186	,	0
30,22	,	83533	,	-23161	,	-20882	,	-15.148237	,	0
30,22	,	83549	,	-23159	,	-20875	,	-15.762604	,	0
30,22	,	83581	,	-23165	,	-20885	,	-16.800787	,	0
30,22	,	83597	,	-23171	,	-20880	,	-18.133833	,	0
30,22	,	83613	,	-23181	,	-20886	,	-19.520962	,	0
30,22	,	83645	,	-23172	,	-20889	,	-20.74346	,	0
30,22	,	83661	,	-23158	,	-20890	,	-21.419415	,	0
30,22	,	83677	,	-23165	,	-20872	,	-21.042778	,	0
30,22	,	83709	,	-23147	,	-20874	,	-19.317259	,	0
30,22	,	83725	,	-23136	,	-20883	,	-16.183243	,	1
30,22	,	83757	,	-23124	,	-20864	,	-11.666413	,	4
30,22	,	83773	,	-23118	,	-20863	,	-5.9608192	,	8
30,22	,	83789	,	-23114	,	-20857	,	0.46413755	,	13
30,22	,	83821	,	-23106	,	-20868	,	6.953157	,	19
30,22	,	83836	,	-23101	,	-20857	,	12.888636	,	25
30,22	,	83853	,	-23090	,	-20852	,	17.855549	,	30
30,22	,	83885	,	-23099	,	-20853	,	21.606735	,	34
30,22	,	83901	,	-23084	,	-20850	,	23.979378	,	37
30,22	,	83932	,	-23101	,	-20851	,	24.907076	,	38
30,22	,	83949	,	-23086	,	-20856	,	24.421764	,	35
30,22	,	83965	,	-23089	,	-20856	,	22.721062	,	31
30,22	,	83997	,	-23081	,	-20836	,	20.213957	,	26
30,22	,	84013	,	-23090	,	-20851	,	17.332663	,	20
30,22	,	84029	,	-23092	,	-20850	,	14.327502	,	14
30,22	,	84060	,	-23089	,	-20847	,	11.2952175	,	9
30,22	,	84077	,	-23092	,	-20854	,	8.348328	,	5
30,22	,	84093	,	-23104	,	-20846	,	5.583219	,	2
30,22	,	84125	,	-23099	,	-20848	,	2.9747481	,	0
30,22	,	84141	,	-23097	,	-20852	,	0.5439367	,	0
30,22	,	84173	,	-23106	,	-20849	,	-1.5634141	,	0
30,22	,	84188	,	-23112	,	-20853	,	-3.299934	,	0
30,22	,	84205	,	-23114	,	-20861	,	-4.7775745	,	0
30,22	,	84236	,	-23119	,	-20833	,	-6.1015635	,	0
30,22	,	84252	,	-23119	,	-20855	,	-7.293754	,	0
30,22	,	84268	,	-23125	,	-20852	,	-8.323826	,	0
30,22	,	84301	,	-23143	,	-20858	,	-9.24445	,	0
30,22	,	84317	,	-23140	,	-20856	,	-10.250433	,	0
30,22	,	84349	,	-23144	,	-20862	,	-11.436694	,	0
30,22	,	84365	,	-23157	,	-20862	,	-12.70892	,	0
30,22	,	84381	,	-23169	,	-20862	,	-14.044706	,	0
30,22	,	84413	,	-23156	,	-20858	,	-15.461151	,	0
30,22	,	84429	,	-23167	,	-20860	,	-16.7412	,	0
30,22	,	84445	,	-23160	,	-20881	,	-17.544441	,	0
30,22	,	84477	,	-23191	,	-20855	,	-17.77186	,	0
30,22	,	84493	,	-23187	,	-20879	,	-17.705608	,	0
30,23	,	84524	,	-23186	,	-20873	,	-17.661354	,	0
30,23	,	84540	,	-23186	,	-20867	,	-17.60434	,	0
30,23	,	84556	,	-23176	,	-20868	,	-17.245457	,	0
30,23	,	84588	,	-23157	,	-20859	,	-16.182854	,	0
30,23	,	84604	,	-23142	,	-20853	,	-13.918429	,	1
30,23	,	84620	,	-23131	,	-20864	,	-10.073038	,	3
30,23	,	84653	,	-23127	,	-20851	,	-4.685244	,	6
30,23	,	84668	,	-23109	,	-20840	,	1.7782164	,	11
30,23	,	84684	,	-23108	,	-20862	,	8.6781225	,	17
30,23	,	84717	,	-23091	,	-20828	,	15.388683	,	23
30,23	,	84732	,	-23077	,	-20832	,	21.444061	,	29
30,23	,	84764	,	-23066	,	-20828	,	26.637665	,	35
30,23	,	84780	,	-23062	,	-20833	,	30.87838	,	40
30,23	,	84796	,	-23063	,	-20824	,	33.9861	,	43
30,23	,	84828	,	-23054	,	-20826	,	35.71955	,	44
30,23	,	84845	,	-23053	,	-20826	,	35.98022	,	42
30,23	,	84860	,	-23047	,	-20832	,	34.891365	,	37
30,23	,	84892	,	-23040	,	-20820	,	32.742966	,	31
30,23	,	84909	,	-23044	,	-20822	,	29.89519	,	25
30,23	,	84940	,	-23040	,	-20831	,	26.631847	,	19
30,23	,	84956	,	-23043	,	-20816	,	23.132034	,	13
30,23	,	84972	,	-23041	,	-20829	,	19.54053	,	8
30,23	,	85004	,	-23051	,	-20827	,	15.958633	,	4
30,23	,	85020	,	-23048	,	-20827	,	12.420367	,	1
30,23	,	85036	,	-23056	,	-20833	,	8.9488535	,	0
30,23	,	85068	,	-23059	,	-20828	,	5.5791106	,	0
30,23	,	85084	,	-23067	,	-20828	,	2.3228488	,	0
30,23	,	85100	,	-23054	,	-20828	,	-0.74425983	,	0
30,23	,	85132	,	-23066	,	-20827	,	-3.404613	,	0
30,23	,	85148	,	-23072	,	-20840	,	-5.5097113	,	0
30,23	,	85180	,	-23071	,	-20845	,	-7.123776	,	0
30,23	,	85196	,	-23081	,	-20826	,	-8.366631	,	0
30,23	,	85212	,	-23093	,	-20844	,	-9.390652	,	0
30,23	,	85244	,	-23088	,	-20843	,	-10.391119	,	0
30,23	,	85260	,	-23102	,	-20857	,	-11.4501095	,	0
30,23	,	85276	,	-23110	,	-20845	,	-12.584169	,	0
30,23	,	85308	,	-23118	,	-20851	,	-13.868027	,	0
30,23	,	85324	,	-23122	,	-20836	,	-15.332597	,	0
30,23	,	85356	,	-23125	,	-20850	,	-16.856441	,	0
30,23	,	85372	,	-23124	,	-20859	,	-18.190002	,	0
30,23	,	85388	,	-23137	,	-20855	,	-19.095324	,	0
30,23	,	85420	,	-23141	,	-20872	,	-19.522638	,	0
30,23	,	85436	,	-23158	,	-20853	,	-19.647442	,	0
30,23	,	85452	,	-23159	,	-20868	,	-19.749485	,	0
30,23	,	85484	,	-23148	,	-20861	,	-19.9212	,	0
30,23	,	85500	,	-23118	,	-20844	,	-19.728588	,	0
30,23	,	85516	,	-23119	,	-20847	,	-18.359783	,	0
30,24	,	85548	,	-23099	,	-20851	,	-15.239857	,	1
30,24	,	85564	,	-23091	,	-20840	,	-10.313472	,	4
30,24	,	85596	,	-23072	,	-20835	,	-3.8767452	,	8
30,24	,	85612	,	-23060	,	-20824	,	3.6012921	,	14
30,24	,	85628	,	-23051	,	-20820	,	11.548183	,	21
30,24	,	85660	,	-23029	,	-20808	,	19.367277	,	28
30,24	,	85676	,	-23018	,	-20799	,	26.600262	,	35
30,24	,	85692	,	-22991	,	-20798	,	33.016174	,	42
30,24	,	85724	,	-22980	,	-20787	,	38.572487	,	48
30,24	,	85740	,	-22969	,	-20790	,	43.254738	,	52
30,24	,	85772	,	-22980	,	-20796	,	46.82564	,	53
30,24	,	85788	,	-22989	,	-20788	,	48.71355	,	52
30,24	,	85804	,	-22975	,	-20784	,	48.33439	,	47
30,24	,	85836	,	-22983	,	-20784	,	45.593174	,	40
30,24	,	85852	,	-22972	,	-20782	,	40.917828	,	33
30,24	,	85868	,	-22974	,	-20783	,	35.006546	,	26
30,24	,	85900	,	-22973	,	-20787	,	28.61404	,	19
30,24	,	85916	,	-22972	,	-20776	,	22.352173	,	13
30,24	,	85948	,	-22986	,	-20783	,	16.578186	,	8
30,24	,	85964	,	-22996	,	-20789	,	11.318871	,	4
30,24	,	85980	,	-22994	,	-20791	,	6.4128866	,	1
30,24	,	86012	,	-23001	,	-20792	,	1.8305354	,	0
30,24	,	86028	,	-23008	,	-20792	,	-2.317079	,	0
30,24	,	86044	,	-23015	,	-20793	,	-5.9699574	,	0
30,24	,	86076	,	-23012	,	-20799	,	-9.102643	,	0
30,24	,	86092	,	-23022	,	-20790	,	-11.64011	,	0
30,24	,	86108	,	-23025	,	-20796	,	-13.5389595	,	0
30,24	,	86140	,	-23038	,	-20800	,	-14.883791	,	0
30,24	,	86156	,	-23044	,	-20803	,	-15.877552	,	0
30,24	,	86188	,	-23058	,	-20824	,	-16.774384	,	0
30,24	,	86204	,	-23065	,	-20813	,	-17.796083	,	0
30,24	,	86220	,	-23068	,	-20814	,	-19.027897	,	0
30,24	,	86252	,	-23085	,	-20823	,	-20.406574	,	0
30,24	,	86268	,	-23093	,	-20816	,	-21.87594	,	0
30,24	,	86284	,	-23095	,	-20829	,	-23.394312	,	0
30,24	,	86316	,	-23112	,	-20830	,	-24.842937	,	0
30,24	,	86332	,	-23103	,	-20828	,	-26.065826	,	0
30,24	,	86364	,	-23124	,	-20841	,	-26.903437	,	0
30,24	,	86380	,	-23129	,	-20827	,	-27.314053	,	0
30,24	,	86396	,	-23133	,	-20838	,	-27.400677	,	0
30,24	,	86428	,	-23120	,	-20845	,	-27.123535	,	0
30,24	,	86444	,	-23111	,	-20837	,	-26.134487	,	0
30,24	,	86460	,	-23096	,	-20831	,	-23.954365	,	0
30,24	,	86491	,	-23082	,	-20830	,	-20.221552	,	2
30,24	,	86508	,	-23058	,	-20816	,	-14.772846	,	5
30,25	,	86524	,	-23065	,	-20813	,	-7.7384787	,	10
30,25	,	86556	,	-23045	,	-20812	,	0.3111248	,	17
30,25	,	86571	,	-23038	,	-20805	,	8.577501	,	25
30,25	,	86603	,	-23022	,	-20803	,	16.395044	,	33
30,25	,	86620	,	-23016	,	-20792	,	23.302864	,	40
30,25	,	86636	,	-23020	,	-20794	,	28.914463	,	46
30,25	,	86668	,	-22990	,	-20788	,	32.941483	,	51
30,25	,	86683	,	-23002	,	-20783	,	35.380398	,	53
30,25	,	86699	,	-22983	,	-20778	,	36.403946	,	52
30,25	,	86731	,	-22985	,	-20776	,	36.199974	,	48
30,25	,	86747	,	-22984	,	-20779	,	34.970013	,	41
30,25	,	86780	,	-22986	,	-20776	,	32.84005	,	33
30,25	,	86796	,	-22983	,	-20779	,	29.892614	,	25
30,25	,	86812	,	-22975	,	-20773	,	26.339863	,	18
30,25	,	86843	,	-22981	,	-20785	,	22.529432	,	12
30,25	,	86859	,	-22978	,	-20765	,	18.753448	,	7
30,25	,	86875	,	-22991	,	-20773	,	15.118897	,	3
30,25	,	86907	,	-23002	,	-20769	,	11.525703	,	1
30,25	,	86924	,	-23002	,	-20783	,	7.770294	,	0
30,25	,	86955	,	-22994	,	-20772	,	3.867272	,	0
30,25	,	86971	,	-23010	,	-20773	,	0.121490955	,	0
30,25	,	86987	,	-22999	,	-20782	,	-3.1666806	,	0
30,25	,	87019	,	-23013	,	-20773	,	-5.8236904	,	0
30,25	,	87035	,	-23019	,	-20782	,	-7.8388333	,	0
30,25	,	87051	,	-23024	,	-20785	,	-9.398186	,	0
30,25	,	87084	,	-23035	,	-20796	,	-10.736364	,	0
30,25	,	87100	,	-23031	,	-20780	,	-11.994845	,	0
30,25	,	87116	,	-23039	,	-20799	,	-13.158922	,	0
30,25	,	87147	,	-23052	,	-20798	,	-14.17588	,	0
30,25	,	87163	,	-23054	,	-20800	,	-15.118002	,	0
30,25	,	87195	,	-23067	,	-20809	,	-16.097322	,	0
30,25	,	87211	,	-23067	,	-20810	,	-17.150991	,	0
30,25	,	87227	,	-23080	,	-20812	,	-18.23827	,	0
30,25	,	87259	,	-23080	,	-20813	,	-19.278404	,	0
30,25	,	87275	,	-23090	,	-20818	,	-20.18335	,	0
30,25	,	87291	,	-23093	,	-20821	,	-20.873348	,	0
30,25	,	87323	,	-23094	,	-20831	,	-21.27076	,	0
30,25	,	87339	,	-23095	,	-20812	,	-21.262447	,	0
30,25	,	87371	,	-23082	,	-20817	,	-20.663261	,	0
30,25	,	87387	,	-23060	,	-20818	,	-19.128838	,	0
30,25	,	87403	,	-23051	,	-20803	,	-16.195444	,	1
30,25	,	87435	,	-23034	,	-20802	,	-11.584484	,	3
30,25	,	87451	,	-23017	,	-20794	,	-5.3704014	,	7
30,25	,	87467	,	-23008	,	-20799	,	2.0918226	,	13
30,25	,	87499	,	-22997	,	-20799	,	10.20397	,	20
30,25	,	87515	,	-22994	,	-20791	,	18.184214	,	28
30,26	,	87531	,	-22987	,	-20784	,	25.229445	,	35
30,26	,	87563	,	-22965	,	-20806	,	30.78374	,	42
30,26	,	87579	,	-22969	,	-20758	,	34.695957	,	47
30,26	,	87611	,	-22958	,	-20786	,	37.009254	,	49
30,26	,	87627	,	-22958	,	-20771	,	37.782166	,	49
30,26	,	87643	,	-22949	,	-20778	,	37.15161	,	45
30,26	,	87675	,	-22940	,	-20772	,	35.406372	,	39
30,26	,	87691	,	-22945	,	-20769	,	32.929077	,	32
30,26	,	87707	,	-22949	,	-20782	,	29.95796	,	24
30,26	,	87739	,	-22946	,	-20774	,	26.530176	,	17
30,26	,	87755	,	-22953	,	-20777	,	22.689075	,	10
30,26	,	87787	,	-22945	,	-20785	,	18.589596	,	5
30,26	,	87803	,	-22952	,	-20785	,	14.4778385	,	2
30,26	,	87819	,	-22954	,	-20763	,	10.584313	,	0
30,26	,	87851	,	-22958	,	-20774	,	7.020894	,	0
30,26	,	87867	,	-22964	,	-20776	,	3.801097	,	0
30,26	,	87883	,	-22974	,	-20775	,	0.8531842	,	0
30,26	,	87915	,	-22969	,	-20772	,	-1.9171124	,	0
30,26	,	87931	,	-22975	,	-20785	,	-4.4761734	,	0
30,26	,	87947	,	-22977	,	-20778	,	-6.6872754	,	0
30,26	,	87979	,	-22979	,	-20789	,	-8.44087	,	0
30,26	,	87995	,	-22978	,	-20787	,	-9.663364	,	0
30,26	,	88027	,	-22998	,	-20790	,	-10.389143	,	0
30,26	,	88043	,	-22995	,	-20802	,	-10.857937	,	0
30,26	,	88059	,	-23003	,	-20781	,	-11.329706	,	0
30,26	,	88091	,	-23009	,	-20803	,	-11.913126	,	0
30,26	,	88107	,	-23018	,	-20802	,	-12.654699	,	0
30,26	,	88123	,	-23031	,	-20810	,	-13.629528	,	0
30,26	,	88155	,	-23034	,	-20822	,	-14.912703	,	0
30,26	,	88171	,	-23038	,	-20830	,	-16.449364	,	0
30,26	,	88203	,	-23052	,	-20822	,	-18.053047	,	0
30,26	,	88219	,	-23047	,	-20827	,	-19.543716	,	0
30,26	,	88235	,	-23034	,	-20826	,	-20.63808	,	0
30,26	,	88267	,	-23036	,	-20824	,	-20.866604	,	0
30,26	,	88283	,	-23025	,	-20837	,	-19.84614	,	0
30,26	,	88299	,	-23023	,	-20807	,	-17.474705	,	1
30,26	,	88331	,	-23001	,	-20817	,	-13.8278	,	3
30,26	,	88347	,	-23001	,	-20815	,	-9.042208	,	6
30,26	,	88363	,	-22992	,	-20814	,	-3.4021282	,	10
30,26	,	88395	,	-22982	,	-20807	,	2.6251473	,	15
30,26	,	88411	,	-22979	,	-20802	,	8.545376	,	21
30,26	,	88443	,	-22967	,	-20802	,	13.931224	,	26
30,26	,	88459	,	-22971	,	-20797	,	18.431005	,	31
30,26	,	88475	,	-22979	,	-20810	,	21.687	,	35
30,26	,	88507	,	-22975	,	-20808	,	23.327291	,	37
30,27	,	88523	,	-22985	,	-20811	,	23.16743	,	36
30,27	,	88539	,	-22974	,	-20783	,	21.337101	,	33
30,27	,	88571	,	-22981	,	-20803	,	18.257904	,	29
30,27	,	88587	,	-22981	,	-20795	,	14.478535	,	24
30,27	,	88619	,	-22981	,	-20802	,	10.483227	,	18
30,27	,	88635	,	-22995	,	-20814	,	6.6029873	,	13
30,27	,	88651	,	-22995	,	-20816	,	2.9576406	,	8
30,27	,	88683	,	-23005	,	-20820	,	-0.4628048	,	4
30,27	,	88698	,	-23011	,	-20816	,	-3.683678	,	1
30,27	,	88715	,	-23014	,	-20815	,	-6.7112093	,	0
30,27	,	88746	,	-23019	,	-20822	,	-9.47311	,	0
30,27	,	88762	,	-23024	,	-20838	,	-11.845142	,	0
30,27	,	88778	,	-23026	,	-20814	,	-13.734742	,	0
30,27	,	88811	,	-23035	,	-20834	,	-15.109091	,	0
30,27	,	88827	,	-23044	,	-20826	,	-16.041243	,	0
30,27	,	88859	,	-23050	,	-20824	,	-16.709673	,	0
30,27	,	88875	,	-23057	,	-20827	,	-17.286983	,	0
30,27	,	88891	,	-23064	,	-20841	,	-17.867682	,	0
30,27	,	88923	,	-23063	,	-20839	,	-18.449251	,	0
30,27	,	88939	,	-23070	,	-20839	,	-18.922558	,	0
30,27	,	88954	,	-23074	,	-20841	,	-19.166515	,	0
30,27	,	88986	,	-23073	,	-20847	,	-19.117882	,	0
30,27	,	89002	,	-23091	,	-20858	,	-18.78791	,	0
30,27	,	89035	,	-23095	,	-20830	,	-18.34981	,	0
30,27	,	89051	,	-23093	,	-20850	,	-18.010925	,	0
30,27	,	89066	,	-23077	,	-20836	,	-17.672554	,	0
30,27	,	89098	,	-23073	,	-20838	,	-16.886335	,	0
30,27	,	89114	,	-23056	,	-20841	,	-15.142185	,	0
30,27	,	89130	,	-23031	,	-20823	,	-12.019429	,	1
30,27	,	89162	,	-23029	,	-20827	,	-7.259453	,	4
30,27	,	89178	,	-23032	,	-20818	,	-1.1025534	,	8
30,27	,	89211	,	-23023	,	-20813	,	5.629749	,	14
30,27	,	89227	,	-23006	,	-20812	,	12.07402	,	20
30,27	,	89243	,	-22990	,	-20818	,	17.804335	,	26
30,27	,	89275	,	-22979	,	-20788	,	22.780134	,	31
30,27	,	89290	,	-22980	,	-20798	,	27.000708	,	35
30,27	,	89307	,	-22981	,	-20794	,	30.241129	,	39
30,27	,	89338	,	-22978	,	-20791	,	32.12536	,	41
30,27	,	89354	,	-22975	,	-20791	,	32.425575	,	39
30,27	,	89370	,	-22980	,	-20790	,	31.179829	,	35
30,27	,	89403	,	-22977	,	-20786	,	28.588861	,	29
30,27	,	89419	,	-22974	,	-20786	,	24.987442	,	23
30,27	,	89450	,	-22976	,	-20791	,	20.83178	,	17
30,27	,	89466	,	-22975	,	-20784	,	16.560005	,	12
30,27	,	89483	,	-22976	,	-20795	,	12.498548	,	8
30,27	,	89515	,	-22990	,	-20786	,	8.801709	,	4
30,28	,	89531	,	-22992	,	-20786	,	5.3973293	,	1
30,28	,	89546	,	-22997	,	-20792	,	2.1422782	,	0
30,28	,	89578	,	-23000	,	-20791	,	-0.98178816	,	0
30,28	,	89594	,	-23010	,	-20790	,	-3.9123497	,	0
30,28	,	89626	,	-23001	,	-20799	,	-6.562236	,	0
30,28	,	89642	,	-23020	,	-20793	,	-8.807706	,	0
30,28	,	89658	,	-23024	,	-20800	,	-10.64526	,	0
30,28	,	89690	,	-23024	,	-20808	,	-12.204939	,	0
30,28	,	89707	,	-23029	,	-20811	,	-13.515247	,	0
30,28	,	89722	,	-23045	,	-20816	,	-14.561177	,	0
30,28	,	89754	,	-23045	,	-20807	,	-15.462294	,	0
30,28	,	89770	,	-23071	,	-20821	,	-16.424446	,	0
30,28	,	89786	,	-23061	,	-20828	,	-17.62487	,	0
30,28	,	89818	,	-23067	,	-20819	,	-19.010117	,	0
30,28	,	89834	,	-23078	,	-20822	,	-20.30321	,	0
30,28	,	89866	,	-23083	,	-20828	,	-21.317307	,	0
30,28	,	89882	,	-23086	,	-20823	,	-22.009949	,	0
30,28	,	89898	,	-23101	,	-20832	,	-22.388557	,	0
30,28	,	89930	,	-23110	,	-20840	,	-22.579811	,	0
30,28	,	89946	,	-23105	,	-20844	,	-22.73093	,	0
30,28	,	89962	,	-23114	,	-20852	,	-22.793648	,	0
30,28	,	89994	,	-23104	,	-20847	,	-22.558205	,	0
30,28	,	90010	,	-23067	,	-20835	,	-21.586945	,	0
30,28	,	90042	,	-23075	,	-20835	,	-19.196915	,	0
30,28	,	90058	,	-23052	,	-20830	,	-14.979875	,	2
30,28	,	90074	,	-23049	,	-20831	,	-9.090119	,	6
30,28	,	90106	,	-23034	,	-20822	,	-2.0254402	,	11
30,28	,	90122	,	-23025	,	-20820	,	5.5681667	,	18
30,28	,	90139	,	-23015	,	-20820	,	13.042212	,	25
30,28	,	90170	,	-23004	,	-20804	,	19.854637	,	32
30,28	,	90186	,	-22996	,	-20805	,	25.621347	,	38
30,28	,	90202	,	-22979	,	-20808	,	30.155878	,	43
30,28	,	90234	,	-22979	,	-20801	,	33.44413	,	47
30,28	,	90250	,	-22979	,	-20808	,	35.469128	,	48
30,28	,	90282	,	-22971	,	-20802	,	36.135612	,	46
30,28	,	90298	,	-22968	,	-20804	,	35.460655	,	41
30,28	,	90314	,	-22966	,	-20808	,	33.64772	,	34
30,28	,	90346	,	-22970	,	-20803	,	30.93714	,	27
30,28	,	90362	,	-22972	,	-20801	,	27.501032	,	20
30,28	,	90378	,	-22970	,	-20796	,	23.495308	,	14
30,28	,	90410	,	-22980	,	-20805	,	19.118542	,	9
30,28	,	90426	,	-22975	,	-20812	,	14.5826025	,	5
30,28	,	90458	,	-22984	,	-20801	,	10.106461	,	2
30,28	,	90474	,	-23002	,	-20814	,	5.803376	,	0
30,28	,	90490	,	-23011	,	-20822	,	1.5395212	,	0
30,29	,	90522	,	-23014	,	-20822	,	-2.8551168	,	0
30,29	,	90538	,	-23023	,	-20831	,	-7.3082924	,	0
30,29	,	90554	,	-23030	,	-20833	,	-11.573104	,	0
30,29	,	90586	,	-23037	,	-20835	,	-15.410406	,	0
30,29	,	90602	,	-23044	,	-20840	,	-18.649029	,	0
30,29	,	90618	,	-23055	,	-20846	,	-21.212826	,	0
30,29	,	90650	,	-23064	,	-20841	,	-23.152317	,	0
30,29	,	90666	,	-23068	,	-20852	,	-24.577465	,	0
30,29	,	90698	,	-23076	,	-20841	,	-25.545086	,	0
30,29	,	90714	,	-23078	,	-20852	,	-26.051071	,	0
30,29	,	90730	,	-23092	,	-20864	,	-26.11465	,	0
30,29	,	90762	,	-23110	,	-20851	,	-25.91784	,	0
30,29	,	90778	,	-23102	,	-20861	,	-25.742472	,	0
30,29	,	90794	,	-23106	,	-20859	,	-25.623436	,	0
30,29	,	90826	,	-23121	,	-20864	,	-25.367142	,	0
30,29	,	90842	,	-23126	,	-20866	,	-24.9262	,	0
30,29	,	90874	,	-23143	,	-20873	,	-24.46695	,	0
30,29	,	90890	,	-23145	,	-20881	,	-24.197735	,	0
30,29	,	90906	,	-23155	,	-20878	,	-24.215908	,	0
30,29	,	90937	,	-23174	,	-20875	,	-24.529585	,	0
30,29	,	90954	,	-23175	,	-20884	,	-25.172092	,	0
30,29	,	90970	,	-23165	,	-20887	,	-25.998566	,	0
30,29	,	91002	,	-23160	,	-20885	,	-26.476315	,	0
30,29	,	91018	,	-23153	,	-20873	,	-25.947165	,	0
30,29	,	91050	,	-23139	,	-20874	,	-23.955444	,	0
30,29	,	91066	,	-23123	,	-20877	,	-20.268898	,	1
30,29	,	91082	,	-23112	,	-20872	,	-14.85216	,	4
30,29	,	91113	,	-23111	,	-20861	,	-8.001187	,	9
30,29	,	91130	,	-23095	,	-20856	,	-0.36796284	,	15
30,29	,	91146	,	-23087	,	-20867	,	7.3207655	,	22
30,29	,	91178	,	-23087	,	-20856	,	14.450489	,	29
30,29	,	91194	,	-23079	,	-20852	,	20.468235	,	36
30,29	,	91210	,	-23070	,	-20846	,	24.981947	,	42
30,29	,	91242	,	-23070	,	-20848	,	27.883131	,	46
30,29	,	91258	,	-23072	,	-20851	,	29.201012	,	47
30,29	,	91289	,	-23083	,	-20839	,	28.922009	,	45
30,29	,	91305	,	-23084	,	-20851	,	27.013718	,	40
30,29	,	91322	,	-23069	,	-20851	,	23.67958	,	34
30,29	,	91354	,	-23086	,	-20848	,	19.454609	,	27
30,29	,	91370	,	-23082	,	-20848	,	14.87252	,	20
30,29	,	91385	,	-23086	,	-20863	,	10.28863	,	13
30,29	,	91417	,	-23087	,	-20847	,	5.9955425	,	7
30,29	,	91434	,	-23101	,	-20860	,	2.1693215	,	3
30,29	,	91465	,	-23091	,	-20860	,	-1.1651154	,	1
30,29	,	91481	,	-23110	,	-20861	,	-4.0110097	,	0
30,29	,	91497	,	-23114	,	-20858	,	-6.4454703	,	0
30,30	,	91530	,	-23120	,	-20858	,	-8.64304	,	0
30,30	,	91546	,	-23127	,	-20855	,	-10.712035	,	0
30,30	,	91562	,	-23120	,	-20869	,	-12.604329	,	0
30,30	,	91594	,	-23126	,	-20867	,	-14.114416	,	0
30,30	,	91609	,	-23146	,	-20867	,	-15.10575	,	0
30,30	,	91625	,	-23141	,	-20877	,	-15.731394	,	0
30,30	,	91657	,	-23152	,	-20859	,	-16.21035	,	0
30,30	,	91673	,	-23154	,	-20865	,	-16.625212	,	0
30,30	,	91705	,	-23164	,	-20868	,	-17.00064	,	0
30,30	,	91722	,	-23171	,	-20888	,	-17.379425	,	0
30,30	,	91737	,	-23179	,	-20888	,	-17.833204	,	0
30,30	,	91769	,	-23181	,	-20881	,	-18.39337	,	0
30,30	,	91786	,	-23192	,	-20893	,	-19.005768	,	0
30,30	,	91802	,	-23193	,	-20888	,	-19.588354	,	0
30,30	,	91834	,	-23210	,	-20888	,	-20.105238	,	0
30,30	,	91849	,	-23201	,	-20887	,	-20.55521	,	0
30,30	,	91881	,	-23201	,	-20911	,	-20.803665	,	0
30,30	,	91897	,	-23228	,	-20899	,	-20.686935	,	0
30,30	,	91913	,	-23227	,	-20896	,	-20.35972	,	0
30,30	,	91945	,	-23216	,	-20898	,	-20.034725	,	0
30,30	,	91961	,	-23216	,	-20893	,	-19.533512	,	0
30,30	,	91977	,	-23196	,	-20880	,	-18.417122	,	0
30,30	,	92009	,	-23181	,	-20867	,	-16.20337	,	1
30,30	,	92026	,	-23171	,	-20873	,	-12.504909	,	3
30,30	,	92041	,	-23168	,	-20864	,	-7.309635	,	6
30,30	,	92073	,	-23158	,	-20869	,	-1.0738254	,	11
30,30	,	92089	,	-23146	,	-20858	,	5.55028	,	17
30,30	,	92121	,	-23137	,	-20871	,	12.006848	,	23
30,30	,	92137	,	-23126	,	-20840	,	17.901623	,	29
30,30	,	92153	,	-23119	,	-20851	,	22.960608	,	34
30,30	,	92185	,	-23114	,	-20845	,	26.980358	,	39
30,30	,	92201	,	-23108	,	-20850	,	29.800022	,	42
30,30	,	92217	,	-23102	,	-20845	,	31.348373	,	42
30,30	,	92249	,	-23100	,	-20848	,	31.676216	,	40
30,30	,	92265	,	-23105	,	-20835	,	30.871416	,	35
30,30	,	92297	,	-23092	,	-20842	,	29.043308	,	29
30,30	,	92313	,	-23098	,	-20846	,	26.429665	,	23
30,30	,	92329	,	-23105	,	-20844	,	23.282005	,	17
30,30	,	92361	,	-23104	,	-20853	,	19.710358	,	12
30,30	,	92377	,	-23104	,	-20839	,	15.83497	,	7
30,30	,	92393	,	-23104	,	-20853	,	11.904356	,	3
30,30	,	92425	,	-23106	,	-20847	,	8.194209	,	1
30,30	,	92441	,	-23111	,	-20855	,	4.8870955	,	0
30,30	,	92473	,	-23130	,	-20859	,	1.954154	,	0
30,30	,	92490	,	-23120	,	-20858	,	-0.80240417	,	0
30,30	,	92505	,	-23125	,	-20854	,	-3.4358385	,	0
30,31	,	92537	,	-23134	,	-20860	,	-5.8034067	,	0
30,31	,	92553	,	-23139	,	-20857	,	-7.843304	,	0
30,31	,	92569	,	-23135	,	-20853	,	-9.569918	,	0
30,31	,	92601	,	-23142	,	-20869	,	-10.919227	,	0
30,31	,	92617	,	-23152	,	-20850	,	-11.863867	,	0
30,31	,	92633	,	-23160	,	-20861	,	-12.556547	,	0
30,31	,	92665	,	-23163	,	-20865	,	-13.211863	,	0
30,31	,	92681	,	-23159	,	-20865	,	-13.88344	,	0
30,31	,	92713	,	-23166	,	-20869	,	-14.425144	,	0
30,31	,	92729	,	-23185	,	-20867	,	-14.757457	,	0
30,31	,	92745	,	-23189	,	-20872	,	-15.077547	,	0
30,31	,	92777	,	-23187	,	-20882	,	-15.601088	,	0
30,31	,	92793	,	-23190	,	-20883	,	-16.253817	,	0
30,31	,	92809	,	-23195	,	-20875	,	-16.795479	,	0
30,31	,	92841	,	-23190	,	-20887	,	-17.021791	,	0
30,31	,	92857	,	-23199	,	-20873	,	-16.790215	,	0
30,31	,	92889	,	-23176	,	-20869	,	-15.97671	,	0
30,31	,	92905	,	-23153	,	-20867	,	-14.26717	,	0
30,31	,	92921	,	-23148	,	-20857	,	-11.169323	,	1
30,31	,	92953	,	-23144	,	-20856	,	-6.5195274	,	4
30,31	,	92969	,	-23139	,	-20858	,	-0.74940634	,	8
30,31	,	92985	,	-23122	,	-20859	,	5.451265	,	13
30,31	,	93017	,	-23116	,	-20850	,	11.531753	,	19
30,31	,	93033	,	-23110	,	-20853	,	17.100847	,	25
30,31	,	93049	,	-23097	,	-20847	,	21.837372	,	30
30,31	,	93081	,	-23105	,	-20860	,	25.49826	,	34
30,31	,	93097	,	-23092	,	-20835	,	27.881603	,	37
30,31	,	93129	,	-23094	,	-20854	,	28.889389	,	38
30,31	,	93145	,	-23102	,	-20846	,	28.541304	,	36
30,31	,	93161	,	-23098	,	-20841	,	26.866224	,	32
30,31	,	93193	,	-23099	,	-20842	,	24.008442	,	27
30,31	,	93209	,	-23090	,	-20835	,	20.352352	,	21
30,31	,	93225	,	-23089	,	-20839	,	16.441854	,	15
30,31	,	93257	,	-23100	,	-20840	,	12.739896	,	10
30,31	,	93273	,	-23108	,	-20844	,	9.370973	,	6
30,31	,	93305	,	-23095	,	-20842	,	6.252093	,	3
30,31	,	93321	,	-23102	,	-20864	,	3.44105	,	1
30,31	,	93337	,	-23103	,	-20839	,	1.0970578	,	0
30,31	,	93369	,	-23117	,	-20844	,	-0.7909155	,	0
30,31	,	93385	,	-23122	,	-20840	,	-2.4579675	,	0
30,31	,	93401	,	-23130	,	-20846	,	-4.190956	,	0
30,31	,	93433	,	-23127	,	-20852	,	-6.108582	,	0
30,31	,	93449	,	-23130	,	-20858	,	-8.074491	,	0
30,31	,	93465	,	-23129	,	-20850	,	-9.807922	,	0
30,31	,	93497	,	-23140	,	-20856	,	-11.09622	,	0
30,31	,	93513	,	-23144	,	-20845	,	-11.937754	,	0
30,32	,	93545	,	-23147	,	-20848	,	-12.470686	,	0
30,32	,	93561	,	-23146	,	-20865	,	-12.785679	,	0
30,32	,	93577	,	-23147	,	-20838	,	-12.852291	,	0
30,32	,	93608	,	-23160	,	-20858	,	-12.646397	,	0
30,32	,	93625	,	-23165	,	-20858	,	-12.318325	,	0
30,32	,	93640	,	-23175	,	-20861	,	-12.144659	,	0
30,32	,	93672	,	-23170	,	-20857	,	-12.300398	,	0
30,32	,	93688	,	-23172	,	-20860	,	-12.697316	,	0
30,32	,	93721	,	-23165	,	-20870	,	-13.030457	,	0
30,32	,	93737	,	-23150	,	-20857	,	-12.88324	,	0
30,32	,	93753	,	-23144	,	-20845	,	-11.799936	,	0
30,32	,	93784	,	-23130	,	-20844	,	-9.461777	,	1
30,32	,	93801	,	-23130	,	-20853	,	-5.857856	,	3
30,32	,	93817	,	-23115	,	-20829	,	-1.2810068	,	6
30,32	,	93849	,	-23099	,	-20838	,	3.8925953	,	10
30,32	,	93865	,	-23097	,	-20828	,	9.358455	,	15
30,32	,	93880	,	-23103	,	-20826	,	14.680109	,	20
30,32	,	93912	,	-23092	,	-20829	,	19.220026	,	25
30,32	,	93928	,	-23091	,	-20823	,	22.4807	,	29
30,32	,	93960	,	-23087	,	-20829	,	24.297161	,	32
30,32	,	93976	,	-23086	,	-20833	,	24.731077	,	32
30,32	,	93993	,	-23088	,	-20822	,	23.948275	,	30
30,32	,	94025	,	-23081	,	-20823	,	22.175507	,	27
30,32	,	94041	,	-23081	,	-20848	,	19.731123	,	23
30,32	,	94057	,	-23072	,	-20814	,	17.011517	,	18
30,32	,	94088	,	-23080	,	-20825	,	14.36936	,	13
30,32	,	94104	,	-23084	,	-20818	,	11.946354	,	8
30,32	,	94136	,	-23082	,	-20830	,	9.675838	,	4
30,32	,	94152	,	-23085	,	-20818	,	7.489597	,	1
30,32	,	94168	,	-23091	,	-20821	,	5.380376	,	0
30,32	,	94200	,	-23099	,	-20827	,	3.2917504	,	0
30,32	,	94216	,	-23108	,	-20825	,	1.0820534	,	0
30,32	,	94232	,	-23095	,	-20837	,	-1.3041718	,	0
30,32	,	94264	,	-23101	,	-20834	,	-3.637309	,	0
30,32	,	94280	,	-23104	,	-20857	,	-5.5784354	,	0
30,32	,	94312	,	-23117	,	-20829	,	-7.0322113	,	0
30,32	,	94328	,	-23133	,	-20846	,	-8.244467	,	0
30,32	,	94344	,	-23138	,	-20838	,	-9.62328	,	0
30,32	,	94376	,	-23143	,	-20845	,	-11.415844	,	0
30,32	,	94392	,	-23154	,	-20841	,	-13.576643	,	0
30,32	,	94408	,	-23157	,	-20856	,	-15.911797	,	0
30,32	,	94440	,	-23156	,	-20845	,	-18.148052	,	0
30,32	,	94456	,	-23170	,	-20856	,	-19.981092	,	0
30,32	,	94472	,	-23165	,	-20845	,	-21.21841	,	0
30,32	,	94504	,	-23166	,	-20854	,	-21.744083	,	0
30,33	,	94520	,	-23173	,	-20863	,	-21.474293	,	0
30,33	,	94552	,	-23168	,	-20847	,	-20.45118	,	0
30,33	,	94569	,	-23141	,	-20836	,	-18.658401	,	1
30,33	,	94584	,	-23139	,	-20837	,	-15.823528	,	2
30,33	,	94616	,	-23115	,	-20833	,	-11.665487	,	4
30,33	,	94632	,	-23112	,	-20827	,	-6.1624985	,	8
30,33	,	94648	,	-23100	,	-20825	,	0.3823657	,	13
30,33	,	94680	,	-23099	,	-20827	,	7.3672256	,	19
30,33	,	94696	,	-23078	,	-20818	,	14.118008	,	25
30,33	,	94728	,	-23070	,	-20806	,	20.180992	,	31
30,33	,	94744	,	-23066	,	-20801	,	25.317749	,	37
30,33	,	94760	,	-23064	,	-20818	,	29.283731	,	41
30,33	,	94792	,	-23062	,	-20795	,	31.805183	,	43
30,33	,	94808	,	-23056	,	-20812	,	32.7418	,	43
30,33	,	94824	,	-23052	,	-20799	,	32.187065	,	39
30,33	,	94856	,	-23058	,	-20804	,	30.388283	,	34
30,33	,	94872	,	-23059	,	-20809	,	27.567799	,	28
30,33	,	94888	,	-23058	,	-20805	,	23.920826	,	22
30,33	,	94920	,	-23062	,	-20801	,	19.725698	,	16
30,33	,	94936	,	-23064	,	-20803	,	15.304055	,	10
30,33	,	94968	,	-23054	,	-20812	,	10.982358	,	5
30,33	,	94984	,	-23052	,	-20809	,	7.1549053	,	2
30,33	,	95000	,	-23055	,	-20807	,	4.172127	,	0
30,33	,	95032	,	-23053	,	-20802	,	2.1405644	,	0
30,33	,	95048	,	-23066	,	-20810	,	0.8963027	,	0
30,33	,	95064	,	-23070	,	-20814	,	0.06759012	,	0
30,33	,	95096	,	-23077	,	-20808	,	-0.77285516	,	0
30,33	,	95112	,	-23083	,	-20813	,	-1.9202781	,	0
30,33	,	95144	,	-23090	,	-20811	,	-3.4999223	,	0
30,33	,	95160	,	-23102	,	-20820	,	-5.5329266	,	0
30,33	,	95176	,	-23093	,	-20818	,	-7.9174404	,	0
30,33	,	95208	,	-23100	,	-20829	,	-10.337613	,	0
30,33	,	95224	,	-23107	,	-20824	,	-12.42354	,	0
30,33	,	95240	,	-23121	,	-20832	,	-14.063759	,	0
30,33	,	95272	,	-23135	,	-20831	,	-15.457964	,	0
30,33	,	95288	,	-23135	,	-20833	,	-16.881521	,	0
30,33	,	95304	,	-23142	,	-20837	,	-18.4043	,	0
30,33	,	95336	,	-23156	,	-20845	,	-19.916973	,	0
30,33	,	95352	,	-23153	,	-20851	,	-21.311981	,	0
30,33	,	95384	,	-23168	,	-20846	,	-22.483652	,	0
30,33	,	95400	,	-23169	,	-20847	,	-23.349613	,	0
30,33	,	95416	,	-23168	,	-20851	,	-23.845177	,	0
30,33	,	95448	,	-23172	,	-20849	,	-23.835762	,	0
30,33	,	95464	,	-23158	,	-20843	,	-23.134403	,	0
30,33	,	95480	,	-23148	,	-20849	,	-21.484983	,	0
30,33	,	95512	,	-23134	,	-20850	,	-18.581284	,	1
30,34	,	95528	,	-23103	,	-20837	,	-14.14776	,	3
30,34	,	95560	,	-23090	,	-20828	,	-7.974926	,	7
30,34	,	95576	,	-23090	,	-20830	,	-0.20296764	,	13
30,34	,	95592	,	-23076	,	-20829	,	8.438866	,	20
30,34	,	95624	,	-23070	,	-20832	,	16.952127	,	28
30,34	,	95640	,	-23060	,	-20813	,	24.49221	,	36
30,34	,	95656	,	-23043	,	-20812	,	30.548023	,	43
30,34	,	95688	,	-23032	,	-20818	,	35.003166	,	49
30,34	,	95704	,	-23028	,	-20807	,	37.97928	,	52
30,34	,	95736	,	-23029	,	-20802	,	39.553146	,	52
30,34	,	95752	,	-23024	,	-20802	,	39.686607	,	49
30,34	,	95768	,	-23031	,	-20811	,	38.34868	,	43
30,34	,	95800	,	-23024	,	-20810	,	35.611843	,	36
30,34	,	95816	,	-23027	,	-20796	,	31.71812	,	28
30,34	,	95832	,	-23036	,	-20793	,	27.012585	,	20
30,34	,	95864	,	-23025	,	-20805	,	21.834734	,	13
30,34	,	95879	,	-23023	,	-20801	,	16.625225	,	7
30,34	,	95896	,	-23029	,	-20809	,	11.879284	,	3
30,34	,	95928	,	-23034	,	-20813	,	7.849638	,	1
30,34	,	95944	,	-23033	,	-20809	,	4.5166874	,	0
30,34	,	95976	,	-23043	,	-20800	,	1.7621636	,	0
30,34	,	95992	,	-23042	,	-20815	,	-0.56418014	,	0
30,34	,	96008	,	-23051	,	-20810	,	-2.6026611	,	0
30,34	,	96040	,	-23061	,	-20808	,	-4.4892006	,	0
30,34	,	96055	,	-23076	,	-20817	,	-6.4339414	,	0
30,34	,	96071	,	-23083	,	-20811	,	-8.679905	,	0
30,34	,	96103	,	-23098	,	-20822	,	-11.373271	,	0
30,34	,	96119	,	-23101	,	-20827	,	-14.490126	,	0
30,34	,	96152	,	-23105	,	-20827	,	-17.786217	,	0
30,34	,	96168	,	-23111	,	-20830	,	-20.846811	,	0
30,34	,	96184	,	-23127	,	-20852	,	-23.341925	,	0
30,34	,	96216	,	-23120	,	-20832	,	-25.152012	,	0
30,34	,	96232	,	-23144	,	-20849	,	-26.266846	,	0
30,34	,	96247	,	-23145	,	-20848	,	-26.812256	,	0
30,34	,	96279	,	-23149	,	-20843	,	-26.985554	,	0
30,34	,	96295	,	-23163	,	-20850	,	-26.888113	,	0
30,34	,	96311	,	-23177	,	-20850	,	-26.657894	,	0
30,34	,	96343	,	-23190	,	-20850	,	-26.573278	,	0
30,34	,	96359	,	-23185	,	-20859	,	-26.812807	,	0
30,34	,	96391	,	-23188	,	-20860	,	-27.201979	,	0
30,34	,	96408	,	-23192	,	-20865	,	-27.340923	,	0
30,34	,	96424	,	-23201	,	-20876	,	-26.962593	,	0
30,34	,	96456	,	-23194	,	-20856	,	-26.015617	,	0
30,34	,	96471	,	-23172	,	-20862	,	-24.370497	,	0
30,34	,	96487	,	-23158	,	-20854	,	-21.616108	,	1
30,34	,	96519	,	-23139	,	-20852	,	-17.286873	,	3
30,35	,	96535	,	-23146	,	-20848	,	-11.293563	,	7
30,35	,	96567	,	-23127	,	-20848	,	-4.111704	,	12
30,35	,	96583	,	-23118	,	-20838	,	3.5302267	,	19
30,35	,	96600	,	-23103	,	-20831	,	11.041284	,	26
30,35	,	96631	,	-23103	,	-20829	,	17.96399	,	33
30,35	,	96647	,	-23078	,	-20830	,	23.922863	,	39
30,35	,	96663	,	-23073	,	-20840	,	28.765514	,	44
30,35	,	96695	,	-23074	,	-20812	,	32.465504	,	47
30,35	,	96711	,	-23071	,	-20816	,	34.856956	,	48
30,35	,	96743	,	-23076	,	-20829	,	35.68711	,	46
30,35	,	96759	,	-23080	,	-20822	,	34.786507	,	41
30,35	,	96775	,	-23078	,	-20819	,	32.164387	,	34
30,35	,	96807	,	-23091	,	-20815	,	28.048239	,	27
30,35	,	96823	,	-23078	,	-20822	,	22.84183	,	20
30,35	,	96839	,	-23072	,	-20812	,	17.181152	,	14
30,35	,	96871	,	-23087	,	-20817	,	11.788712	,	9
30,35	,	96887	,	-23072	,	-20816	,	7.1271305	,	5
30,35	,	96903	,	-23084	,	-20828	,	3.4104986	,	2
30,35	,	96935	,	-23087	,	-20805	,	0.66652393	,	0
30,35	,	96951	,	-23093	,	-20816	,	-1.3149188	,	0
30,35	,	96983	,	-23099	,	-20821	,	-2.8474445	,	0
30,35	,	96999	,	-23103	,	-20823	,	-4.205478	,	0
30,35	,	97015	,	-23104	,	-20818	,	-5.5450706	,	0
30,35	,	97047	,	-23111	,	-20824	,	-6.8824196	,	0
30,35	,	97063	,	-23118	,	-20820	,	-8.203395	,	0
30,35	,	97079	,	-23130	,	-20819	,	-9.568633	,	0
30,35	,	97111	,	-23128	,	-20819	,	-11.051374	,	0
30,35	,	97127	,	-23138	,	-20829	,	-12.6087	,	0
30,35	,	97159	,	-23146	,	-20837	,	-14.143393	,	0
30,35	,	97175	,	-23151	,	-20809	,	-15.617288	,	0
30,35	,	97191	,	-23169	,	-20836	,	-17.053856	,	0
30,35	,	97223	,	-23181	,	-20831	,	-18.578426	,	0
30,35	,	97239	,	-23186	,	-20837	,	-20.342499	,	0
30,35	,	97255	,	-23189	,	-20831	,	-22.292728	,	0
30,35	,	97287	,	-23206	,	-20833	,	-24.19678	,	0
30,35	,	97303	,	-23206	,	-20847	,	-25.867016	,	0
30,35	,	97319	,	-23220	,	-20843	,	-27.199032	,	0
30,35	,	97351	,	-23220	,	-20843	,	-28.116165	,	0
30,35	,	97367	,	-23233	,	-20854	,	-28.574625	,	0
30,35	,	97399	,	-23245	,	-20880	,	-28.629038	,	0
30,35	,	97415	,	-23241	,	-20849	,	-28.413128	,	0
30,35	,	97431	,	-23232	,	-20857	,	-27.87453	,	0
30,35	,	97463	,	-23211	,	-20864	,	-26.585342	,	0
30,35	,	97479	,	-23203	,	-20857	,	-23.942621	,	1
30,35	,	97495	,	-23196	,	-20842	,	-19.602638	,	3
30,36	,	97527	,	-23168	,	-20844	,	-13.625892	,	7
30,36	,	97543	,	-23176	,	-20840	,	-6.325075	,	12
30,36	,	97575	,	-23160	,	-20844	,	1.6996498	,	19
30,36	,	97591	,	-23150	,	-20843	,	9.670638	,	27
30,36	,	97607	,	-23122	,	-20839	,	17.059103	,	34
30,36	,	97639	,	-23122	,	-20838	,	23.684523	,	41
30,36	,	97655	,	-23106	,	-20815	,	29.419792	,	47
30,36	,	97671	,	-23101	,	-20817	,	34.057655	,	51
30,36	,	97703	,	-23104	,	-20817	,	37.359562	,	53
30,36	,	97719	,	-23099	,	-20824	,	39.062267	,	52
30,36	,	97751	,	-23096	,	-20815	,	39.017773	,	48
30,36	,	97767	,	-23091	,	-20815	,	37.353706	,	41
30,36	,	97783	,	-23091	,	-20815	,	34.413216	,	33
30,36	,	97815	,	-23099	,	-20814	,	30.56005	,	26
30,36	,	97831	,	-23103	,	-20820	,	26.032234	,	19
30,36	,	97847	,	-23097	,	-20820	,	21.039465	,	13
30,36	,	97879	,	-23104	,	-20817	,	15.909954	,	8
30,36	,	97895	,	-23111	,	-20805	,	10.959466	,	4
30,36	,	97910	,	-23107	,	-20816	,	6.3682327	,	1
30,36	,	97943	,	-23113	,	-20826	,	2.287085	,	0
30,36	,	97959	,	-23105	,	-20813	,	-1.102376	,	0
30,36	,	97991	,	-23108	,	-20813	,	-3.6202488	,	0
30,36	,	98007	,	-23111	,	-20811	,	-5.1819663	,	0
30,36	,	98023	,	-23106	,	-20818	,	-5.8698797	,	0
30,36	,	98055	,	-23117	,	-20820	,	-5.8781734	,	0
30,36	,	98070	,	-23124	,	-20823	,	-5.525036	,	0
30,36	,	98087	,	-23113	,	-20827	,	-5.156523	,	0
30,36	,	98119	,	-23120	,	-20830	,	-4.890068	,	0
30,36	,	98135	,	-23124	,	-20811	,	-4.691599	,	0
30,36	,	98167	,	-23137	,	-20826	,	-4.64995	,	0
30,36	,	98183	,	-23137	,	-20827	,	-4.970748	,	0
30,36	,	98199	,	-23139	,	-20833	,	-5.7490826	,	0
30,36	,	98230	,	-23151	,	-20831	,	-6.9037604	,	0
30,36	,	98247	,	-23159	,	-20843	,	-8.3564625	,	0
30,36	,	98263	,	-23169	,	-20844	,	-10.114206	,	0
30,36	,	98295	,	-23179	,	-20840	,	-12.192314	,	0
30,36	,	98311	,	-23192	,	-20849	,	-14.580666	,	0
30,36	,	98327	,	-23180	,	-20860	,	-17.141554	,	0
30,36	,	98359	,	-23190	,	-20860	,	-19.482191	,	0
30,36	,	98375	,	-23184	,	-20844	,	-21.126076	,	0
30,36	,	98406	,	-23151	,	-20841	,	-21.58715	,	0
30,36	,	98423	,	-23148	,	-20841	,	-20.247519	,	0
30,36	,	98438	,	-23146	,	-20832	,	-16.74971	,	1
30,36	,	98470	,	-23135	,	-20837	,	-11.403944	,	4
30,36	,	98486	,	-23127	,	-20830	,	-4.910836	,	9
30,36	,	98502	,	-23115	,	-20828	,	2.0338244	,	15
30,37	,	98534	,	-23113	,	-20824	,	8.8351345	,	21
30,37	,	98550	,	-23112	,	-20822	,	14.929282	,	27
30,37	,	98583	,	-23096	,	-20820	,	19.838985	,	33
30,37	,	98599	,	-23108	,	-20828	,	23.309502	,	37
30,37	,	98615	,	-23094	,	-20806	,	25.2491	,	40
30,37	,	98647	,	-23097	,	-20812	,	25.712185	,	40
30,37	,	98662	,	-23095	,	-20814	,	24.914806	,	37
30,37	,	98678	,	-23091	,	-20812	,	23.134975	,	32
30,37	,	98711	,	-23087	,	-20811	,	20.70916	,	26
30,37	,	98727	,	-23091	,	-20809	,	17.988913	,	20
30,37	,	98742	,	-23087	,	-20810	,	15.214389	,	14
30,37	,	98774	,	-23087	,	-20810	,	12.536967	,	8
30,37	,	98790	,	-23092	,	-20818	,	10.063683	,	4
30,37	,	98822	,	-23102	,	-20811	,	7.7681594	,	1
30,37	,	98838	,	-23114	,	-20821	,	5.4307446	,	0
30,37	,	98854	,	-23108	,	-20812	,	2.821146	,	0
30,37	,	98886	,	-23112	,	-20818	,	-0.020670652	,	0
30,37	,	98902	,	-23116	,	-20820	,	-2.8263543	,	0
30,37	,	98918	,	-23122	,	-20821	,	-5.369831	,	0
30,37	,	98950	,	-23134	,	-20822	,	-7.601028	,	0
30,37	,	98967	,	-23123	,	-20829	,	-9.548484	,	0
30,37	,	98998	,	-23140	,	-20829	,	-11.16039	,	0
30,37	,	99014	,	-23145	,	-20838	,	-12.4166975	,	0
30,37	,	99030	,	-23147	,	-20832	,	-13.428558	,	0
30,37	,	99062	,	-23163	,	-20835	,	-14.321221	,	0
30,37	,	99078	,	-23152	,	-20842	,	-15.159296	,	0
30,37	,	99094	,	-23170	,	-20832	,	-15.899034	,	0
30,37	,	99126	,	-23188	,	-20834	,	-16.572254	,	0
30,37	,	99142	,	-23183	,	-20834	,	-17.403162	,	0
30,37	,	99158	,	-23197	,	-20839	,	-18.494762	,	0
30,37	,	99190	,	-23197	,	-20840	,	-19.721138	,	0
30,37	,	99206	,	-23197	,	-20845	,	-20.851635	,	0
30,37	,	99238	,	-23203	,	-20850	,	-21.600353	,	0
30,37	,	99254	,	-23183	,	-20848	,	-21.662949	,	0
30,37	,	99270	,	-23161	,	-20835	,	-20.583557	,	0
30,37	,	99302	,	-23154	,	-20827	,	-17.799803	,	1
30,37	,	99318	,	-23144	,	-20820	,	-13.093337	,	3
30,37	,	99334	,	-23127	,	-20824	,	-6.752825	,	7
30,37	,	99366	,	-23113	,	-20813	,	0.71325874	,	13
30,37	,	99382	,	-23103	,	-20816	,	8.751855	,	20
30,37	,	99414	,	-23088	,	-20810	,	16.767233	,	28
30,37	,	99430	,	-23078	,	-20791	,	24.199108	,	36
30,37	,	99446	,	-23080	,	-20804	,	30.545334	,	43
30,37	,	99478	,	-23075	,	-20795	,	35.29643	,	49
30,37	,	99494	,	-23078	,	-20802	,	38.020016	,	52
30,37	,	99510	,	-23068	,	-20802	,	38.55597	,	52
30,38	,	99542	,	-23060	,	-20795	,	37.15544	,	48
30,38	,	99558	,	-23074	,	-20789	,	34.318123	,	42
30,38	,	99590	,	-23065	,	-20790	,	30.44985	,	35
30,38	,	99606	,	-23059	,	-20787	,	25.925848	,	27
30,38	,	99622	,	-23070	,	-20786	,	21.215506	,	19
30,38	,	99654	,	-23066	,	-20783	,	16.656315	,	12
30,38	,	99670	,	-23074	,	-20783	,	12.385334	,	6
30,38	,	99686	,	-23068	,	-20781	,	8.486308	,	2
30,38	,	99718	,	-23062	,	-20786	,	5.113293	,	0
30,38	,	99734	,	-23070	,	-20788	,	2.4761214	,	0
30,38	,	99750	,	-23078	,	-20777	,	0.5929699	,	0
30,38	,	99782	,	-23082	,	-20791	,	-0.8110628	,	0
30,38	,	99798	,	-23090	,	-20779	,	-2.088797	,	0
30,38	,	99830	,	-23100	,	-20794	,	-3.5183635	,	0
30,38	,	99846	,	-23100	,	-20783	,	-5.2625275	,	0
30,38	,	99862	,	-23113	,	-20785	,	-7.322643	,	0
30,38	,	99894	,	-23114	,	-20795	,	-9.592724	,	0
30,38	,	99910	,	-23125	,	-20803	,	-11.9371395	,	0
30,38	,	99926	,	-23135	,	-20802	,	-14.24749	,	0
30,38	,	99958	,	-23127	,	-20795	,	-16.414457	,	0
30,38	,	99974	,	-23136	,	-20806	,	-18.20204	,	0
30,38	,	100006	,	-23152	,	-20799	,	-19.424358	,	0
30,38	,	100022	,	-23150	,	-20810	,	-20.168072	,	0
30,38	,	100038	,	-23158	,	-20812	,	-20.589247	,	0
30,38	,	100070	,	-23183	,	-20815	,	-20.846989	,	0
30,38	,	100086	,	-23188	,	-20824	,	-21.268461	,	0
30,38	,	100102	,	-23186	,	-20829	,	-22.089756	,	0
30,38	,	100133	,	-23203	,	-20827	,	-23.19048	,	0
30,38	,	100150	,	-23191	,	-20830	,	-24.273373	,	0
30,38	,	100166	,	-23197	,	-20827	,	-24.975088	,	0
30,38	,	100198	,	-23178	,	-20835	,	-24.857294	,	0
30,38	,	100214	,	-23161	,	-20820	,	-23.427174	,	0
30,38	,	100246	,	-23150	,	-20810	,	-20.225166	,	1
30,38	,	100262	,	-23126	,	-20824	,	-15.037228	,	4
30,38	,	100277	,	-23116	,	-20800	,	-7.97933	,	9
30,38	,	100310	,	-23099	,	-20804	,	0.5181494	,	16
30,38	,	100326	,	-23086	,	-20796	,	9.771949	,	24
30,38	,	100342	,	-23066	,	-20794	,	19.050562	,	33
30,38	,	100373	,	-23054	,	-20785	,	27.744967	,	42
30,38	,	100389	,	-23050	,	-20788	,	35.33494	,	50
30,38	,	100422	,	-23044	,	-20789	,	41.29687	,	57
30,38	,	100438	,	-23032	,	-20786	,	45.22827	,	61
30,38	,	100454	,	-23032	,	-20778	,	47.018265	,	61
30,38	,	100486	,	-23029	,	-20784	,	46.770386	,	57
30,38	,	100502	,	-23022	,	-20789	,	44.70966	,	50
30,38	,	100517	,	-23027	,	-20774	,	41.188454	,	42
30,39	,	100549	,	-23022	,	-20786	,	36.611366	,	33
30,39	,	100566	,	-23024	,	-20780	,	31.384167	,	24
30,39	,	100598	,	-23025	,	-20775	,	25.902552	,	16
30,39	,	100614	,	-23029	,	-20778	,	20.481983	,	9
30,39	,	100629	,	-23025	,	-20785	,	15.3554735	,	4
30,39	,	100661	,	-23035	,	-20784	,	10.697258	,	1
30,39	,	100677	,	-23030	,	-20781	,	6.6006584	,	0
30,39	,	100694	,	-23044	,	-20781	,	3.0824451	,	0
30,39	,	100726	,	-23027	,	-20781	,	0.14213943	,	0
30,39	,	100742	,	-23047	,	-20799	,	-2.18949	,	0
30,39	,	100758	,	-23052	,	-20780	,	-4.000616	,	0
30,39	,	100790	,	-23056	,	-20796	,	-5.5570016	,	0
30,39	,	100805	,	-23069	,	-20807	,	-7.0995655	,	0
30,39	,	100838	,	-23087	,	-20801	,	-8.852201	,	0
30,39	,	100853	,	-23067	,	-20804	,	-10.952505	,	0
30,39	,	100869	,	-23086	,	-20814	,	-13.17555	,	0
30,39	,	100902	,	-23093	,	-20806	,	-15.181111	,	0
30,39	,	100917	,	-23100	,	-20813	,	-16.886238	,	0
30,39	,	100933	,	-23106	,	-20822	,	-18.33253	,	0
30,39	,	100965	,	-23108	,	-20818	,	-19.502449	,	0
30,39	,	100981	,	-23117	,	-20837	,	-20.340832	,	0
30,39	,	101013	,	-23129	,	-20810	,	-20.868927	,	0
30,39	,	101030	,	-23152	,	-20831	,	-21.314035	,	0
30,39	,	101045	,	-23152	,	-20836	,	-22.02824	,	0
30,39	,	101077	,	-23161	,	-20846	,	-23.16769	,	0
30,39	,	101093	,	-23156	,	-20839	,	-24.518782	,	0
30,39	,	101109	,	-23169	,	-20843	,	-25.672604	,	0
30,39	,	101141	,	-23163	,	-20851	,	-26.281162	,	0
30,39	,	101157	,	-23173	,	-20840	,	-26.151524	,	0
30,39	,	101173	,	-23166	,	-20853	,	-25.226288	,	0
30,39	,	101205	,	-23147	,	-20841	,	-23.4272	,	0
30,39	,	101221	,	-23127	,	-20849	,	-20.447445	,	1
30,39	,	101253	,	-23117	,	-20818	,	-15.906431	,	3
30,39	,	101269	,	-23110	,	-20822	,	-9.764626	,	7
30,39	,	101285	,	-23092	,	-20820	,	-2.4244652	,	13
30,39	,	101317	,	-23075	,	-20822	,	5.5596185	,	20
30,39	,	101333	,	-23056	,	-20812	,	13.727953	,	27
30,39	,	101350	,	-23040	,	-20802	,	21.726974	,	35
30,39	,	101381	,	-23051	,	-20798	,	29.116957	,	42
30,39	,	101397	,	-23035	,	-20814	,	35.235397	,	49
30,39	,	101429	,	-23031	,	-20799	,	39.501587	,	54
30,39	,	101445	,	-23033	,	-20805	,	41.685337	,	56
30,39	,	101461	,	-23031	,	-20817	,	41.766323	,	54
30,39	,	101493	,	-23034	,	-20790	,	39.848274	,	48
30,39	,	101509	,	-23036	,	-20808	,	36.188374	,	41
30,40	,	101525	,	-23025	,	-20801	,	31.23151	,	34
30,40	,	101557	,	-23037	,	-20803	,	25.593103	,	26
30,40	,	101573	,	-23044	,	-20802	,	19.788435	,	19
30,40	,	101589	,	-23034	,	-20803	,	14.114646	,	12
30,40	,	101621	,	-23040	,	-20794	,	8.878405	,	6
30,40	,	101637	,	-23044	,	-20797	,	4.381257	,	2
30,40	,	101669	,	-23056	,	-20804	,	0.68302536	,	0
30,40	,	101685	,	-23065	,	-20805	,	-2.4256077	,	0
30,40	,	101701	,	-23067	,	-20819	,	-5.226183	,	0
30,40	,	101733	,	-23079	,	-20811	,	-7.8812346	,	0
30,40	,	101749	,	-23074	,	-20825	,	-10.396708	,	0
30,40	,	101765	,	-23085	,	-20808	,	-12.652651	,	0
30,40	,	101797	,	-23086	,	-20816	,	-14.506334	,	0
30,40	,	101813	,	-23098	,	-20817	,	-15.916662	,	0
30,40	,	101845	,	-23090	,	-20817	,	-16.89999	,	0
30,40	,	101861	,	-23110	,	-20821	,	-17.465853	,	0
30,40	,	101877	,	-23116	,	-20821	,	-17.744146	,	0
30,40	,	101909	,	-23120	,	-20827	,	-17.979347	,	0
30,40	,	101925	,	-23125	,	-20830	,	-18.294865	,	0
30,40	,	101941	,	-23134	,	-20847	,	-18.66963	,	0
30,40	,	101973	,	-23134	,	-20831	,	-19.049461	,	0
30,40	,	101989	,	-23150	,	-20837	,	-19.389236	,	0
30,40	,	102021	,	-23161	,	-20848	,	-19.757637	,	0
30,40	,	102037	,	-23171	,	-20849	,	-20.339066	,	0
30,40	,	102053	,	-23173	,	-20850	,	-21.226295	,	0
30,40	,	102085	,	-23179	,	-20855	,	-22.292953	,	0
30,40	,	102101	,	-23191	,	-20859	,	-23.321392	,	0
30,40	,	102117	,	-23190	,	-20849	,	-24.15789	,	0
30,40	,	102149	,	-23191	,	-20855	,	-24.647264	,	0
30,40	,	102165	,	-23181	,	-20856	,	-24.522198	,	0
30,40	,	102181	,	-23179	,	-20851	,	-23.46278	,	0
30,40	,	102213	,	-23151	,	-20830	,	-21.159723	,	1
30,40	,	102229	,	-23126	,	-20839	,	-17.22591	,	3
30,40	,	102261	,	-23129	,	-20832	,	-11.3805	,	6
30,40	,	102277	,	-23127	,	-20822	,	-3.9720716	,	11
30,40	,	102293	,	-23113	,	-20822	,	4.0544586	,	18
30,40	,	102325	,	-23109	,	-20810	,	11.748896	,	26
30,40	,	102341	,	-23094	,	-20816	,	18.471918	,	33
30,40	,	102357	,	-23089	,	-20807	,	23.896202	,	39
30,40	,	102389	,	-23090	,	-20812	,	27.872072	,	44
30,40	,	102405	,	-23080	,	-20810	,	30.296753	,	46
30,40	,	102437	,	-23089	,	-20811	,	31.137209	,	46
30,40	,	102453	,	-23076	,	-20802	,	30.469503	,	43
30,40	,	102469	,	-23081	,	-20799	,	28.526104	,	38
30,40	,	102501	,	-23077	,	-20802	,	25.666702	,	31
30,40	,	102517	,	-23081	,	-20804	,	22.238262	,	23
30,41	,	102533	,	-23079	,	-20806	,	18.521389	,	16
30,41	,	102565	,	-23083	,	-20806	,	14.745311	,	10
30,41	,	102581	,	-23088	,	-20804	,	11.07583	,	5
30,41	,	102597	,	-23095	,	-20804	,	7.572426	,	2
30,41	,	102629	,	-23095	,	-20804	,	4.2231555	,	0
30,41	,	102645	,	-23096	,	-20814	,	1.0789242	,	0
30,41	,	102677	,	-23103	,	-20815	,	-1.7351959	,	0
30,41	,	102693	,	-23100	,	-20809	,	-4.122383	,	0
30,41	,	102709	,	-23111	,	-20818	,	-6.047616	,	0
30,41	,	102741	,	-23123	,	-20820	,	-7.6098795	,	0
30,41	,	102757	,	-23125	,	-20823	,	-9.051868	,	0
30,41	,	102773	,	-23132	,	-20831	,	-10.549816	,	0
30,41	,	102805	,	-23133	,	-20830	,	-12.090744	,	0
30,41	,	102821	,	-23134	,	-20822	,	-13.520975	,	0
30,41	,	102852	,	-23134	,	-20830	,	-14.61014	,	0
30,41	,	102869	,	-23142	,	-20826	,	-15.175131	,	0
30,41	,	102885	,	-23137	,	-20824	,	-15.174187	,	0
30,41	,	102916	,	-23161	,	-20826	,	-14.738066	,	0
30,41	,	102932	,	-23160	,	-20834	,	-14.203993	,	0
30,41	,	102949	,	-23170	,	-20846	,	-13.934538	,	0
30,41	,	102981	,	-23178	,	-20841	,	-14.105745	,	0
30,41	,	102997	,	-23179	,	-20845	,	-14.723143	,	0
30,41	,	103013	,	-23180	,	-20850	,	-15.618754	,	0
30,41	,	103044	,	-23167	,	-20848	,	-16.414751	,	0
30,41	,	103061	,	-23160	,	-20844	,	-16.578299	,	0
30,41	,	103093	,	-23138	,	-20834	,	-15.542625	,	0
30,41	,	103109	,	-23136	,	-20839	,	-12.892264	,	1
30,41	,	103125	,	-23126	,	-20832	,	-8.595233	,	3
30,41	,	103157	,	-23116	,	-20829	,	-3.038673	,	7
30,41	,	103173	,	-23094	,	-20828	,	3.267902	,	12
30,41	,	103188	,	-23084	,	-20823	,	9.944683	,	18
30,41	,	103220	,	-23078	,	-20823	,	16.645777	,	24
30,41	,	103237	,	-23081	,	-20821	,	22.84058	,	30
30,41	,	103269	,	-23068	,	-20814	,	27.888737	,	36
30,41	,	103285	,	-23069	,	-20816	,	31.347368	,	41
30,41	,	103301	,	-23069	,	-20815	,	33.044277	,	43
30,41	,	103332	,	-23072	,	-20823	,	32.93731	,	42
30,41	,	103348	,	-23055	,	-20811	,	31.18354	,	38
30,41	,	103364	,	-23066	,	-20812	,	28.233433	,	33
30,41	,	103397	,	-23074	,	-20811	,	24.525017	,	27
30,41	,	103413	,	-23082	,	-20814	,	20.21719	,	21
30,41	,	103429	,	-23081	,	-20817	,	15.388671	,	15
30,41	,	103461	,	-23083	,	-20820	,	10.28664	,	9
30,41	,	103476	,	-23079	,	-20823	,	5.332016	,	4
30,41	,	103508	,	-23094	,	-20823	,	0.9309287	,	1
30,42	,	103524	,	-23097	,	-20823	,	-2.7637362	,	0
30,42	,	103540	,	-23106	,	-20816	,	-5.8435836	,	0
30,42	,	103572	,	-23105	,	-20828	,	-8.431366	,	0
30,42	,	103589	,	-23103	,	-20831	,	-10.522205	,	0
30,42	,	103605	,	-23117	,	-20830	,	-12.033914	,	0
30,42	,	103637	,	-23116	,	-20828	,	-12.998315	,	0
30,42	,	103652	,	-23129	,	-20832	,	-13.582991	,	0
30,42	,	103684	,	-23143	,	-20832	,	-14.046727	,	0
30,42	,	103700	,	-23146	,	-20839	,	-14.700386	,	0
30,42	,	103716	,	-23157	,	-20846	,	-15.72628	,	0
30,42	,	103748	,	-23169	,	-20847	,	-17.142225	,	0
30,42	,	103764	,	-23159	,	-20850	,	-18.826872	,	0
30,42	,	103780	,	-23168	,	-20852	,	-20.430153	,	0
30,42	,	103812	,	-23171	,	-20847	,	-21.551275	,	0
30,42	,	103828	,	-23178	,	-20854	,	-22.017624	,	0
30,42	,	103860	,	-23178	,	-20863	,	-21.853436	,	0
30,42	,	103876	,	-23176	,	-20855	,	-21.108622	,	0
30,42	,	103892	,	-23182	,	-20863	,	-19.810987	,	0
30,42	,	103924	,	-23203	,	-20864	,	-18.15628	,	1
30,42	,	103940	,	-23190	,	-20866	,	-16.543596	,	2
30,42	,	103956	,	-23183	,	-20860	,	-15.137139	,	3
30,42	,	103988	,	-23172	,	-20855	,	-13.639486	,	4
30,42	,	104004	,	-23164	,	-20845	,	-11.602501	,	5
30,42	,	104020	,	-23154	,	-20852	,	-8.728315	,	7
30,42	,	104052	,	-23143	,	-20849	,	-4.9368215	,	9
30,42	,	104068	,	-23127	,	-20834	,	-0.2992797	,	12
30,42	,	104100	,	-23125	,	-20839	,	4.9937534	,	16
30,42	,	104116	,	-23106	,	-20813	,	10.610586	,	20
30,42	,	104132	,	-23095	,	-20825	,	16.205397	,	24
30,42	,	104164	,	-23079	,	-20816	,	21.545702	,	28
30,42	,	104180	,	-23067	,	-20820	,	26.47556	,	32
30,42	,	104196	,	-23055	,	-20811	,	30.860968	,	35
30,42	,	104228	,	-23048	,	-20811	,	34.551544	,	37
30,42	,	104244	,	-23052	,	-20807	,	37.304028	,	38
30,42	,	104276	,	-23051	,	-20800	,	38.754147	,	37
30,42	,	104292	,	-23048	,	-20804	,	38.5913	,	34
30,42	,	104308	,	-23045	,	-20807	,	36.789978	,	29
30,42	,	104340	,	-23055	,	-20816	,	33.57263	,	24
30,42	,	104356	,	-23054	,	-20795	,	29.21587	,	19
30,42	,	104372	,	-23050	,	-20794	,	24.062902	,	14
30,42	,	104404	,	-23055	,	-20805	,	18.594048	,	10
30,42	,	104420	,	-23065	,	-20812	,	13.231975	,	6
30,42	,	104436	,	-23075	,	-20811	,	8.130238	,	3
30,42	,	104468	,	-23063	,	-20809	,	3.3364992	,	1
30,42	,	104484	,	-23080	,	-20805	,	-0.96775913	,	0
30,42	,	104516	,	-23091	,	-20813	,	-4.670292	,	0
30,43	,	104532	,	-23087	,	-20809	,	-7.875968	,	0
30,43	,	104548	,	-23087	,	-20819	,	-10.592515	,	0
30,43	,	104580	,	-23098	,	-20828	,	-12.665965	,	0
30,43	,	104596	,	-23110	,	-20808	,	-14.10881	,	0
30,43	,	104612	,	-23112	,	-20828	,	-15.157006	,	0
30,43	,	104644	,	-23130	,	-20829	,	-16.072235	,	0
30,43	,	104660	,	-23127	,	-20841	,	-17.047026	,	0
30,43	,	104692	,	-23140	,	-20835	,	-18.138163	,	0
30,43	,	104708	,	-23132	,	-20834	,	-19.223913	,	0
30,43	,	104724	,	-23156	,	-20833	,	-20.13098	,	0
30,43	,	104756	,	-23148	,	-20840	,	-20.799435	,	0
30,43	,	104772	,	-23153	,	-20834	,	-21.189713	,	0
30,43	,	104788	,	-23164	,	-20828	,	-21.20988	,	0
30,43	,	104820	,	-23169	,	-20849	,	-20.901215	,	0
30,43	,	104836	,	-23176	,	-20832	,	-20.435127	,	0
30,43	,	104852	,	-23199	,	-20841	,	-20.038876	,	0
30,43	,	104884	,	-23200	,	-20843	,	-20.021156	,	0
30,43	,	104900	,	-23204	,	-20843	,	-20.544693	,	0
30,43	,	104932	,	-23200	,	-20851	,	-21.396858	,	0
30,43	,	104948	,	-23190	,	-20838	,	-22.06158	,	0
30,43	,	104964	,	-23191	,	-20836	,	-21.9481	,	0
30,43	,	104996	,	-23164	,	-20846	,	-20.570305	,	0
30,43	,	105012	,	-23150	,	-20818	,	-17.522541	,	1
30,43	,	105028	,	-23134	,	-20818	,	-12.545179	,	4
30,43	,	105060	,	-23133	,	-20832	,	-5.80509	,	8
30,43	,	105076	,	-23113	,	-20804	,	2.0654144	,	14
30,43	,	105107	,	-23093	,	-20801	,	10.33944	,	21
30,43	,	105124	,	-23088	,	-20802	,	18.465158	,	29
30,43	,	105140	,	-23071	,	-20789	,	25.964592	,	37
30,43	,	105172	,	-23053	,	-20786	,	32.44698	,	44
30,43	,	105188	,	-23062	,	-20789	,	37.655663	,	50
30,43	,	105204	,	-23057	,	-20783	,	41.25425	,	54
30,43	,	105236	,	-23050	,	-20784	,	42.890797	,	54
30,43	,	105252	,	-23050	,	-20782	,	42.50496	,	51
30,43	,	105283	,	-23049	,	-20785	,	40.318672	,	45
30,43	,	105300	,	-23052	,	-20802	,	36.666794	,	38
30,43	,	105315	,	-23052	,	-20769	,	31.922812	,	30
30,43	,	105348	,	-23046	,	-20782	,	26.519594	,	22
30,43	,	105364	,	-23051	,	-20790	,	20.959673	,	15
30,43	,	105379	,	-23063	,	-20787	,	15.622099	,	9
30,43	,	105412	,	-23058	,	-20792	,	10.642641	,	4
30,43	,	105427	,	-23069	,	-20788	,	6.080268	,	1
30,43	,	105443	,	-23069	,	-20796	,	1.9938059	,	0
30,43	,	105475	,	-23077	,	-20796	,	-1.6005707	,	0
30,43	,	105492	,	-23074	,	-20788	,	-4.680875	,	0
30,44	,	105524	,	-23086	,	-20794	,	-7.2077947	,	0
30,44	,	105540	,	-23087	,	-20812	,	-9.200015	,	0
30,44	,	105556	,	-23090	,	-20790	,	-10.724836	,	0
30,44	,	105588	,	-23097	,	-20803	,	-11.840456	,	0
30,44	,	105604	,	-23104	,	-20806	,	-12.638771	,	0
30,44	,	105620	,	-23099	,	-20813	,	-13.2131605	,	0
30,44	,	105652	,	-23117	,	-20811	,	-13.602678	,	0
30,44	,	105668	,	-23121	,	-20810	,	-13.925126	,	0
30,44	,	105699	,	-23123	,	-20814	,	-14.354202	,	0
30,44	,	105715	,	-23138	,	-20809	,	-14.960432	,	0
30,44	,	105731	,	-23137	,	-20819	,	-15.750082	,	0
30,44	,	105763	,	-23136	,	-20818	,	-16.629328	,	0
30,44	,	105779	,	-23151	,	-20840	,	-17.390972	,	0
30,44	,	105795	,	-23153	,	-20814	,	-17.934538	,	0
30,44	,	105827	,	-23162	,	-20832	,	-18.307814	,	0
30,44	,	105843	,	-23166	,	-20833	,	-18.578579	,	0
30,44	,	105859	,	-23172	,	-20847	,	-18.79136	,	0
30,44	,	105892	,	-23161	,	-20841	,	-18.878374	,	0
30,44	,	105908	,	-23144	,	-20828	,	-18.492931	,	0
30,44	,	105939	,	-23132	,	-20826	,	-17.052666	,	0
30,44	,	105956	,	-23109	,	-20816	,	-14.02806	,	1
30,44	,	105971	,	-23097	,	-20816	,	-9.156275	,	4
30,44	,	106003	,	-23082	,	-20806	,	-2.541113	,	8
30,44	,	106019	,	-23083	,	-20819	,	5.2700825	,	14
30,44	,	106035	,	-23072	,	-20788	,	13.370539	,	21
30,44	,	106068	,	-23043	,	-20794	,	20.923973	,	29
30,44	,	106083	,	-23040	,	-20789	,	27.540094	,	36
30,44	,	106115	,	-23035	,	-20799	,	33.034523	,	42
30,44	,	106131	,	-23035	,	-20789	,	37.090553	,	47
30,44	,	106147	,	-23032	,	-20787	,	39.359344	,	50
30,44	,	106179	,	-23027	,	-20800	,	39.69387	,	49
30,44	,	106195	,	-23025	,	-20788	,	38.241524	,	45
30,44	,	106211	,	-23027	,	-20777	,	35.343315	,	39
30,44	,	106243	,	-23026	,	-20786	,	31.377024	,	32
30,44	,	106259	,	-23020	,	-20799	,	26.748346	,	24
30,44	,	106275	,	-23023	,	-20778	,	21.913523	,	17
30,44	,	106307	,	-23027	,	-20789	,	17.249678	,	11
30,44	,	106323	,	-23038	,	-20789	,	12.903238	,	6
30,44	,	106355	,	-23042	,	-20779	,	8.802646	,	2
30,44	,	106371	,	-23041	,	-20796	,	4.859108	,	0
30,44	,	106387	,	-23038	,	-20794	,	1.1809983	,	0
30,44	,	106419	,	-23038	,	-20787	,	-1.9459939	,	0
30,44	,	106435	,	-23049	,	-20795	,	-4.311566	,	0
30,44	,	106451	,	-23052	,	-20790	,	-5.9787483	,	0
30,44	,	106483	,	-23055	,	-20796	,	-7.1777554	,	0
30,44	,	106499	,	-23065	,	-20809	,	-8.122499	,	0
30,45	,	106531	,	-23064	,	-20789	,	-8.975274	,	0
30,45	,	106547	,	-23073	,	-20802	,	-9.820248	,	0
30,45	,	106563	,	-23079	,	-20809	,	-10.685432	,	0
30,45	,	106595	,	-23078	,	-20795	,	-11.575628	,	0
30,45	,	106611	,	-23096	,	-20813	,	-12.479248	,	0
30,45	,	106627	,	-23097	,	-20811	,	-13.45401	,	0
30,45	,	106659	,	-23106	,	-20815	,	-14.577085	,	0
30,45	,	106675	,	-23117	,	-20814	,	-15.849205	,	0
30,45	,	106691	,	-23115	,	-20820	,	-17.21402	,	0
30,45	,	106723	,	-23128	,	-20814	,	-18.54357	,	0
30,45	,	106739	,	-23128	,	-20835	,	-19.690762	,	0
30,45	,	106771	,	-23123	,	-20812	,	-20.494278	,	0
30,45	,	106787	,	-23111	,	-20829	,	-20.638075	,	0
30,45	,	106803	,	-23104	,	-20814	,	-19.691563	,	0
30,45	,	106835	,	-23092	,	-20811	,	-17.336937	,	0
30,45	,	106851	,	-23072	,	-20800	,	-13.448293	,	2
30,45	,	106867	,	-23069	,	-20804	,	-8.081165	,	5
30,45	,	106899	,	-23055	,	-20793	,	-1.5741377	,	10
30,45	,	106915	,	-23048	,	-20791	,	5.4905562	,	16
30,45	,	106947	,	-23043	,	-20786	,	12.470906	,	23
30,45	,	106963	,	-23021	,	-20783	,	18.826403	,	29
30,45	,	106979	,	-23022	,	-20797	,	24.246014	,	35
30,45	,	107011	,	-23027	,	-20776	,	28.479488	,	40
30,45	,	107027	,	-23020	,	-20782	,	31.167505	,	44
30,45	,	107043	,	-23006	,	-20777	,	32.14163	,	44
30,45	,	107075	,	-23014	,	-20771	,	31.617714	,	41
30,45	,	107091	,	-23018	,	-20772	,	29.876898	,	36
30,45	,	107123	,	-23010	,	-20772	,	27.098476	,	30
30,45	,	107139	,	-23003	,	-20778	,	23.60617	,	23
30,45	,	107155	,	-23013	,	-20778	,	19.86943	,	17
30,45	,	107187	,	-23014	,	-20775	,	16.17994	,	11
30,45	,	107203	,	-23015	,	-20780	,	12.6106825	,	6
30,45	,	107219	,	-23019	,	-20786	,	9.209104	,	2
30,45	,	107251	,	-23033	,	-20774	,	5.976867	,	0
30,45	,	107267	,	-23032	,	-20783	,	2.8070617	,	0
30,45	,	107283	,	-23032	,	-20782	,	-0.32697678	,	0
30,45	,	107315	,	-23040	,	-20786	,	-3.2684865	,	0
30,45	,	107331	,	-23040	,	-20790	,	-5.847572	,	0
30,45	,	107363	,	-23053	,	-20784	,	-8.009374	,	0
30,45	,	107379	,	-23056	,	-20789	,	-9.821448	,	0
30,45	,	107395	,	-23047	,	-20793	,	-11.323294	,	0
30,45	,	107427	,	-23071	,	-20792	,	-12.44754	,	0
30,45	,	107443	,	-23058	,	-20805	,	-13.206261	,	0
30,45	,	107459	,	-23074	,	-20809	,	-13.685045	,	0
30,45	,	107491	,	-23075	,	-20792	,	-13.956825	,	0
30,45	,	107507	,	-23096	,	-20801	,	-14.197029	,	0
30,46	,	107538	,	-23106	,	-20791	,	-14.723175	,	0
30,46	,	107555	,	-23103	,	-20801	,	-15.773935	,	0
30,46	,	107571	,	-23110	,	-20801	,	-17.241417	,	0
30,46	,	107603	,	-23114	,	-20810	,	-18.777334	,	0
30,46	,	107619	,	-23115	,	-20809	,	-20.051987	,	0
30,46	,	107635	,	-23108	,	-20802	,	-20.761518	,	0
30,46	,	107667	,	-23107	,	-20800	,	-20.590508	,	0
30,46	,	107683	,	-23089	,	-20800	,	-19.264915	,	0
30,46	,	107699	,	-23069	,	-20796	,	-16.518333	,	1
30,46	,	107731	,	-23061	,	-20784	,	-12.128837	,	3
30,46	,	107747	,	-23047	,	-20778	,	-6.1638536	,	7
30,46	,	107779	,	-23031	,	-20770	,	0.97336674	,	12
30,46	,	107795	,	-23029	,	-20765	,	8.696931	,	19
30,46	,	107810	,	-23019	,	-20771	,	16.290611	,	26
30,46	,	107843	,	-23004	,	-20763	,	23.07314	,	33
30,46	,	107859	,	-22995	,	-20754	,	28.64211	,	39
30,46	,	107875	,	-23004	,	-20758	,	32.772644	,	44
30,46	,	107906	,	-22999	,	-20753	,	35.18537	,	47
30,46	,	107923	,	-22997	,	-20753	,	35.676434	,	47
30,46	,	107954	,	-22996	,	-20750	,	34.34379	,	43
30,46	,	107970	,	-22998	,	-20759	,	31.517075	,	38
30,46	,	107986	,	-22999	,	-20763	,	27.588907	,	31
30,46	,	108019	,	-23007	,	-20757	,	22.923704	,	24
30,46	,	108035	,	-22999	,	-20769	,	17.864113	,	17
30,46	,	108051	,	-23023	,	-20767	,	12.718626	,	11
30,46	,	108083	,	-23013	,	-20776	,	7.666623	,	6
30,46	,	108099	,	-23006	,	-20782	,	2.9344368	,	2
30,46	,	108115	,	-23015	,	-20773	,	-1.0649471	,	0
30,46	,	108147	,	-23021	,	-20771	,	-4.0749025	,	0
30,46	,	108162	,	-23022	,	-20776	,	-6.1770678	,	0
30,46	,	108194	,	-23037	,	-20776	,	-7.6227756	,	0
30,46	,	108211	,	-23042	,	-20771	,	-8.750482	,	0
30,46	,	108227	,	-23044	,	-20782	,	-9.861635	,	0
30,46	,	108259	,	-23042	,	-20776	,	-11.015466	,	0
30,46	,	108275	,	-23061	,	-20791	,	-12.117172	,	0
30,46	,	108290	,	-23065	,	-20789	,	-13.194489	,	0
30,46	,	108323	,	-23072	,	-20786	,	-14.37146	,	0
30,46	,	108339	,	-23082	,	-20785	,	-15.6917925	,	0
30,46	,	108370	,	-23081	,	-20793	,	-17.09475	,	0
30,46	,	108386	,	-23091	,	-20792	,	-18.426685	,	0
30,46	,	108402	,	-23108	,	-20809	,	-19.587833	,	0
30,46	,	108434	,	-23103	,	-20796	,	-20.631721	,	0
30,46	,	108450	,	-23107	,	-20813	,	-21.52688	,	0
30,46	,	108466	,	-23115	,	-20809	,	-22.089756	,	0
30,46	,	108499	,	-23128	,	-20814	,	-22.263084	,	0
30,46	,	108514	,	-23125	,	-20821	,	-22.16906	,	0
30,47	,	108546	,	-23133	,	-20819	,	-21.88825	,	0
30,47	,	108562	,	-23145	,	-20827	,	-21.45552	,	0
30,47	,	108578	,	-23149	,	-20829	,	-21.002014	,	0
30,47	,	108610	,	-23151	,	-20824	,	-20.648224	,	0
30,47	,	108626	,	-23148	,	-20823	,	-20.326853	,	0
30,47	,	108643	,	-23125	,	-20833	,	-19.701954	,	0
30,47	,	108675	,	-23112	,	-20816	,	-18.165142	,	0
30,47	,	108690	,	-23101	,	-20815	,	-15.124737	,	1
30,47	,	108706	,	-23093	,	-20810	,	-10.403339	,	4
30,47	,	108738	,	-23087	,	-20812	,	-4.3285007	,	8
30,47	,	108754	,	-23070	,	-20798	,	2.4911509	,	14
30,47	,	108786	,	-23061	,	-20799	,	9.467733	,	20
30,47	,	108803	,	-23052	,	-20801	,	16.132551	,	26
30,47	,	108818	,	-23042	,	-20805	,	22.08363	,	32
30,47	,	108850	,	-23037	,	-20803	,	26.9921	,	37
30,47	,	108866	,	-23040	,	-20779	,	30.57621	,	41
30,47	,	108882	,	-23034	,	-20798	,	32.582466	,	43
30,47	,	108914	,	-23032	,	-20778	,	32.91885	,	42
30,47	,	108930	,	-23040	,	-20791	,	31.691399	,	38
30,47	,	108962	,	-23037	,	-20785	,	29.078114	,	32
30,47	,	108978	,	-23024	,	-20794	,	25.41158	,	26
30,47	,	108994	,	-23033	,	-20791	,	21.252075	,	20
30,47	,	109026	,	-23033	,	-20790	,	17.085077	,	14
30,47	,	109042	,	-23044	,	-20792	,	13.092729	,	9
30,47	,	109058	,	-23057	,	-20797	,	9.208065	,	5
30,47	,	109090	,	-23060	,	-20800	,	5.251539	,	2
30,47	,	109106	,	-23061	,	-20790	,	1.1734667	,	0
30,47	,	109122	,	-23065	,	-20799	,	-2.8252492	,	0
30,47	,	109154	,	-23069	,	-20802	,	-6.455573	,	0
30,47	,	109172	,	-23076	,	-20813	,	-9.5200815	,	0
30,47	,	109202	,	-23080	,	-20806	,	-11.954731	,	0
30,47	,	109218	,	-23077	,	-20818	,	-13.740714	,	0
30,47	,	109234	,	-23095	,	-20811	,	-14.880745	,	0
30,47	,	109266	,	-23106	,	-20819	,	-15.577972	,	0
30,47	,	109282	,	-23100	,	-20827	,	-16.161232	,	0
30,47	,	109298	,	-23103	,	-20821	,	-16.711891	,	0
30,47	,	109330	,	-23119	,	-20823	,	-17.1153	,	0
30,47	,	109346	,	-23125	,	-20818	,	-17.414268	,	0
30,47	,	109378	,	-23127	,	-20836	,	-17.764814	,	0
30,47	,	109394	,	-23136	,	-20817	,	-18.20358	,	0
30,47	,	109410	,	-23154	,	-20834	,	-18.739359	,	0
30,47	,	109442	,	-23150	,	-20837	,	-19.46172	,	0
30,47	,	109458	,	-23163	,	-20837	,	-20.370941	,	0
30,47	,	109474	,	-23169	,	-20836	,	-21.346828	,	0
30,47	,	109506	,	-23176	,	-20852	,	-22.288296	,	0
30,48	,	109522	,	-23179	,	-20856	,	-23.099434	,	0
30,48	,	109538	,	-23186	,	-20848	,	-23.651688	,	0
30,48	,	109570	,	-23191	,	-20847	,	-23.848522	,	0
30,48	,	109586	,	-23206	,	-20857	,	-23.720495	,	0
30,48	,	109618	,	-23200	,	-20867	,	-23.39733	,	0
30,48	,	109634	,	-23211	,	-20856	,	-22.939713	,	0
30,48	,	109650	,	-23189	,	-20855	,	-22.216885	,	0
30,48	,	109682	,	-23190	,	-20855	,	-20.88977	,	0
30,48	,	109698	,	-23174	,	-20838	,	-18.577301	,	1
30,48	,	109714	,	-23165	,	-20846	,	-15.060356	,	3
30,48	,	109746	,	-23166	,	-20848	,	-10.382415	,	6
30,48	,	109762	,	-23154	,	-20849	,	-4.9024115	,	10
30,48	,	109794	,	-23150	,	-20843	,	0.86359406	,	15
30,48	,	109810	,	-23143	,	-20844	,	6.4411836	,	20
30,48	,	109826	,	-23128	,	-20838	,	11.483191	,	25
30,48	,	109858	,	-23130	,	-20842	,	15.807752	,	30
30,48	,	109874	,	-23127	,	-20818	,	19.26125	,	34
30,48	,	109890	,	-23106	,	-20830	,	21.73158	,	36
30,48	,	109922	,	-23118	,	-20826	,	23.29134	,	36
30,48	,	109938	,	-23113	,	-20838	,	23.993534	,	34
30,48	,	109954	,	-23110	,	-20827	,	23.77684	,	30
30,48	,	109986	,	-23101	,	-20821	,	22.72386	,	25
30,48	,	110002	,	-23110	,	-20832	,	21.077885	,	20
30,48	,	110034	,	-23113	,	-20829	,	18.988653	,	15
30,48	,	110050	,	-23110	,	-20821	,	16.480854	,	10
30,48	,	110066	,	-23107	,	-20821	,	13.664871	,	6
30,48	,	110098	,	-23111	,	-20840	,	10.778541	,	3
30,48	,	110114	,	-23109	,	-20818	,	8.041396	,	1
30,48	,	110130	,	-23116	,	-20823	,	5.5712757	,	0
30,48	,	110162	,	-23122	,	-20830	,	3.3544097	,	0
30,48	,	110178	,	-23124	,	-20824	,	1.2752535	,	0
30,48	,	110210	,	-23128	,	-20815	,	-0.7569084	,	0
30,48	,	110226	,	-23129	,	-20826	,	-2.7302048	,	0
30,48	,	110242	,	-23131	,	-20826	,	-4.5507984	,	0
30,48	,	110274	,	-23136	,	-20827	,	-6.1093793	,	0
30,48	,	110290	,	-23146	,	-20835	,	-7.395346	,	0
30,48	,	110306	,	-23140	,	-20826	,	-8.489393	,	0
30,48	,	110338	,	-23154	,	-20850	,	-9.437119	,	0
30,48	,	110353	,	-23167	,	-20818	,	-10.331729	,	0
30,48	,	110369	,	-23162	,	-20831	,	-11.353749	,	0
30,48	,	110402	,	-23153	,	-20832	,	-12.449625	,	0
30,48	,	110418	,	-23166	,	-20848	,	-13.2778225	,	0
30,48	,	110450	,	-23179	,	-20835	,	-13.680767	,	0
30,48	,	110466	,	-23193	,	-20836	,	-13.931786	,	0
30,48	,	110482	,	-23193	,	-20844	,	-14.424717	,	0
30,48	,	110514	,	-23190	,	-20844	,	-15.253071	,	0
30,49	,	110529	,	-23187	,	-20850	,	-16.116116	,	0
30,49	,	110545	,	-23206	,	-20839	,	-16.657873	,	0
30,49	,	110578	,	-23219	,	-20854	,	-16.891848	,	0
30,49	,	110593	,	-23216	,	-20841	,	-17.118229	,	0
30,49	,	110625	,	-23223	,	-20848	,	-17.485268	,	0
30,49	,	110641	,	-23226	,	-20860	,	-17.899292	,	0
30,49	,	110657	,	-23227	,	-20851	,	-18.20594	,	0
30,49	,	110689	,	-23233	,	-20856	,	-18.269218	,	0
30,49	,	110705	,	-23209	,	-20857	,	-17.899092	,	0
30,49	,	110722	,	-23202	,	-20858	,	-16.70763	,	0
30,49	,	110754	,	-23193	,	-20855	,	-14.267847	,	1
30,49	,	110770	,	-23184	,	-20847	,	-10.453344	,	3
30,49	,	110801	,	-23174	,	-20850	,	-5.468705	,	6
30,49	,	110817	,	-23169	,	-20867	,	0.28058815	,	10
30,49	,	110833	,	-23162	,	-20822	,	6.2627845	,	15
30,49	,	110866	,	-23144	,	-20834	,	11.98387	,	20
30,49	,	110882	,	-23141	,	-20828	,	17.151447	,	25
30,49	,	110898	,	-23130	,	-20827	,	21.59876	,	30
30,49	,	110929	,	-23129	,	-20824	,	25.151413	,	34
30,49	,	110945	,	-23115	,	-20818	,	27.672955	,	36
30,49	,	110961	,	-23119	,	-20819	,	29.13667	,	36
30,49	,	110993	,	-23114	,	-20819	,	29.555145	,	34
30,49	,	111009	,	-23113	,	-20822	,	28.940033	,	30
30,49	,	111041	,	-23117	,	-20813	,	27.348412	,	25
30,49	,	111058	,	-23105	,	-20829	,	24.924664	,	20
30,49	,	111074	,	-23107	,	-20810	,	21.96855	,	15
30,49	,	111106	,	-23115	,	-20818	,	18.804314	,	10
30,49	,	111122	,	-23102	,	-20808	,	15.623144	,	6
30,49	,	111138	,	-23103	,	-20813	,	12.6286125	,	3
30,49	,	111169	,	-23108	,	-20825	,	10.03381	,	1
30,49	,	111186	,	-23101	,	-20814	,	7.8989983	,	0
30,49	,	111217	,	-23117	,	-20832	,	6.145032	,	0
30,49	,	111233	,	-23117	,	-20827	,	4.561168	,	0
30,49	,	111249	,	-23110	,	-20821	,	2.9500518	,	0
30,49	,	111281	,	-23118	,	-20812	,	1.3369937	,	0
30,49	,	111297	,	-23112	,	-20836	,	-0.13740635	,	0
30,49	,	111313	,	-23120	,	-20808	,	-1.3762643	,	0
30,49	,	111345	,	-23108	,	-20819	,	-2.3150775	,	0
30,49	,	111361	,	-23119	,	-20828	,	-2.8945324	,	0
30,49	,	111377	,	-23124	,	-20824	,	-3.1680894	,	0
30,49	,	111409	,	-23115	,	-20824	,	-3.3048115	,	0
30,49	,	111425	,	-23120	,	-20827	,	-3.3705335	,	0
30,49	,	111457	,	-23118	,	-20825	,	-3.3205824	,	0
30,49	,	111473	,	-23129	,	-20829	,	-3.1853805	,	0
30,49	,	111489	,	-23134	,	-20831	,	-3.142874	,	0
30,50	,	111522	,	-23126	,	-20824	,	-3.360907	,	0
30,50	,	111537	,	-23136	,	-20843	,	-3.8063462	,	0
30,50	,	111553	,	-23139	,	-20821	,	-4.38197	,	0
30,50	,	111585	,	-23151	,	-20836	,	-5.125517	,	0
30,50	,	111601	,	-23139	,	-20834	,	-6.086445	,	0
30,50	,	111633	,	-23134	,	-20844	,	-7.064328	,	0
30,50	,	111649	,	-23119	,	-20825	,	-7.586492	,	0
30,50	,	111665	,	-23115	,	-20819	,	-7.154862	,	0
30,50	,	111697	,	-23098	,	-20817	,	-5.4617634	,	0
30,50	,	111713	,	-23094	,	-20820	,	-2.4542685	,	1
30,50	,	111729	,	-23084	,	-20811	,	1.6509702	,	4
30,50	,	111761	,	-23080	,	-20809	,	6.4084806	,	8
30,50	,	111777	,	-23070	,	-20812	,	11.287423	,	12
30,50	,	111809	,	-23059	,	-20783	,	15.851223	,	16
30,50	,	111825	,	-23050	,	-20791	,	19.859695	,	20
30,50	,	111841	,	-23034	,	-20782	,	23.253311	,	24
30,50	,	111873	,	-23025	,	-20781	,	26.095732	,	27
30,50	,	111889	,	-23038	,	-20784	,	28.369183	,	29
30,50	,	111905	,	-23030	,	-20794	,	29.77678	,	30
30,50	,	111937	,	-23024	,	-20788	,	30.010323	,	28
30,50	,	111953	,	-23019	,	-20784	,	29.098774	,	24
30,50	,	111969	,	-23037	,	-20779	,	27.224586	,	20
30,50	,	112001	,	-23031	,	-20796	,	24.432188	,	16
30,50	,	112017	,	-23033	,	-20794	,	20.789856	,	12
30,50	,	112049	,	-23038	,	-20779	,	16.577332	,	8
30,50	,	112065	,	-23046	,	-20788	,	12.107442	,	5
30,50	,	112081	,	-23051	,	-20786	,	7.5712185	,	3
30,50	,	112113	,	-23054	,	-20776	,	3.1088505	,	1
30,50	,	112129	,	-23061	,	-20782	,	-1.1152487	,	0
30,50	,	112145	,	-23055	,	-20776	,	-4.891904	,	0
30,50	,	112177	,	-23068	,	-20788	,	-7.9986753	,	0
30,50	,	112193	,	-23074	,	-20788	,	-10.367549	,	0
30,50	,	112225	,	-23080	,	-20789	,	-12.147526	,	0
30,50	,	112241	,	-23089	,	-20793	,	-13.547465	,	0
30,50	,	112257	,	-23086	,	-20799	,	-14.699259	,	0
30,50	,	112289	,	-23090	,	-20793	,	-15.584623	,	0
30,50	,	112305	,	-23098	,	-20799	,	-16.114262	,	0
30,50	,	112321	,	-23106	,	-20793	,	-16.318727	,	0
30,50	,	112353	,	-23101	,	-20810	,	-16.310455	,	0
30,50	,	112369	,	-23127	,	-20800	,	-16.20075	,	0
30,50	,	112385	,	-23123	,	-20795	,	-16.197285	,	0
30,50	,	112417	,	-23137	,	-20805	,	-16.506897	,	0
30,50	,	112433	,	-23136	,	-20804	,	-17.144466	,	0
30,50	,	112464	,	-23139	,	-20809	,	-17.94254	,	0
30,50	,	112481	,	-23153	,	-20814	,	-18.687746	,	0
30,50	,	112497	,	-23155	,	-20810	,	-19.294273	,	0
30,51	,	112529	,	-23175	,	-20824	,	-19.838676	,	0
30,51	,	112545	,	-23162	,	-20821	,	-20.408813	,	0
30,51	,	112561	,	-23153	,	-20821	,	-20.814026	,	0
30,51	,	112593	,	-23129	,	-20812	,	-20.445148	,	0
30,51	,	112609	,	-23120	,	-20814	,	-18.55472	,	0
30,51	,	112641	,	-23103	,	-20798	,	-14.685224	,	1
30,51	,	112657	,	-23087	,	-20788	,	-8.843876	,	4
30,51	,	112673	,	-23091	,	-20788	,	-1.4831533	,	9
30,51	,	112704	,	-23068	,	-20786	,	6.5942497	,	16
30,51	,	112720	,	-23054	,	-20784	,	14.609944	,	24
30,51	,	112737	,	-23040	,	-20778	,	22.091333	,	32
30,51	,	112768	,	-23027	,	-20775	,	28.748787	,	39
30,51	,	112784	,	-23018	,	-20756	,	34.346863	,	45
30,51	,	112801	,	-23007	,	-20758	,	38.696278	,	50
30,51	,	112833	,	-23001	,	-20761	,	41.672615	,	53
30,51	,	112849	,	-23007	,	-20747	,	43.170147	,	52
30,51	,	112880	,	-23000	,	-20748	,	43.048637	,	48
30,51	,	112897	,	-22999	,	-20752	,	41.28107	,	41
30,51	,	112913	,	-23000	,	-20756	,	38.07489	,	33
30,51	,	112944	,	-22996	,	-20746	,	33.789215	,	25
30,51	,	112960	,	-22997	,	-20756	,	28.853998	,	18
30,51	,	112976	,	-23000	,	-20734	,	23.684273	,	12
30,51	,	113009	,	-23006	,	-20747	,	18.56041	,	7
30,51	,	113025	,	-23006	,	-20748	,	13.633246	,	3
30,51	,	113057	,	-23008	,	-20736	,	9.039209	,	1
30,51	,	113072	,	-23015	,	-20748	,	4.91343	,	0
30,51	,	113089	,	-23018	,	-20740	,	1.3010907	,	0
30,51	,	113120	,	-23024	,	-20743	,	-1.8369026	,	0
30,51	,	113136	,	-23023	,	-20746	,	-4.53279	,	0
30,51	,	113153	,	-23023	,	-20748	,	-6.735895	,	0
30,51	,	113184	,	-23036	,	-20745	,	-8.380366	,	0
30,51	,	113200	,	-23039	,	-20747	,	-9.554341	,	0
30,51	,	113232	,	-23039	,	-20752	,	-10.434366	,	0
30,51	,	113248	,	-23047	,	-20751	,	-11.113649	,	0
30,51	,	113264	,	-23068	,	-20760	,	-11.727697	,	0
30,51	,	113296	,	-23069	,	-20755	,	-12.571091	,	0
30,51	,	113312	,	-23075	,	-20766	,	-13.842004	,	0
30,51	,	113328	,	-23084	,	-20770	,	-15.465607	,	0
30,51	,	113360	,	-23093	,	-20772	,	-17.267109	,	0
30,51	,	113376	,	-23088	,	-20775	,	-19.054136	,	0
30,51	,	113392	,	-23096	,	-20778	,	-20.542807	,	0
30,51	,	113424	,	-23107	,	-20785	,	-21.507067	,	0
30,51	,	113441	,	-23113	,	-20785	,	-21.974714	,	0
30,51	,	113472	,	-23118	,	-20783	,	-22.111584	,	0
30,51	,	113488	,	-23140	,	-20789	,	-22.112442	,	0
30,51	,	113505	,	-23147	,	-20794	,	-22.26918	,	0
30,52	,	113536	,	-23137	,	-20793	,	-22.750443	,	0
30,52	,	113552	,	-23124	,	-20800	,	-23.215239	,	0
30,52	,	113568	,	-23115	,	-20790	,	-22.921585	,	0
30,52	,	113600	,	-23104	,	-20787	,	-21.206543	,	0
30,52	,	113616	,	-23083	,	-20778	,	-17.717663	,	1
30,52	,	113648	,	-23072	,	-20784	,	-12.374819	,	4
30,52	,	113664	,	-23067	,	-20767	,	-5.4391994	,	9
30,52	,	113680	,	-23055	,	-20780	,	2.4312086	,	15
30,52	,	113712	,	-23038	,	-20763	,	10.4562435	,	22
30,52	,	113728	,	-23035	,	-20761	,	18.00874	,	30
30,52	,	113744	,	-23007	,	-20755	,	24.670149	,	37
30,52	,	113776	,	-23011	,	-20742	,	30.237309	,	43
30,52	,	113792	,	-23000	,	-20748	,	34.56711	,	48
30,52	,	113808	,	-22992	,	-20748	,	37.489475	,	51
30,52	,	113840	,	-22990	,	-20755	,	38.942528	,	50
30,52	,	113856	,	-22989	,	-20738	,	38.958946	,	46
30,52	,	113888	,	-22989	,	-20746	,	37.59278	,	40
30,52	,	113904	,	-22990	,	-20750	,	34.955505	,	33
30,52	,	113920	,	-22988	,	-20741	,	31.256796	,	25
30,52	,	113952	,	-22982	,	-20730	,	26.850359	,	18
30,52	,	113968	,	-22987	,	-20754	,	22.186813	,	12
30,52	,	113984	,	-22994	,	-20750	,	17.595634	,	7
30,52	,	114016	,	-23008	,	-20747	,	13.125339	,	3
30,52	,	114032	,	-23002	,	-20744	,	8.684637	,	1
30,52	,	114064	,	-23007	,	-20754	,	4.331894	,	0
30,52	,	114080	,	-23013	,	-20755	,	0.2863946	,	0
30,52	,	114096	,	-23014	,	-20760	,	-3.2694063	,	0
30,52	,	114128	,	-23025	,	-20752	,	-6.2559876	,	0
30,52	,	114144	,	-23033	,	-20760	,	-8.7254925	,	0
30,52	,	114160	,	-23033	,	-20770	,	-10.815776	,	0
30,52	,	114192	,	-23036	,	-20757	,	-12.571	,	0
30,52	,	114208	,	-23044	,	-20765	,	-13.939027	,	0
30,52	,	114240	,	-23059	,	-20773	,	-14.970527	,	0
30,52	,	114256	,	-23056	,	-20763	,	-15.838972	,	0
30,52	,	114272	,	-23063	,	-20777	,	-16.626984	,	0
30,52	,	114304	,	-23077	,	-20776	,	-17.325	,	0
30,52	,	114320	,	-23094	,	-20780	,	-18.06594	,	0
30,52	,	114336	,	-23094	,	-20776	,	-19.080858	,	0
30,52	,	114368	,	-23096	,	-20775	,	-20.375818	,	0
30,52	,	114384	,	-23100	,	-20790	,	-21.65879	,	0
30,52	,	114400	,	-23101	,	-20796	,	-22.574322	,	0
30,52	,	114432	,	-23124	,	-20785	,	-22.968777	,	0
30,52	,	114448	,	-23134	,	-20788	,	-23.054012	,	0
30,52	,	114480	,	-23131	,	-20799	,	-23.171825	,	0
30,52	,	114496	,	-23125	,	-20794	,	-23.319637	,	0
30,52	,	114512	,	-23106	,	-20798	,	-23.031713	,	0
30,53	,	114544	,	-23101	,	-20780	,	-21.654612	,	0
30,53	,	114560	,	-23097	,	-20784	,	-18.773026	,	1
30,53	,	114576	,	-23077	,	-20783	,	-14.390774	,	3
30,53	,	114608	,	-23081	,	-20779	,	-8.789693	,	7
30,53	,	114623	,	-23062	,	-20764	,	-2.4384403	,	12
30,53	,	114656	,	-23060	,	-20791	,	4.1196823	,	18
30,53	,	114672	,	-23057	,	-20755	,	10.362261	,	24
30,53	,	114688	,	-23028	,	-20771	,	15.88459	,	30
30,53	,	114720	,	-23029	,	-20759	,	20.587984	,	35
30,53	,	114736	,	-23017	,	-20766	,	24.523773	,	39
30,53	,	114752	,	-23016	,	-20764	,	27.628954	,	41
30,53	,	114784	,	-23018	,	-20743	,	29.723804	,	42
30,53	,	114800	,	-23018	,	-20760	,	30.56922	,	40
30,53	,	114816	,	-23004	,	-20756	,	30.069946	,	35
30,53	,	114847	,	-23007	,	-20759	,	28.451569	,	29
30,53	,	114864	,	-23007	,	-20746	,	26.063587	,	23
30,53	,	114896	,	-23007	,	-20763	,	23.151596	,	17
30,53	,	114912	,	-23011	,	-20748	,	19.87789	,	12
30,53	,	114928	,	-23019	,	-20750	,	16.345654	,	8
30,53	,	114960	,	-23030	,	-20753	,	12.554822	,	5
30,53	,	114975	,	-23026	,	-20757	,	8.486415	,	2
30,53	,	114991	,	-23034	,	-20768	,	4.2737627	,	0
30,53	,	115023	,	-23043	,	-20761	,	0.14107704	,	0
30,53	,	115040	,	-23038	,	-20754	,	-3.7253113	,	0
30,53	,	115071	,	-23058	,	-20754	,	-7.1686068	,	0
30,53	,	115088	,	-23061	,	-20764	,	-10.160877	,	0
30,53	,	115104	,	-23075	,	-20768	,	-12.828113	,	0
30,53	,	115135	,	-23066	,	-20781	,	-15.234227	,	0
30,53	,	115151	,	-23079	,	-20760	,	-17.255274	,	0
30,53	,	115167	,	-23082	,	-20769	,	-18.735397	,	0
30,53	,	115199	,	-23085	,	-20774	,	-19.637444	,	0
30,53	,	115216	,	-23100	,	-20778	,	-20.033602	,	0
30,53	,	115232	,	-23105	,	-20778	,	-20.119387	,	0
30,53	,	115264	,	-23109	,	-20776	,	-20.119925	,	0
30,53	,	115279	,	-23123	,	-20779	,	-20.170883	,	0
30,53	,	115311	,	-23116	,	-20787	,	-20.319378	,	0
30,53	,	115327	,	-23142	,	-20788	,	-20.545853	,	0
30,53	,	115343	,	-23124	,	-20785	,	-20.808292	,	0
30,53	,	115375	,	-23123	,	-20792	,	-20.893566	,	0
30,53	,	115392	,	-23114	,	-20769	,	-20.349651	,	0
30,53	,	115408	,	-23089	,	-20783	,	-18.682512	,	0
30,53	,	115439	,	-23074	,	-20772	,	-15.42575	,	1
30,53	,	115455	,	-23069	,	-20768	,	-10.337253	,	4
30,53	,	115487	,	-23066	,	-20760	,	-3.731185	,	9
30,53	,	115503	,	-23049	,	-20757	,	3.6355324	,	15
30,53	,	115519	,	-23048	,	-20759	,	10.967129	,	22
30,54	,	115551	,	-23036	,	-20746	,	17.613873	,	29
30,54	,	115567	,	-23039	,	-20761	,	23.07073	,	35
30,54	,	115583	,	-23026	,	-20747	,	27.003351	,	40
30,54	,	115615	,	-23042	,	-20756	,	29.231983	,	43
30,54	,	115631	,	-23047	,	-20743	,	29.589222	,	44
30,54	,	115648	,	-23041	,	-20738	,	27.987116	,	41
30,54	,	115679	,	-23037	,	-20738	,	24.726238	,	36
30,54	,	115695	,	-23037	,	-20739	,	20.470066	,	30
30,54	,	115727	,	-23044	,	-20745	,	15.879896	,	23
30,54	,	115743	,	-23032	,	-20738	,	11.443327	,	16
30,54	,	115759	,	-23051	,	-20750	,	7.490711	,	10
30,54	,	115791	,	-23042	,	-20744	,	4.1350436	,	5
30,54	,	115807	,	-23060	,	-20748	,	1.2964864	,	2
30,54	,	115823	,	-23062	,	-20750	,	-1.2055664	,	0
30,54	,	115855	,	-23067	,	-20748	,	-3.5686526	,	0
30,54	,	115871	,	-23059	,	-20737	,	-5.811124	,	0
30,54	,	115903	,	-23069	,	-20745	,	-7.7352943	,	0
30,54	,	115919	,	-23080	,	-20751	,	-9.218828	,	0
30,54	,	115936	,	-23082	,	-20747	,	-10.388962	,	0
30,54	,	115967	,	-23093	,	-20755	,	-11.446489	,	0
30,54	,	115983	,	-23089	,	-20758	,	-12.484549	,	0
30,54	,	115999	,	-23100	,	-20760	,	-13.468018	,	0
30,54	,	116031	,	-23096	,	-20765	,	-14.295616	,	0
30,54	,	116047	,	-23102	,	-20771	,	-14.854351	,	0
30,54	,	116079	,	-23114	,	-20773	,	-15.104728	,	0
30,54	,	116095	,	-23112	,	-20781	,	-15.15	,	0
30,54	,	116111	,	-23127	,	-20766	,	-15.140961	,	0
30,54	,	116143	,	-23136	,	-20789	,	-15.24926	,	0
30,54	,	116159	,	-23141	,	-20785	,	-15.663122	,	0
30,54	,	116175	,	-23152	,	-20793	,	-16.462406	,	0
30,54	,	116207	,	-23159	,	-20791	,	-17.613277	,	0
30,54	,	116223	,	-23148	,	-20786	,	-18.934906	,	0
30,54	,	116239	,	-23140	,	-20784	,	-19.956413	,	0
30,54	,	116271	,	-23117	,	-20777	,	-19.966454	,	0
30,54	,	116287	,	-23115	,	-20773	,	-18.298588	,	0
30,54	,	116319	,	-23109	,	-20767	,	-14.720158	,	1
30,54	,	116335	,	-23100	,	-20766	,	-9.563475	,	4
30,54	,	116351	,	-23075	,	-20761	,	-3.3640194	,	9
30,54	,	116383	,	-23065	,	-20753	,	3.494657	,	15
30,54	,	116399	,	-23057	,	-20751	,	10.682316	,	21
30,54	,	116415	,	-23048	,	-20766	,	17.717192	,	28
30,54	,	116447	,	-23042	,	-20751	,	24.033579	,	35
30,54	,	116463	,	-23041	,	-20755	,	29.117407	,	41
30,54	,	116495	,	-23031	,	-20755	,	32.594856	,	46
30,54	,	116511	,	-23040	,	-20755	,	34.2902	,	48
30,55	,	116527	,	-23034	,	-20762	,	34.17275	,	46
30,55	,	116559	,	-23033	,	-20749	,	32.378166	,	41
30,55	,	116575	,	-23026	,	-20754	,	29.292297	,	35
30,55	,	116591	,	-23025	,	-20749	,	25.464884	,	29
30,55	,	116623	,	-23028	,	-20749	,	21.403538	,	22
30,55	,	116639	,	-23030	,	-20750	,	17.41856	,	15
30,55	,	116655	,	-23036	,	-20755	,	13.621033	,	9
30,55	,	116687	,	-23035	,	-20760	,	10.030403	,	4
30,55	,	116703	,	-23034	,	-20758	,	6.7072372	,	1
30,55	,	116735	,	-23046	,	-20760	,	3.743085	,	0
30,55	,	116751	,	-23049	,	-20764	,	1.1049614	,	0
30,55	,	116767	,	-23051	,	-20759	,	-1.3239813	,	0
30,55	,	116799	,	-23055	,	-20762	,	-3.5776577	,	0
30,55	,	116815	,	-23062	,	-20769	,	-5.627493	,	0
30,55	,	116831	,	-23060	,	-20774	,	-7.442544	,	0
30,55	,	116863	,	-23066	,	-20760	,	-8.957956	,	0
30,55	,	116879	,	-23076	,	-20776	,	-10.144867	,	0
30,55	,	116911	,	-23092	,	-20773	,	-11.166052	,	0
30,55	,	116927	,	-23094	,	-20773	,	-12.317501	,	0
30,55	,	116943	,	-23095	,	-20779	,	-13.732597	,	0
30,55	,	116975	,	-23101	,	-20789	,	-15.253718	,	0
30,55	,	116991	,	-23118	,	-20787	,	-16.687445	,	0
30,55	,	117007	,	-23116	,	-20792	,	-18.008759	,	0
30,55	,	117039	,	-23127	,	-20790	,	-19.219097	,	0
30,55	,	117055	,	-23119	,	-20788	,	-20.192936	,	0
30,55	,	117071	,	-23131	,	-20796	,	-20.729305	,	0
30,55	,	117103	,	-23147	,	-20813	,	-20.79304	,	0
30,55	,	117119	,	-23136	,	-20798	,	-20.573215	,	0
30,55	,	117150	,	-23136	,	-20807	,	-20.12273	,	0
30,55	,	117166	,	-23123	,	-20803	,	-19.191238	,	0
30,55	,	117183	,	-23117	,	-20798	,	-17.43488	,	0
30,55	,	117215	,	-23101	,	-20788	,	-14.588102	,	1
30,55	,	117231	,	-23094	,	-20790	,	-10.535225	,	3
30,55	,	117247	,	-23098	,	-20783	,	-5.450719	,	7
30,55	,	117278	,	-23065	,	-20781	,	0.239398	,	12
30,55	,	117294	,	-23061	,	-20775	,	6.2244654	,	17
30,55	,	117327	,	-23050	,	-20773	,	12.325918	,	22
30,55	,	117343	,	-23045	,	-20772	,	18.212906	,	28
30,55	,	117359	,	-23035	,	-20769	,	23.449833	,	33
30,55	,	117391	,	-23026	,	-20769	,	27.698448	,	38
30,55	,	117407	,	-23026	,	-20766	,	30.764093	,	41
30,55	,	117423	,	-23032	,	-20767	,	32.46598	,	42
30,55	,	117454	,	-23019	,	-20766	,	32.63873	,	39
30,55	,	117470	,	-23031	,	-20768	,	31.315678	,	34
30,55	,	117486	,	-23024	,	-20755	,	28.703358	,	29
30,55	,	117518	,	-23019	,	-20760	,	25.135178	,	24
30,56	,	117534	,	-23037	,	-20757	,	21.021414	,	18
30,56	,	117566	,	-23036	,	-20760	,	16.60424	,	13
30,56	,	117582	,	-23038	,	-20757	,	12.000392	,	8
30,56	,	117598	,	-23037	,	-20772	,	7.448723	,	4
30,56	,	117631	,	-23054	,	-20769	,	3.209949	,	1
30,56	,	117647	,	-23037	,	-20763	,	-0.56944656	,	0
30,56	,	117662	,	-23052	,	-20766	,	-3.7318292	,	0
30,56	,	117694	,	-23058	,	-20766	,	-6.1806936	,	0
30,56	,	117711	,	-23063	,	-20768	,	-8.048666	,	0
30,56	,	117742	,	-23063	,	-20773	,	-9.522448	,	0
30,56	,	117758	,	-23066	,	-20778	,	-10.6569	,	0
30,56	,	117774	,	-23074	,	-20764	,	-11.4530525	,	0
30,56	,	117806	,	-23079	,	-20765	,	-11.989595	,	0
30,56	,	117822	,	-23095	,	-20787	,	-12.458872	,	0
30,56	,	117839	,	-23093	,	-20786	,	-13.088045	,	0
30,56	,	117870	,	-23094	,	-20793	,	-13.925873	,	0
30,56	,	117886	,	-23104	,	-20791	,	-14.802452	,	0
30,56	,	117918	,	-23105	,	-20798	,	-15.564024	,	0
30,56	,	117934	,	-23122	,	-20791	,	-16.202166	,	0
30,56	,	117950	,	-23121	,	-20788	,	-16.810928	,	0
30,56	,	117982	,	-23128	,	-20794	,	-17.445019	,	0
30,56	,	117998	,	-23142	,	-20807	,	-18.087795	,	0
30,56	,	118014	,	-23134	,	-20787	,	-18.723671	,	0
30,56	,	118046	,	-23134	,	-20795	,	-19.198431	,	0
30,56	,	118062	,	-23138	,	-20790	,	-19.212845	,	0
30,56	,	118078	,	-23103	,	-20789	,	-18.426193	,	0
30,56	,	118110	,	-23105	,	-20793	,	-16.386263	,	0
30,56	,	118126	,	-23089	,	-20789	,	-12.769638	,	2
30,56	,	118158	,	-23077	,	-20776	,	-7.654415	,	5
30,56	,	118174	,	-23064	,	-20764	,	-1.3749924	,	10
30,56	,	118190	,	-23047	,	-20758	,	5.645323	,	16
30,56	,	118222	,	-23041	,	-20764	,	12.936615	,	23
30,56	,	118238	,	-23029	,	-20774	,	19.976923	,	30
30,56	,	118254	,	-23014	,	-20739	,	26.276007	,	37
30,56	,	118286	,	-23009	,	-20744	,	31.507587	,	43
30,56	,	118302	,	-23001	,	-20740	,	35.464737	,	48
30,56	,	118334	,	-23007	,	-20734	,	37.943527	,	49
30,56	,	118350	,	-23007	,	-20741	,	38.71047	,	48
30,56	,	118366	,	-22993	,	-20728	,	37.687943	,	43
30,56	,	118398	,	-22979	,	-20733	,	35.248325	,	37
30,56	,	118414	,	-22989	,	-20731	,	32.061073	,	30
30,56	,	118430	,	-22979	,	-20723	,	28.619818	,	23
30,56	,	118462	,	-22984	,	-20702	,	25.151068	,	16
30,56	,	118478	,	-22989	,	-20730	,	21.729969	,	10
30,56	,	118494	,	-22991	,	-20717	,	18.294025	,	5
30,57	,	118526	,	-23003	,	-20723	,	14.71771	,	2
30,57	,	118542	,	-23003	,	-20727	,	10.903134	,	0
30,57	,	118574	,	-23007	,	-20726	,	6.8778486	,	0
30,57	,	118590	,	-23008	,	-20726	,	2.8453846	,	0
30,57	,	118606	,	-23015	,	-20732	,	-0.9301162	,	0
30,57	,	118638	,	-23010	,	-20731	,	-4.2227907	,	0
30,57	,	118654	,	-23022	,	-20739	,	-6.869952	,	0
30,57	,	118670	,	-23016	,	-20732	,	-8.810942	,	0
30,57	,	118702	,	-23033	,	-20736	,	-10.109248	,	0
30,57	,	118718	,	-23036	,	-20749	,	-10.980479	,	0
30,57	,	118750	,	-23048	,	-20734	,	-11.736155	,	0
30,57	,	118766	,	-23047	,	-20754	,	-12.595568	,	0
30,57	,	118782	,	-23050	,	-20757	,	-13.562262	,	0
30,57	,	118814	,	-23061	,	-20745	,	-14.51073	,	0
30,57	,	118830	,	-23062	,	-20751	,	-15.35854	,	0
30,57	,	118846	,	-23068	,	-20762	,	-16.06731	,	0
30,57	,	118878	,	-23080	,	-20758	,	-16.62239	,	0
30,57	,	118894	,	-23087	,	-20765	,	-17.11392	,	0
30,57	,	118910	,	-23088	,	-20762	,	-17.652985	,	0
30,57	,	118942	,	-23086	,	-20762	,	-18.176754	,	0
30,57	,	118958	,	-23078	,	-20772	,	-18.404758	,	0
30,57	,	118990	,	-23065	,	-20736	,	-17.915989	,	0
30,57	,	119006	,	-23040	,	-20750	,	-16.197718	,	0
30,57	,	119022	,	-23023	,	-20739	,	-12.72889	,	1
30,57	,	119054	,	-23015	,	-20736	,	-7.273963	,	4
30,57	,	119070	,	-22999	,	-20738	,	-0.13441229	,	9
30,57	,	119086	,	-22994	,	-20733	,	7.973708	,	16
30,57	,	119118	,	-22980	,	-20718	,	16.194223	,	24
30,57	,	119134	,	-22967	,	-20733	,	23.769957	,	32
30,57	,	119166	,	-22979	,	-20723	,	30.097328	,	39
30,57	,	119182	,	-22967	,	-20723	,	34.611595	,	45
30,57	,	119198	,	-22956	,	-20748	,	36.993973	,	49
30,57	,	119230	,	-22959	,	-20715	,	37.38761	,	50
30,57	,	119246	,	-22947	,	-20714	,	36.17486	,	47
30,57	,	119262	,	-22952	,	-20723	,	33.77952	,	42
30,57	,	119294	,	-22946	,	-20716	,	30.59899	,	35
30,57	,	119310	,	-22948	,	-20719	,	26.948324	,	27
30,57	,	119342	,	-22952	,	-20724	,	23.054907	,	19
30,57	,	119358	,	-22957	,	-20711	,	19.030914	,	12
30,57	,	119374	,	-22951	,	-20723	,	14.952821	,	6
30,57	,	119406	,	-22962	,	-20722	,	10.968152	,	2
30,57	,	119422	,	-22955	,	-20721	,	7.2377806	,	0
30,57	,	119438	,	-22963	,	-20745	,	3.8900728	,	0
30,57	,	119470	,	-22979	,	-20719	,	0.9377012	,	0
30,57	,	119486	,	-22996	,	-20733	,	-1.8823497	,	0
30,57	,	119502	,	-22985	,	-20731	,	-4.8907323	,	0
30,58	,	119534	,	-22995	,	-20735	,	-8.042352	,	0
30,58	,	119550	,	-23009	,	-20739	,	-11.061516	,	0
30,58	,	119581	,	-23014	,	-20734	,	-13.832357	,	0
30,58	,	119598	,	-23026	,	-20747	,	-16.378674	,	0
30,58	,	119614	,	-23032	,	-20752	,	-18.712708	,	0
30,58	,	119646	,	-23022	,	-20751	,	-20.722353	,	0
30,58	,	119662	,	-23035	,	-20759	,	-22.123198	,	0
30,58	,	119678	,	-23055	,	-20761	,	-22.796024	,	0
30,58	,	119710	,	-23050	,	-20736	,	-22.994522	,	0
30,58	,	119725	,	-23062	,	-20758	,	-22.99223	,	0
30,58	,	119758	,	-23073	,	-20763	,	-22.916014	,	0
30,58	,	119774	,	-23076	,	-20766	,	-22.883703	,	0
30,58	,	119790	,	-23091	,	-20769	,	-22.982395	,	0
30,58	,	119822	,	-23080	,	-20773	,	-23.177317	,	0
30,58	,	119838	,	-23070	,	-20763	,	-23.169437	,	0
30,58	,	119854	,	-23046	,	-20757	,	-22.32597	,	0
30,58	,	119886	,	-23039	,	-20746	,	-19.936699	,	0
30,58	,	119901	,	-23015	,	-20749	,	-15.575083	,	2
30,58	,	119918	,	-23013	,	-20755	,	-9.271322	,	6
30,58	,	119950	,	-23006	,	-20743	,	-1.5576811	,	12
30,58	,	119966	,	-22991	,	-20739	,	6.6939015	,	19
30,58	,	119997	,	-22984	,	-20728	,	14.654596	,	27
30,58	,	120013	,	-22976	,	-20729	,	21.709873	,	34
30,58	,	120029	,	-22965	,	-20727	,	27.438707	,	41
30,58	,	120061	,	-22955	,	-20718	,	31.660358	,	46
30,58	,	120077	,	-22951	,	-20731	,	34.396355	,	50
30,58	,	120093	,	-22962	,	-20721	,	35.65313	,	50
30,58	,	120125	,	-22954	,	-20726	,	35.32379	,	47
30,58	,	120142	,	-22954	,	-20727	,	33.42272	,	41
30,58	,	120174	,	-22965	,	-20734	,	30.187119	,	34
30,58	,	120190	,	-22957	,	-20719	,	25.915598	,	26
30,58	,	120206	,	-22970	,	-20704	,	20.943892	,	19
30,58	,	120238	,	-22969	,	-20713	,	15.629621	,	12
30,58	,	120253	,	-22967	,	-20718	,	10.332835	,	7
30,58	,	120269	,	-22969	,	-20715	,	5.4626703	,	3
30,58	,	120301	,	-22964	,	-20721	,	1.3907132	,	1
30,58	,	120317	,	-22995	,	-20727	,	-1.7848239	,	0
30,58	,	120350	,	-22988	,	-20729	,	-4.363413	,	0
30,58	,	120366	,	-22992	,	-20721	,	-6.68538	,	0
30,58	,	120381	,	-22998	,	-20731	,	-8.7977085	,	0
30,58	,	120413	,	-22996	,	-20751	,	-10.598108	,	0
30,58	,	120429	,	-23009	,	-20739	,	-12.007771	,	0
30,58	,	120445	,	-23023	,	-20746	,	-13.111832	,	0
30,58	,	120477	,	-23032	,	-20753	,	-14.206179	,	0
30,58	,	120493	,	-23025	,	-20757	,	-15.494238	,	0
30,58	,	120509	,	-23032	,	-20754	,	-16.825722	,	0
30,59	,	120541	,	-23041	,	-20754	,	-17.91473	,	0
30,59	,	120557	,	-23057	,	-20752	,	-18.715286	,	0
30,59	,	120589	,	-23066	,	-20757	,	-19.456318	,	0
30,59	,	120605	,	-23070	,	-20759	,	-20.370602	,	0
30,59	,	120621	,	-23076	,	-20757	,	-21.468082	,	0
30,59	,	120653	,	-23081	,	-20763	,	-22.568996	,	0
30,59	,	120669	,	-23090	,	-20761	,	-23.47991	,	0
30,59	,	120685	,	-23106	,	-20767	,	-24.15296	,	0
30,59	,	120717	,	-23098	,	-20763	,	-24.644321	,	0
30,59	,	120733	,	-23095	,	-20770	,	-24.83217	,	0
30,59	,	120765	,	-23098	,	-20770	,	-24.392706	,	0
30,59	,	120781	,	-23093	,	-20771	,	-23.093437	,	0
30,59	,	120797	,	-23093	,	-20775	,	-20.896095	,	1
30,59	,	120829	,	-23075	,	-20754	,	-17.836891	,	3
30,59	,	120845	,	-23064	,	-20759	,	-13.894045	,	6
30,59	,	120861	,	-23052	,	-20751	,	-9.0135145	,	9
30,59	,	120893	,	-23036	,	-20749	,	-3.2519236	,	13
30,59	,	120909	,	-23044	,	-20736	,	3.100503	,	18
30,59	,	120925	,	-23024	,	-20727	,	9.493891	,	24
30,59	,	120957	,	-23013	,	-20731	,	15.406404	,	30
30,59	,	120973	,	-22999	,	-20725	,	20.617243	,	35
30,59	,	121005	,	-23003	,	-20714	,	25.032442	,	39
30,59	,	121021	,	-22991	,	-20717	,	28.45989	,	41
30,59	,	121037	,	-22977	,	-20710	,	30.762371	,	41
30,59	,	121069	,	-22966	,	-20715	,	32.08095	,	40
30,59	,	121085	,	-22969	,	-20711	,	32.670586	,	37
30,59	,	121101	,	-22968	,	-20711	,	32.58802	,	32
30,59	,	121133	,	-22959	,	-20708	,	31.736397	,	26
30,59	,	121149	,	-22966	,	-20707	,	30.087902	,	20
30,59	,	121181	,	-22973	,	-20710	,	27.639847	,	15
30,59	,	121197	,	-22981	,	-20718	,	24.313385	,	10
30,59	,	121213	,	-22972	,	-20706	,	20.132183	,	6
30,59	,	121245	,	-22981	,	-20726	,	15.395836	,	3
30,59	,	121261	,	-22991	,	-20719	,	10.481265	,	1
30,59	,	121277	,	-22994	,	-20715	,	5.6031485	,	0
30,59	,	121309	,	-23004	,	-20723	,	0.8830204	,	0
30,59	,	121325	,	-23003	,	-20726	,	-3.533309	,	0
30,59	,	121341	,	-23017	,	-20736	,	-7.4885798	,	0
30,59	,	121373	,	-23027	,	-20724	,	-10.932829	,	0
30,59	,	121389	,	-23035	,	-20733	,	-13.970463	,	0
30,59	,	121421	,	-23043	,	-20733	,	-16.713417	,	0
30,59	,	121437	,	-23052	,	-20740	,	-19.186981	,	0
30,59	,	121453	,	-23061	,	-20745	,	-21.376646	,	0
30,59	,	121485	,	-23074	,	-20745	,	-23.29137	,	0
30,59	,	121501	,	-23073	,	-20741	,	-24.935635	,	0
30,59	,	121517	,	-23080	,	-20752	,	-26.20729	,	0
31,0	,	121549	,	-23076	,	-20757	,	-26.900723	,	0
31,0	,	121565	,	-23086	,	-20756	,	-26.835285	,	0
31,0	,	121597	,	-23087	,	-20764	,	-25.989218	,	0
31,0	,	121613	,	-23097	,	-20751	,	-24.529749	,	0
31,0	,	121629	,	-23099	,	-20760	,	-22.729889	,	1
31,0	,	121661	,	-23111	,	-20765	,	-20.89022	,	2
31,0	,	121677	,	-23121	,	-20762	,	-19.32899	,	3
31,0	,	121693	,	-23111	,	-20762	,	-18.256086	,	4
31,0	,	121725	,	-23124	,	-20774	,	-17.594467	,	5
31,0	,	121741	,	-23121	,	-20767	,	-17.120686	,	5
31,0	,	121772	,	-23121	,	-20778	,	-16.64206	,	5
31,0	,	121788	,	-23113	,	-20768	,	-15.930116	,	5
31,0	,	121805	,	-23092	,	-20763	,	-14.626658	,	5
31,0	,	121837	,	-23088	,	-20775	,	-12.291063	,	5
31,0	,	121853	,	-23067	,	-20743	,	-8.628632	,	6
31,0	,	121869	,	-23062	,	-20752	,	-3.640823	,	8
31,0	,	121901	,	-23042	,	-20754	,	2.410408	,	11
31,0	,	121917	,	-23035	,	-20744	,	9.100311	,	16
31,0	,	121933	,	-23024	,	-20747	,	15.917672	,	22
31,0	,	121964	,	-23016	,	-20736	,	22.312757	,	28
31,0	,	121981	,	-23020	,	-20741	,	27.74141	,	34
31,0	,	122013	,	-23010	,	-20731	,	31.707058	,	39
31,0	,	122029	,	-23002	,	-20737	,	33.9423	,	41
31,0	,	122045	,	-23011	,	-20731	,	34.476288	,	41
31,0	,	122076	,	-23003	,	-20754	,	33.437653	,	38
31,0	,	122092	,	-23014	,	-20733	,	30.989784	,	34
31,0	,	122108	,	-23011	,	-20736	,	27.360262	,	28
31,0	,	122141	,	-23026	,	-20728	,	22.79172	,	22
31,0	,	122157	,	-23014	,	-20730	,	17.573795	,	16
31,0	,	122188	,	-23025	,	-20723	,	12.128527	,	10
31,0	,	122204	,	-23028	,	-20738	,	6.891445	,	5
31,0	,	122220	,	-23020	,	-20738	,	2.1907053	,	2
31,0	,	122252	,	-23019	,	-20741	,	-1.64784	,	0
31,0	,	122268	,	-23018	,	-20736	,	-4.3332953	,	0
31,0	,	122285	,	-23028	,	-20745	,	-5.8208733	,	0
31,0	,	122317	,	-23024	,	-20755	,	-6.3440304	,	0
31,0	,	122332	,	-23028	,	-20738	,	-6.223303	,	0
31,0	,	122348	,	-23047	,	-20741	,	-5.8161135	,	0
31,0	,	122380	,	-23048	,	-20742	,	-5.5948367	,	0
31,0	,	122396	,	-23050	,	-20742	,	-5.9176927	,	0
31,0	,	122428	,	-23062	,	-20740	,	-6.833416	,	0
31,0	,	122444	,	-23053	,	-20744	,	-8.193895	,	0
31,0	,	122460	,	-23067	,	-20721	,	-9.741027	,	0
31,0	,	122492	,	-23087	,	-20758	,	-11.324215	,	0
31,0	,	122509	,	-23083	,	-20757	,	-13.038877	,	0
31,1	,	122524	,	-23086	,	-20747	,	-14.888849	,	0
31,1	,	122557	,	-23096	,	-20773	,	-16.643646	,	0
31,1	,	122573	,	-23097	,	-20748	,	-18.0927	,	0
31,1	,	122604	,	-23111	,	-20773	,	-19.16153	,	0
31,1	,	122620	,	-23121	,	-20779	,	-19.933958	,	0
31,1	,	122636	,	-23115	,	-20776	,	-20.548897	,	0
31,1	,	122668	,	-23116	,	-20780	,	-20.938414	,	0
31,1	,	122684	,	-23119	,	-20769	,	-20.86301	,	0
31,1	,	122701	,	-23104	,	-20754	,	-20.105478	,	0
31,1	,	122732	,	-23089	,	-20771	,	-18.3959	,	0
31,1	,	122748	,	-23089	,	-20760	,	-15.444198	,	1
31,1	,	122764	,	-23075	,	-20762	,	-11.220827	,	3
31,1	,	122796	,	-23072	,	-20764	,	-6.005994	,	7
31,1	,	122812	,	-23070	,	-20737	,	-0.28424263	,	12
31,1	,	122844	,	-23045	,	-20752	,	5.428839	,	17
31,1	,	122860	,	-23045	,	-20747	,	10.842567	,	22
31,1	,	122876	,	-23037	,	-20743	,	15.792836	,	27
31,1	,	122908	,	-23044	,	-20731	,	19.969696	,	31
31,1	,	122924	,	-23035	,	-20742	,	22.97015	,	35
31,1	,	122940	,	-23032	,	-20737	,	24.565144	,	37
31,1	,	122972	,	-23026	,	-20736	,	24.834864	,	36
31,1	,	122988	,	-23030	,	-20728	,	24.031027	,	32
31,1	,	123020	,	-23027	,	-20727	,	22.390617	,	27
31,1	,	123036	,	-23033	,	-20749	,	20.0945	,	22
31,1	,	123052	,	-23042	,	-20727	,	17.24628	,	17
31,1	,	123084	,	-23036	,	-20735	,	13.9071	,	12
31,1	,	123100	,	-23050	,	-20736	,	10.215352	,	8
31,1	,	123116	,	-23049	,	-20739	,	6.3489666	,	4
31,1	,	123148	,	-23052	,	-20746	,	2.484161	,	1
31,1	,	123164	,	-23058	,	-20734	,	-1.1600657	,	0
31,1	,	123180	,	-23054	,	-20742	,	-4.3629227	,	0
31,1	,	123212	,	-23066	,	-20737	,	-6.9601398	,	0
31,1	,	123228	,	-23058	,	-20741	,	-8.880131	,	0
31,1	,	123260	,	-23078	,	-20741	,	-10.162649	,	0
31,1	,	123276	,	-23068	,	-20762	,	-10.954248	,	0
31,1	,	123292	,	-23086	,	-20738	,	-11.439243	,	0
31,1	,	123324	,	-23093	,	-20753	,	-11.836767	,	0
31,1	,	123340	,	-23101	,	-20753	,	-12.421198	,	0
31,1	,	123356	,	-23114	,	-20748	,	-13.399336	,	0
31,1	,	123388	,	-23114	,	-20748	,	-14.821611	,	0
31,1	,	123404	,	-23111	,	-20748	,	-16.496258	,	0
31,1	,	123436	,	-23116	,	-20754	,	-18.00536	,	0
31,1	,	123452	,	-23132	,	-20748	,	-19.039993	,	0
31,1	,	123468	,	-23135	,	-20751	,	-19.634674	,	0
31,1	,	123500	,	-23140	,	-20765	,	-19.967144	,	0
31,1	,	123516	,	-23135	,	-20780	,	-20.074259	,	0
31,2	,	123532	,	-23152	,	-20751	,	-19.886211	,	0
31,2	,	123564	,	-23157	,	-20767	,	-19.47345	,	0
31,2	,	123580	,	-23148	,	-20764	,	-18.981441	,	0
31,2	,	123612	,	-23138	,	-20772	,	-18.277885	,	0
31,2	,	123628	,	-23126	,	-20756	,	-16.931479	,	0
31,2	,	123644	,	-23124	,	-20758	,	-14.54455	,	1
31,2	,	123676	,	-23115	,	-20752	,	-11.022676	,	3
31,2	,	123692	,	-23101	,	-20741	,	-6.5401893	,	6
31,2	,	123708	,	-23088	,	-20736	,	-1.3266625	,	10
31,2	,	123740	,	-23081	,	-20740	,	4.380845	,	15
31,2	,	123756	,	-23064	,	-20761	,	10.285118	,	20
31,2	,	123772	,	-23057	,	-20720	,	16.077751	,	25
31,2	,	123804	,	-23028	,	-20730	,	21.553118	,	30
31,2	,	123820	,	-23024	,	-20728	,	26.659327	,	35
31,2	,	123852	,	-23019	,	-20712	,	31.291864	,	39
31,2	,	123868	,	-23010	,	-20725	,	35.125805	,	41
31,2	,	123884	,	-23004	,	-20720	,	37.815998	,	41
31,2	,	123916	,	-23014	,	-20722	,	39.113194	,	39
31,2	,	123932	,	-22993	,	-20714	,	38.869385	,	35
31,2	,	123948	,	-23015	,	-20719	,	37.13902	,	30
31,2	,	123980	,	-23004	,	-20702	,	34.076027	,	25
31,2	,	123996	,	-23001	,	-20725	,	29.923725	,	20
31,2	,	124028	,	-23007	,	-20714	,	25.120241	,	15
