Data recorded on Mon Jun 26 15:28:24 CAT 2017
Time: 15:28:29
Time		Millis		IR PPG		Red PPG		Filtered		SSF
28,33	,	22272	,	-22623	,	-20566	,	10.195366	,	6
28,33	,	22288	,	-22618	,	-20561	,	8.767718	,	3
28,33	,	22304	,	-22623	,	-20563	,	7.4929023	,	1
28,33	,	22335	,	-22621	,	-20559	,	6.3635497	,	0
28,33	,	22351	,	-22631	,	-20562	,	5.2878113	,	0
28,33	,	22368	,	-22632	,	-20566	,	4.115491	,	0
28,33	,	22400	,	-22629	,	-20562	,	2.7574036	,	0
28,33	,	22416	,	-22626	,	-20576	,	1.3185673	,	0
28,33	,	22447	,	-22630	,	-20548	,	0.012688637	,	0
28,33	,	22463	,	-22638	,	-20561	,	-1.0583887	,	0
28,33	,	22479	,	-22633	,	-20568	,	-1.9435816	,	0
28,33	,	22511	,	-22640	,	-20563	,	-2.6993568	,	0
28,33	,	22527	,	-22646	,	-20565	,	-3.380459	,	0
28,33	,	22543	,	-22645	,	-20570	,	-4.0854993	,	0
28,33	,	22576	,	-22643	,	-20567	,	-4.8296514	,	0
28,33	,	22592	,	-22657	,	-20568	,	-5.5470963	,	0
28,33	,	22623	,	-22653	,	-20575	,	-6.25086	,	0
28,33	,	22639	,	-22663	,	-20573	,	-6.999166	,	0
28,33	,	22655	,	-22664	,	-20587	,	-7.8117185	,	0
28,33	,	22687	,	-22652	,	-20559	,	-8.602091	,	0
28,33	,	22703	,	-22663	,	-20577	,	-9.137571	,	0
28,33	,	22719	,	-22666	,	-20570	,	-9.272664	,	0
28,33	,	22752	,	-22664	,	-20579	,	-9.077149	,	0
28,33	,	22768	,	-22666	,	-20586	,	-8.646313	,	0
28,33	,	22783	,	-22667	,	-20584	,	-8.026352	,	0
28,33	,	22816	,	-22671	,	-20580	,	-7.291739	,	0
28,33	,	22831	,	-22675	,	-20587	,	-6.5736237	,	0
28,33	,	22863	,	-22687	,	-20572	,	-6.0629406	,	0
28,33	,	22879	,	-22676	,	-20580	,	-5.9212313	,	0
28,33	,	22895	,	-22671	,	-20601	,	-6.048541	,	0
28,33	,	22927	,	-22654	,	-20564	,	-6.015647	,	0
28,33	,	22943	,	-22640	,	-20573	,	-5.2456627	,	0
28,33	,	22959	,	-22641	,	-20572	,	-3.3113136	,	0
28,33	,	22992	,	-22632	,	-20574	,	-0.21893239	,	1
28,33	,	23007	,	-22640	,	-20564	,	3.5877275	,	4
28,33	,	23039	,	-22628	,	-20568	,	7.4749904	,	7
28,33	,	23055	,	-22628	,	-20567	,	10.912264	,	10
28,33	,	23071	,	-22630	,	-20569	,	13.567543	,	13
28,33	,	23103	,	-22615	,	-20567	,	15.278465	,	15
28,33	,	23119	,	-22615	,	-20565	,	16.130955	,	16
28,33	,	23135	,	-22620	,	-20578	,	16.320446	,	16
28,33	,	23167	,	-22616	,	-20549	,	15.913031	,	16
28,33	,	23183	,	-22608	,	-20567	,	14.976904	,	15
28,33	,	23199	,	-22610	,	-20562	,	13.731549	,	12
28,33	,	23231	,	-22608	,	-20562	,	12.392397	,	9
28,33	,	23247	,	-22606	,	-20563	,	11.056821	,	6
28,34	,	23279	,	-22610	,	-20564	,	9.748631	,	3
28,34	,	23295	,	-22597	,	-20566	,	8.495552	,	1
28,34	,	23311	,	-22607	,	-20557	,	7.3859572	,	0
28,34	,	23343	,	-22602	,	-20557	,	6.4679375	,	0
28,34	,	23359	,	-22603	,	-20559	,	5.6884775	,	0
28,34	,	23375	,	-22618	,	-20568	,	4.9216013	,	0
28,34	,	23407	,	-22619	,	-20548	,	3.9256885	,	0
28,34	,	23423	,	-22619	,	-20552	,	2.499905	,	0
28,34	,	23455	,	-22612	,	-20551	,	0.7340429	,	0
28,34	,	23471	,	-22626	,	-20565	,	-1.0921634	,	0
28,34	,	23487	,	-22620	,	-20566	,	-2.7765443	,	0
28,34	,	23519	,	-22629	,	-20560	,	-4.233674	,	0
28,34	,	23535	,	-22644	,	-20560	,	-5.510028	,	0
28,34	,	23551	,	-22640	,	-20563	,	-6.7966437	,	0
28,34	,	23583	,	-22636	,	-20570	,	-8.141844	,	0
28,34	,	23599	,	-22635	,	-20567	,	-9.292383	,	0
28,34	,	23615	,	-22636	,	-20573	,	-9.939524	,	0
28,34	,	23647	,	-22639	,	-20561	,	-9.952206	,	0
28,34	,	23663	,	-22639	,	-20562	,	-9.397102	,	0
28,34	,	23695	,	-22642	,	-20575	,	-8.452743	,	0
28,34	,	23711	,	-22641	,	-20571	,	-7.318264	,	0
28,34	,	23727	,	-22645	,	-20564	,	-6.1595917	,	1
28,34	,	23759	,	-22651	,	-20566	,	-5.1364174	,	2
28,34	,	23775	,	-22654	,	-20575	,	-4.437989	,	3
28,34	,	23791	,	-22651	,	-20572	,	-4.178052	,	3
28,34	,	23823	,	-22656	,	-20570	,	-4.293335	,	3
28,34	,	23839	,	-22671	,	-20567	,	-4.701713	,	3
28,34	,	23871	,	-22663	,	-20577	,	-5.4291925	,	3
28,34	,	23887	,	-22662	,	-20569	,	-6.388505	,	3
28,34	,	23903	,	-22673	,	-20573	,	-7.3278527	,	3
28,34	,	23935	,	-22675	,	-20575	,	-8.1205225	,	2
28,34	,	23951	,	-22669	,	-20577	,	-8.755482	,	1
28,34	,	23967	,	-22657	,	-20576	,	-9.055456	,	0
28,34	,	23999	,	-22648	,	-20570	,	-8.647694	,	0
28,34	,	24015	,	-22630	,	-20572	,	-7.1471615	,	0
28,34	,	24047	,	-22636	,	-20567	,	-4.3749876	,	1
28,34	,	24063	,	-22634	,	-20568	,	-0.5913	,	3
28,34	,	24079	,	-22624	,	-20567	,	3.604128	,	6
28,34	,	24111	,	-22625	,	-20569	,	7.6531997	,	10
28,34	,	24127	,	-22620	,	-20551	,	11.162269	,	14
28,34	,	24143	,	-22617	,	-20560	,	13.863451	,	17
28,34	,	24175	,	-22612	,	-20558	,	15.650236	,	19
28,34	,	24191	,	-22624	,	-20562	,	16.502422	,	20
28,34	,	24207	,	-22621	,	-20567	,	16.355978	,	20
28,34	,	24239	,	-22626	,	-20567	,	15.175638	,	19
28,34	,	24255	,	-22616	,	-20559	,	13.128244	,	17
28,35	,	24287	,	-22614	,	-20556	,	10.626176	,	14
28,35	,	24303	,	-22613	,	-20555	,	8.16326	,	10
28,35	,	24319	,	-22614	,	-20557	,	6.0718937	,	6
28,35	,	24351	,	-22620	,	-20568	,	4.4342556	,	3
28,35	,	24367	,	-22608	,	-20563	,	3.202899	,	1
28,35	,	24383	,	-22609	,	-20562	,	2.3861845	,	0
28,35	,	24415	,	-22620	,	-20567	,	1.9723439	,	0
28,35	,	24431	,	-22620	,	-20561	,	1.7421938	,	0
28,35	,	24463	,	-22631	,	-20562	,	1.3728356	,	0
28,35	,	24479	,	-22624	,	-20569	,	0.647277	,	0
28,35	,	24495	,	-22625	,	-20556	,	-0.41564113	,	0
28,35	,	24526	,	-22622	,	-20564	,	-1.5822124	,	0
28,35	,	24543	,	-22621	,	-20558	,	-2.5794842	,	0
28,35	,	24559	,	-22635	,	-20555	,	-3.2774441	,	0
28,35	,	24590	,	-22633	,	-20565	,	-3.7758203	,	0
28,35	,	24607	,	-22638	,	-20571	,	-4.257542	,	0
28,35	,	24623	,	-22635	,	-20557	,	-4.783672	,	0
28,35	,	24655	,	-22643	,	-20566	,	-5.307209	,	0
28,35	,	24671	,	-22642	,	-20565	,	-5.791416	,	0
28,35	,	24702	,	-22635	,	-20565	,	-6.1834764	,	0
28,35	,	24719	,	-22641	,	-20555	,	-6.351163	,	0
28,35	,	24734	,	-22645	,	-20580	,	-6.2332134	,	0
28,35	,	24766	,	-22643	,	-20561	,	-5.923192	,	0
28,35	,	24783	,	-22651	,	-20566	,	-5.5499077	,	0
28,35	,	24798	,	-22648	,	-20569	,	-5.227765	,	0
28,35	,	24830	,	-22656	,	-20577	,	-5.0467668	,	0
28,35	,	24847	,	-22663	,	-20576	,	-5.0881042	,	0
28,35	,	24879	,	-22661	,	-20569	,	-5.4335637	,	0
28,35	,	24895	,	-22662	,	-20571	,	-6.0441155	,	0
28,35	,	24910	,	-22662	,	-20580	,	-6.725712	,	0
28,35	,	24943	,	-22664	,	-20573	,	-7.2675776	,	0
28,35	,	24959	,	-22655	,	-20571	,	-7.5036945	,	0
28,35	,	24975	,	-22642	,	-20565	,	-7.2113395	,	0
28,35	,	25007	,	-22636	,	-20565	,	-6.0922523	,	0
28,35	,	25023	,	-22634	,	-20562	,	-3.9930604	,	1
28,35	,	25039	,	-22635	,	-20564	,	-1.0981236	,	3
28,35	,	25070	,	-22625	,	-20553	,	2.1768215	,	5
28,35	,	25086	,	-22624	,	-20570	,	5.4391594	,	8
28,35	,	25118	,	-22621	,	-20545	,	8.397431	,	11
28,35	,	25135	,	-22620	,	-20557	,	10.810025	,	13
28,35	,	25151	,	-22621	,	-20554	,	12.489146	,	15
28,35	,	25183	,	-22615	,	-20555	,	13.343814	,	16
28,35	,	25198	,	-22623	,	-20564	,	13.389913	,	16
28,35	,	25214	,	-22625	,	-20564	,	12.669033	,	15
28,35	,	25246	,	-22631	,	-20558	,	11.204156	,	13
28,36	,	25263	,	-22617	,	-20554	,	9.133976	,	11
28,36	,	25294	,	-22620	,	-20555	,	6.8205867	,	8
28,36	,	25310	,	-22633	,	-20556	,	4.6123924	,	5
28,36	,	25326	,	-22624	,	-20561	,	2.604906	,	3
28,36	,	25359	,	-22618	,	-20536	,	0.86387396	,	1
28,36	,	25375	,	-22624	,	-20558	,	-0.42417073	,	0
28,36	,	25390	,	-22629	,	-20549	,	-1.1995572	,	0
28,36	,	25422	,	-22631	,	-20550	,	-1.6353576	,	0
28,36	,	25438	,	-22619	,	-20550	,	-1.899955	,	0
28,36	,	25454	,	-22621	,	-20558	,	-1.9597992	,	0
28,36	,	25486	,	-22628	,	-20555	,	-1.743501	,	0
28,36	,	25502	,	-22628	,	-20558	,	-1.3657093	,	0
28,36	,	25534	,	-22642	,	-20553	,	-1.0909712	,	0
28,36	,	25550	,	-22637	,	-20549	,	-1.192244	,	0
28,36	,	25566	,	-22652	,	-20568	,	-1.8262479	,	0
28,36	,	25598	,	-22639	,	-20548	,	-2.9603844	,	0
28,36	,	25614	,	-22645	,	-20564	,	-4.3411665	,	0
28,36	,	25630	,	-22652	,	-20560	,	-5.6534705	,	0
28,36	,	25662	,	-22643	,	-20558	,	-6.7254972	,	0
28,36	,	25678	,	-22643	,	-20559	,	-7.4223537	,	0
28,36	,	25710	,	-22655	,	-20558	,	-7.641494	,	0
28,36	,	25726	,	-22652	,	-20555	,	-7.488352	,	0
28,36	,	25742	,	-22662	,	-20557	,	-7.1951084	,	0
28,36	,	25774	,	-22670	,	-20554	,	-7.007483	,	0
28,36	,	25790	,	-22661	,	-20552	,	-7.104244	,	0
28,36	,	25806	,	-22658	,	-20557	,	-7.3951845	,	0
28,36	,	25838	,	-22664	,	-20535	,	-7.592114	,	0
28,36	,	25854	,	-22668	,	-20557	,	-7.54053	,	0
28,36	,	25870	,	-22671	,	-20567	,	-7.3053207	,	0
28,36	,	25902	,	-22681	,	-20565	,	-7.059401	,	0
28,36	,	25918	,	-22677	,	-20568	,	-6.980622	,	0
28,36	,	25950	,	-22682	,	-20560	,	-7.130045	,	0
28,36	,	25966	,	-22682	,	-20566	,	-7.437167	,	0
28,36	,	25982	,	-22665	,	-20570	,	-7.699283	,	0
28,36	,	26014	,	-22657	,	-20549	,	-7.500216	,	0
28,36	,	26030	,	-22643	,	-20558	,	-6.3492413	,	0
28,36	,	26046	,	-22639	,	-20566	,	-3.9739225	,	1
28,36	,	26078	,	-22647	,	-20541	,	-0.5340674	,	3
28,36	,	26094	,	-22627	,	-20549	,	3.4451425	,	6
28,36	,	26126	,	-22635	,	-20548	,	7.430563	,	9
28,36	,	26142	,	-22633	,	-20538	,	10.976558	,	12
28,36	,	26158	,	-22623	,	-20540	,	13.70057	,	15
28,36	,	26190	,	-22623	,	-20542	,	15.467358	,	17
28,36	,	26206	,	-22621	,	-20548	,	16.347443	,	18
28,36	,	26222	,	-22616	,	-20542	,	16.44809	,	18
28,36	,	26254	,	-22620	,	-20553	,	15.898563	,	17
28,37	,	26270	,	-22616	,	-20545	,	14.830742	,	15
28,37	,	26286	,	-22619	,	-20552	,	13.363956	,	12
28,37	,	26318	,	-22608	,	-20538	,	11.658018	,	9
28,37	,	26334	,	-22606	,	-20535	,	9.971989	,	6
28,37	,	26366	,	-22611	,	-20538	,	8.54917	,	3
28,37	,	26382	,	-22620	,	-20534	,	7.376736	,	1
28,37	,	26398	,	-22613	,	-20539	,	6.233814	,	0
28,37	,	26430	,	-22618	,	-20535	,	4.983181	,	0
28,37	,	26446	,	-22616	,	-20540	,	3.6559112	,	0
28,37	,	26462	,	-22622	,	-20532	,	2.326101	,	0
28,37	,	26494	,	-22628	,	-20531	,	0.99814105	,	0
28,37	,	26510	,	-22616	,	-20529	,	-0.33718324	,	0
28,37	,	26542	,	-22619	,	-20536	,	-1.5371178	,	0
28,37	,	26558	,	-22618	,	-20525	,	-2.3850107	,	0
28,37	,	26574	,	-22612	,	-20530	,	-2.7623212	,	0
28,37	,	26606	,	-22629	,	-20534	,	-2.7037983	,	0
28,37	,	26622	,	-22632	,	-20541	,	-2.4827757	,	0
28,37	,	26638	,	-22627	,	-20534	,	-2.445637	,	0
28,37	,	26670	,	-22637	,	-20529	,	-2.7237687	,	0
28,37	,	26686	,	-22636	,	-20534	,	-3.2968187	,	0
28,37	,	26718	,	-22627	,	-20533	,	-4.051136	,	0
28,37	,	26734	,	-22637	,	-20541	,	-4.748869	,	0
28,37	,	26750	,	-22640	,	-20531	,	-5.2431145	,	0
28,37	,	26782	,	-22649	,	-20540	,	-5.621064	,	0
28,37	,	26798	,	-22645	,	-20532	,	-6.0398445	,	0
28,37	,	26814	,	-22645	,	-20539	,	-6.516368	,	0
28,37	,	26846	,	-22647	,	-20543	,	-6.92064	,	0
28,37	,	26861	,	-22648	,	-20543	,	-7.1319413	,	0
28,37	,	26878	,	-22646	,	-20538	,	-7.0964847	,	0
28,37	,	26910	,	-22659	,	-20540	,	-6.840094	,	0
28,37	,	26925	,	-22652	,	-20546	,	-6.4955177	,	0
28,37	,	26957	,	-22657	,	-20543	,	-6.173007	,	0
28,37	,	26974	,	-22666	,	-20552	,	-5.92357	,	0
28,37	,	26990	,	-22653	,	-20534	,	-5.795106	,	0
28,37	,	27021	,	-22661	,	-20552	,	-5.722028	,	0
28,37	,	27038	,	-22652	,	-20526	,	-5.5376186	,	0
28,37	,	27054	,	-22639	,	-20541	,	-5.032674	,	0
28,37	,	27086	,	-22626	,	-20533	,	-3.8858702	,	0
28,37	,	27102	,	-22622	,	-20526	,	-1.8006749	,	1
28,37	,	27133	,	-22612	,	-20532	,	1.2521429	,	3
28,37	,	27149	,	-22623	,	-20527	,	4.947899	,	6
28,37	,	27165	,	-22608	,	-20530	,	8.711747	,	9
28,37	,	27198	,	-22612	,	-20526	,	12.014089	,	12
28,37	,	27214	,	-22601	,	-20525	,	14.559488	,	15
28,37	,	27230	,	-22596	,	-20525	,	16.283072	,	17
28,38	,	27262	,	-22606	,	-20519	,	17.231453	,	18
28,38	,	27278	,	-22609	,	-20523	,	17.339613	,	18
28,38	,	27293	,	-22602	,	-20520	,	16.4958	,	17
28,38	,	27325	,	-22597	,	-20527	,	14.841393	,	15
28,38	,	27341	,	-22592	,	-20524	,	12.789737	,	12
28,38	,	27373	,	-22600	,	-20519	,	10.745745	,	9
28,38	,	27390	,	-22590	,	-20518	,	8.913831	,	6
28,38	,	27406	,	-22606	,	-20522	,	7.325217	,	3
28,38	,	27438	,	-22592	,	-20510	,	5.906349	,	1
28,38	,	27454	,	-22593	,	-20519	,	4.636812	,	0
28,38	,	27470	,	-22603	,	-20517	,	3.5750782	,	0
28,38	,	27501	,	-22592	,	-20521	,	2.6999292	,	0
28,38	,	27517	,	-22589	,	-20520	,	2.0200624	,	0
28,38	,	27549	,	-22596	,	-20517	,	1.629696	,	0
28,38	,	27566	,	-22597	,	-20522	,	1.488318	,	0
28,38	,	27581	,	-22604	,	-20524	,	1.3847613	,	0
28,38	,	27613	,	-22604	,	-20521	,	1.0883565	,	0
28,38	,	27629	,	-22604	,	-20526	,	0.4846955	,	0
28,38	,	27645	,	-22616	,	-20522	,	-0.4210924	,	0
28,38	,	27677	,	-22619	,	-20526	,	-1.6377416	,	0
28,38	,	27693	,	-22626	,	-20530	,	-3.2005925	,	0
28,38	,	27709	,	-22612	,	-20529	,	-4.9946213	,	0
28,38	,	27741	,	-22615	,	-20536	,	-6.6512303	,	0
28,38	,	27757	,	-22620	,	-20534	,	-7.778718	,	0
28,38	,	27790	,	-22618	,	-20526	,	-8.245455	,	0
28,38	,	27805	,	-22632	,	-20534	,	-8.182228	,	0
28,38	,	27822	,	-22636	,	-20536	,	-7.905587	,	0
28,38	,	27853	,	-22631	,	-20536	,	-7.726741	,	0
28,38	,	27869	,	-22638	,	-20533	,	-7.724004	,	0
28,38	,	27885	,	-22633	,	-20543	,	-7.802019	,	0
28,38	,	27917	,	-22640	,	-20530	,	-7.8413143	,	0
28,38	,	27933	,	-22653	,	-20539	,	-7.8396244	,	0
28,38	,	27965	,	-22650	,	-20538	,	-7.96484	,	0
28,38	,	27981	,	-22655	,	-20538	,	-8.334958	,	0
28,38	,	27997	,	-22640	,	-20541	,	-8.81334	,	0
28,38	,	28029	,	-22634	,	-20529	,	-9.007111	,	0
28,38	,	28045	,	-22617	,	-20530	,	-8.40401	,	0
28,38	,	28061	,	-22609	,	-20524	,	-6.5820603	,	0
28,38	,	28093	,	-22612	,	-20522	,	-3.45162	,	1
28,38	,	28109	,	-22610	,	-20516	,	0.5891428	,	4
28,38	,	28125	,	-22595	,	-20526	,	4.907877	,	8
28,38	,	28157	,	-22598	,	-20519	,	9.02215	,	12
28,38	,	28173	,	-22593	,	-20510	,	12.596041	,	16
28,38	,	28205	,	-22595	,	-20514	,	15.329105	,	19
28,38	,	28221	,	-22577	,	-20518	,	17.080807	,	21
28,38	,	28237	,	-22586	,	-20520	,	17.952309	,	22
28,39	,	28269	,	-22584	,	-20507	,	18.07338	,	22
28,39	,	28285	,	-22584	,	-20503	,	17.469013	,	21
28,39	,	28301	,	-22590	,	-20509	,	16.165607	,	18
28,39	,	28333	,	-22589	,	-20506	,	14.231922	,	14
28,39	,	28349	,	-22584	,	-20507	,	11.825313	,	10
28,39	,	28381	,	-22575	,	-20509	,	9.286741	,	6
28,39	,	28397	,	-22578	,	-20506	,	7.043725	,	3
28,39	,	28413	,	-22574	,	-20507	,	5.3715477	,	1
28,39	,	28445	,	-22574	,	-20509	,	4.3171015	,	0
28,39	,	28461	,	-22583	,	-20507	,	3.7494996	,	0
28,39	,	28477	,	-22576	,	-20519	,	3.4176874	,	0
28,39	,	28509	,	-22580	,	-20500	,	3.1168163	,	0
28,39	,	28525	,	-22582	,	-20518	,	2.7564125	,	0
28,39	,	28557	,	-22584	,	-20500	,	2.2663302	,	0
28,39	,	28573	,	-22582	,	-20507	,	1.6128119	,	0
28,39	,	28589	,	-22585	,	-20512	,	0.8532336	,	0
28,39	,	28621	,	-22580	,	-20510	,	0.09594035	,	0
28,39	,	28637	,	-22601	,	-20510	,	-0.6329642	,	0
28,39	,	28653	,	-22585	,	-20508	,	-1.4410731	,	0
28,39	,	28685	,	-22593	,	-20507	,	-2.348191	,	0
28,39	,	28701	,	-22600	,	-20510	,	-3.2501807	,	0
28,39	,	28717	,	-22592	,	-20527	,	-4.0972233	,	0
28,39	,	28749	,	-22592	,	-20502	,	-4.796303	,	0
28,39	,	28765	,	-22599	,	-20521	,	-5.199457	,	0
28,39	,	28797	,	-22601	,	-20519	,	-5.308402	,	0
28,39	,	28813	,	-22612	,	-20520	,	-5.301818	,	0
28,39	,	28829	,	-22609	,	-20519	,	-5.408349	,	0
28,39	,	28861	,	-22606	,	-20526	,	-5.710438	,	0
28,39	,	28877	,	-22602	,	-20516	,	-6.0380716	,	0
28,39	,	28893	,	-22624	,	-20527	,	-6.2235823	,	0
28,39	,	28925	,	-22619	,	-20526	,	-6.3828115	,	0
28,39	,	28941	,	-22616	,	-20526	,	-6.677993	,	0
28,39	,	28973	,	-22627	,	-20533	,	-7.0598836	,	0
28,39	,	28989	,	-22625	,	-20512	,	-7.4508886	,	0
28,39	,	29005	,	-22610	,	-20520	,	-7.7497683	,	0
28,39	,	29037	,	-22599	,	-20513	,	-7.609357	,	0
28,39	,	29053	,	-22591	,	-20507	,	-6.5651712	,	0
28,39	,	29069	,	-22576	,	-20505	,	-4.3249335	,	1
28,39	,	29101	,	-22567	,	-20510	,	-0.842427	,	3
28,39	,	29117	,	-22571	,	-20504	,	3.6284983	,	6
28,39	,	29133	,	-22563	,	-20501	,	8.492656	,	10
28,39	,	29165	,	-22560	,	-20497	,	13.05822	,	14
28,39	,	29181	,	-22552	,	-20501	,	16.833527	,	18
28,39	,	29213	,	-22555	,	-20516	,	19.558472	,	21
28,39	,	29229	,	-22557	,	-20483	,	21.072773	,	23
28,39	,	29245	,	-22562	,	-20496	,	21.247383	,	24
28,40	,	29277	,	-22554	,	-20487	,	20.094551	,	23
28,40	,	29293	,	-22553	,	-20481	,	17.902822	,	21
28,40	,	29309	,	-22549	,	-20499	,	15.158718	,	18
28,40	,	29341	,	-22552	,	-20487	,	12.317793	,	14
28,40	,	29356	,	-22548	,	-20484	,	9.671185	,	10
28,40	,	29389	,	-22547	,	-20488	,	7.387488	,	6
28,40	,	29405	,	-22541	,	-20486	,	5.6003394	,	3
28,40	,	29421	,	-22547	,	-20488	,	4.3791556	,	1
28,40	,	29453	,	-22540	,	-20493	,	3.6629622	,	0
28,40	,	29468	,	-22555	,	-20475	,	3.2732208	,	0
28,40	,	29484	,	-22543	,	-20493	,	2.9776056	,	0
28,40	,	29517	,	-22547	,	-20484	,	2.6425905	,	0
28,40	,	29533	,	-22551	,	-20475	,	2.2581754	,	0
28,40	,	29549	,	-22554	,	-20483	,	1.7768867	,	0
28,40	,	29580	,	-22565	,	-20486	,	1.0687385	,	0
28,40	,	29596	,	-22553	,	-20485	,	0.040948033	,	0
28,40	,	29629	,	-22566	,	-20484	,	-1.2346787	,	0
28,40	,	29645	,	-22558	,	-20488	,	-2.5788815	,	0
28,40	,	29661	,	-22566	,	-20497	,	-3.8201754	,	0
28,40	,	29693	,	-22568	,	-20500	,	-4.850029	,	0
28,40	,	29708	,	-22570	,	-20473	,	-5.6590843	,	0
28,40	,	29724	,	-22558	,	-20490	,	-6.213702	,	0
28,40	,	29756	,	-22574	,	-20487	,	-6.413805	,	0
28,40	,	29772	,	-22565	,	-20494	,	-6.268404	,	0
28,40	,	29804	,	-22572	,	-20488	,	-5.8922043	,	0
28,40	,	29820	,	-22576	,	-20494	,	-5.414508	,	0
28,40	,	29837	,	-22588	,	-20492	,	-5.04661	,	0
28,40	,	29869	,	-22574	,	-20495	,	-4.9861546	,	0
28,40	,	29885	,	-22583	,	-20500	,	-5.1918945	,	0
28,40	,	29900	,	-22588	,	-20507	,	-5.503327	,	0
28,40	,	29932	,	-22581	,	-20509	,	-5.837309	,	0
28,40	,	29948	,	-22596	,	-20483	,	-6.148449	,	0
28,40	,	29964	,	-22598	,	-20501	,	-6.479283	,	0
28,40	,	29996	,	-22602	,	-20503	,	-6.9572105	,	0
28,40	,	30012	,	-22597	,	-20510	,	-7.5879254	,	0
28,40	,	30044	,	-22609	,	-20508	,	-8.241793	,	0
28,40	,	30061	,	-22592	,	-20506	,	-8.761686	,	0
28,40	,	30076	,	-22579	,	-20508	,	-8.844212	,	0
28,40	,	30109	,	-22566	,	-20496	,	-7.9892654	,	0
28,40	,	30124	,	-22571	,	-20497	,	-5.8587694	,	0
28,40	,	30140	,	-22553	,	-20485	,	-2.556715	,	2
28,40	,	30172	,	-22555	,	-20503	,	1.536305	,	5
28,40	,	30189	,	-22551	,	-20479	,	5.9339924	,	9
28,40	,	30220	,	-22534	,	-20476	,	10.1589	,	13
28,40	,	30236	,	-22530	,	-20481	,	13.957626	,	17
28,40	,	30252	,	-22534	,	-20479	,	17.20075	,	20
28,41	,	30284	,	-22531	,	-20481	,	19.633343	,	23
28,41	,	30300	,	-22521	,	-20481	,	21.027641	,	25
28,41	,	30316	,	-22535	,	-20479	,	21.352901	,	26
28,41	,	30348	,	-22526	,	-20479	,	20.641808	,	24
28,41	,	30364	,	-22533	,	-20471	,	18.97084	,	21
28,41	,	30396	,	-22527	,	-20473	,	16.549881	,	17
28,41	,	30412	,	-22516	,	-20485	,	13.747858	,	13
28,41	,	30428	,	-22516	,	-20464	,	11.064787	,	9
28,41	,	30460	,	-22515	,	-20474	,	8.906046	,	6
28,41	,	30476	,	-22519	,	-20473	,	7.372824	,	3
28,41	,	30492	,	-22516	,	-20471	,	6.3245506	,	1
28,41	,	30524	,	-22515	,	-20471	,	5.576244	,	0
28,41	,	30540	,	-22504	,	-20472	,	5.0586596	,	0
28,41	,	30556	,	-22507	,	-20475	,	4.8269615	,	0
28,41	,	30588	,	-22518	,	-20470	,	4.8447714	,	0
28,41	,	30604	,	-22524	,	-20475	,	4.8065143	,	0
28,41	,	30636	,	-22514	,	-20466	,	4.3758464	,	0
28,41	,	30652	,	-22513	,	-20471	,	3.539136	,	0
28,41	,	30668	,	-22520	,	-20468	,	2.5185633	,	0
28,41	,	30700	,	-22522	,	-20472	,	1.4570892	,	0
28,41	,	30716	,	-22525	,	-20475	,	0.36446893	,	0
28,41	,	30732	,	-22527	,	-20472	,	-0.76499677	,	0
28,41	,	30764	,	-22536	,	-20460	,	-1.9371176	,	0
28,41	,	30780	,	-22531	,	-20473	,	-3.1640866	,	0
28,41	,	30812	,	-22535	,	-20474	,	-4.380906	,	0
28,41	,	30828	,	-22530	,	-20478	,	-5.4269266	,	0
28,41	,	30844	,	-22548	,	-20476	,	-6.2039456	,	0
28,41	,	30876	,	-22542	,	-20481	,	-6.7990227	,	0
28,41	,	30892	,	-22538	,	-20489	,	-7.286499	,	0
28,41	,	30908	,	-22554	,	-20484	,	-7.6078568	,	0
28,41	,	30940	,	-22551	,	-20484	,	-7.8004117	,	0
28,41	,	30956	,	-22565	,	-20476	,	-8.035935	,	0
28,41	,	30972	,	-22558	,	-20485	,	-8.435473	,	0
28,41	,	31004	,	-22554	,	-20485	,	-8.9151745	,	0
28,41	,	31020	,	-22559	,	-20482	,	-9.208197	,	0
28,41	,	31052	,	-22568	,	-20486	,	-9.1689825	,	0
28,41	,	31068	,	-22571	,	-20490	,	-8.933525	,	0
28,41	,	31084	,	-22566	,	-20492	,	-8.6907215	,	0
28,41	,	31116	,	-22567	,	-20496	,	-8.444483	,	0
28,41	,	31132	,	-22570	,	-20489	,	-8.087518	,	0
28,41	,	31148	,	-22562	,	-20483	,	-7.5452995	,	0
28,41	,	31180	,	-22552	,	-20479	,	-6.698414	,	0
28,41	,	31196	,	-22523	,	-20473	,	-5.219721	,	0
28,41	,	31228	,	-22520	,	-20478	,	-2.6398635	,	1
28,41	,	31244	,	-22519	,	-20469	,	1.2075932	,	3
28,41	,	31260	,	-22513	,	-20469	,	5.907666	,	6
28,42	,	31292	,	-22514	,	-20461	,	10.737775	,	10
28,42	,	31308	,	-22511	,	-20467	,	14.994957	,	14
28,42	,	31324	,	-22514	,	-20464	,	18.129183	,	18
28,42	,	31356	,	-22510	,	-20462	,	19.827728	,	21
28,42	,	31372	,	-22512	,	-20468	,	20.05231	,	22
28,42	,	31388	,	-22515	,	-20467	,	18.965479	,	22
28,42	,	31420	,	-22510	,	-20470	,	16.840164	,	21
28,42	,	31436	,	-22511	,	-20468	,	14.052782	,	19
28,42	,	31468	,	-22509	,	-20467	,	11.023833	,	16
28,42	,	31484	,	-22506	,	-20460	,	8.123369	,	12
28,42	,	31500	,	-22511	,	-20460	,	5.6162496	,	8
28,42	,	31532	,	-22497	,	-20454	,	3.665698	,	4
28,42	,	31548	,	-22500	,	-20458	,	2.4123797	,	1
28,42	,	31564	,	-22501	,	-20460	,	1.901053	,	0
28,42	,	31596	,	-22492	,	-20463	,	2.0010016	,	0
28,42	,	31612	,	-22495	,	-20460	,	2.5413613	,	0
28,42	,	31644	,	-22501	,	-20471	,	3.3133206	,	0
28,42	,	31660	,	-22514	,	-20447	,	3.9429245	,	0
28,42	,	31676	,	-22515	,	-20458	,	3.9801776	,	0
28,42	,	31708	,	-22512	,	-20457	,	3.1957726	,	0
28,42	,	31724	,	-22505	,	-20465	,	1.7791951	,	0
28,42	,	31740	,	-22512	,	-20455	,	0.16792858	,	0
28,42	,	31771	,	-22509	,	-20457	,	-1.2840419	,	0
28,42	,	31787	,	-22512	,	-20457	,	-2.4081752	,	0
28,42	,	31804	,	-22513	,	-20462	,	-3.1612027	,	0
28,42	,	31836	,	-22505	,	-20460	,	-3.5464196	,	0
28,42	,	31852	,	-22511	,	-20475	,	-3.5458107	,	0
28,42	,	31884	,	-22518	,	-20481	,	-3.2254884	,	0
28,42	,	31900	,	-22526	,	-20462	,	-2.857698	,	0
28,42	,	31916	,	-22530	,	-20458	,	-2.7928607	,	0
28,42	,	31948	,	-22531	,	-20469	,	-3.2336507	,	0
28,42	,	31964	,	-22535	,	-20471	,	-4.1530166	,	0
28,42	,	31980	,	-22537	,	-20468	,	-5.3789144	,	0
28,42	,	32012	,	-22537	,	-20466	,	-6.6906557	,	0
28,42	,	32028	,	-22531	,	-20469	,	-7.8287764	,	0
28,42	,	32059	,	-22543	,	-20469	,	-8.564807	,	0
28,42	,	32076	,	-22544	,	-20474	,	-8.869443	,	0
28,42	,	32091	,	-22539	,	-20479	,	-8.851821	,	0
28,42	,	32124	,	-22557	,	-20482	,	-8.6179905	,	0
28,42	,	32139	,	-22534	,	-20447	,	-8.2644615	,	0
28,42	,	32155	,	-22510	,	-20455	,	-7.594033	,	0
28,42	,	32187	,	-22503	,	-20441	,	-6.001737	,	0
28,42	,	32203	,	-22490	,	-20452	,	-3.0055966	,	1
28,42	,	32219	,	-22488	,	-20443	,	1.3585732	,	3
28,42	,	32252	,	-22479	,	-20444	,	6.613941	,	7
28,43	,	32268	,	-22481	,	-20441	,	12.05281	,	12
28,43	,	32299	,	-22471	,	-20430	,	16.960918	,	17
28,43	,	32316	,	-22469	,	-20427	,	20.827015	,	21
28,43	,	32331	,	-22470	,	-20433	,	23.38524	,	24
28,43	,	32364	,	-22468	,	-20450	,	24.51146	,	26
28,43	,	32380	,	-22478	,	-20419	,	24.171589	,	27
28,43	,	32395	,	-22466	,	-20434	,	22.46487	,	26
28,43	,	32427	,	-22461	,	-20428	,	19.753742	,	24
28,43	,	32443	,	-22456	,	-20428	,	16.644152	,	20
28,43	,	32475	,	-22455	,	-20429	,	13.710229	,	15
28,43	,	32491	,	-22456	,	-20425	,	11.276774	,	10
28,43	,	32507	,	-22452	,	-20424	,	9.417278	,	6
28,43	,	32539	,	-22454	,	-20427	,	8.066391	,	3
28,43	,	32555	,	-22439	,	-20422	,	7.1582904	,	1
28,43	,	32571	,	-22445	,	-20425	,	6.7023716	,	0
28,43	,	32603	,	-22454	,	-20433	,	6.609775	,	0
28,43	,	32620	,	-22460	,	-20410	,	6.5198364	,	0
28,43	,	32651	,	-22458	,	-20423	,	6.0232954	,	0
28,43	,	32667	,	-22454	,	-20419	,	4.9918337	,	0
28,43	,	32684	,	-22464	,	-20427	,	3.5624473	,	0
28,43	,	32715	,	-22452	,	-20421	,	1.9450154	,	0
28,43	,	32731	,	-22458	,	-20425	,	0.39027238	,	0
28,43	,	32747	,	-22454	,	-20425	,	-0.86047924	,	0
28,43	,	32779	,	-22458	,	-20427	,	-1.696388	,	0
28,43	,	32795	,	-22468	,	-20419	,	-2.1853323	,	0
28,43	,	32811	,	-22462	,	-20431	,	-2.5265427	,	0
28,43	,	32843	,	-22472	,	-20442	,	-2.8893743	,	0
28,43	,	32859	,	-22480	,	-20411	,	-3.4026523	,	0
28,43	,	32891	,	-22476	,	-20429	,	-4.1938906	,	0
28,43	,	32907	,	-22478	,	-20430	,	-5.228649	,	0
28,43	,	32923	,	-22496	,	-20436	,	-6.3748956	,	0
28,43	,	32955	,	-22485	,	-20435	,	-7.5968504	,	0
28,43	,	32971	,	-22481	,	-20436	,	-8.765081	,	0
28,43	,	32987	,	-22486	,	-20426	,	-9.560865	,	0
28,43	,	33019	,	-22492	,	-20431	,	-9.799919	,	0
28,43	,	33035	,	-22494	,	-20435	,	-9.587081	,	0
28,43	,	33067	,	-22498	,	-20440	,	-9.142166	,	0
28,43	,	33083	,	-22498	,	-20450	,	-8.63644	,	0
28,43	,	33099	,	-22506	,	-20429	,	-8.175682	,	0
28,43	,	33131	,	-22502	,	-20439	,	-7.8329344	,	0
28,43	,	33147	,	-22490	,	-20430	,	-7.543062	,	0
28,43	,	33163	,	-22472	,	-20414	,	-6.9478498	,	0
28,43	,	33195	,	-22464	,	-20421	,	-5.518385	,	0
28,43	,	33211	,	-22440	,	-20410	,	-2.8388307	,	1
28,43	,	33227	,	-22431	,	-20422	,	1.2686608	,	3
28,43	,	33259	,	-22435	,	-20414	,	6.592675	,	7
28,44	,	33275	,	-22426	,	-20405	,	12.432178	,	12
28,44	,	33307	,	-22424	,	-20406	,	17.914982	,	17
28,44	,	33323	,	-22409	,	-20420	,	22.41687	,	22
28,44	,	33339	,	-22414	,	-20393	,	25.650812	,	26
28,44	,	33371	,	-22421	,	-20401	,	27.439686	,	29
28,44	,	33387	,	-22412	,	-20405	,	27.617073	,	30
28,44	,	33403	,	-22417	,	-20405	,	26.240185	,	29
28,44	,	33435	,	-22412	,	-20400	,	23.634617	,	27
28,44	,	33451	,	-22413	,	-20397	,	20.235264	,	23
28,44	,	33483	,	-22404	,	-20393	,	16.518003	,	18
28,44	,	33499	,	-22405	,	-20399	,	12.961429	,	13
28,44	,	33515	,	-22408	,	-20390	,	9.909863	,	8
28,44	,	33547	,	-22396	,	-20386	,	7.5120115	,	4
28,44	,	33563	,	-22396	,	-20404	,	5.85823	,	1
28,44	,	33579	,	-22401	,	-20383	,	4.9572964	,	0
28,44	,	33611	,	-22402	,	-20399	,	4.5882926	,	0
28,44	,	33627	,	-22401	,	-20397	,	4.4228306	,	0
28,44	,	33643	,	-22398	,	-20390	,	4.2479353	,	0
28,44	,	33675	,	-22399	,	-20400	,	4.000717	,	0
28,44	,	33691	,	-22409	,	-20395	,	3.635751	,	0
28,44	,	33723	,	-22408	,	-20405	,	3.0335515	,	0
28,44	,	33739	,	-22416	,	-20404	,	2.0795963	,	0
28,44	,	33755	,	-22409	,	-20399	,	0.78179204	,	0
28,44	,	33787	,	-22413	,	-20399	,	-0.68768036	,	0
28,44	,	33803	,	-22417	,	-20417	,	-2.1045141	,	0
28,44	,	33819	,	-22421	,	-20398	,	-3.3667116	,	0
28,44	,	33851	,	-22431	,	-20410	,	-4.5259094	,	0
28,44	,	33867	,	-22429	,	-20412	,	-5.6903	,	0
28,44	,	33899	,	-22440	,	-20411	,	-6.913367	,	0
28,44	,	33915	,	-22434	,	-20405	,	-8.158207	,	0
28,44	,	33931	,	-22440	,	-20422	,	-9.29901	,	0
28,44	,	33962	,	-22435	,	-20417	,	-10.152157	,	0
28,44	,	33978	,	-22438	,	-20413	,	-10.550674	,	0
28,44	,	33995	,	-22444	,	-20427	,	-10.440552	,	0
28,44	,	34027	,	-22452	,	-20410	,	-9.978035	,	0
28,44	,	34042	,	-22453	,	-20423	,	-9.455571	,	0
28,44	,	34074	,	-22454	,	-20415	,	-9.07897	,	0
28,44	,	34090	,	-22455	,	-20426	,	-8.866037	,	0
28,44	,	34107	,	-22471	,	-20400	,	-8.799312	,	0
28,44	,	34139	,	-22468	,	-20437	,	-8.9703045	,	0
28,44	,	34155	,	-22477	,	-20436	,	-9.453737	,	0
28,44	,	34171	,	-22470	,	-20430	,	-10.162328	,	0
28,44	,	34203	,	-22459	,	-20425	,	-10.796303	,	0
28,44	,	34219	,	-22435	,	-20421	,	-10.784632	,	0
28,44	,	34250	,	-22424	,	-20407	,	-9.42329	,	0
28,45	,	34266	,	-22409	,	-20412	,	-6.2479253	,	1
28,45	,	34282	,	-22402	,	-20420	,	-1.2926326	,	4
28,45	,	34315	,	-22401	,	-20397	,	4.9030766	,	8
28,45	,	34331	,	-22405	,	-20403	,	11.4128895	,	14
28,45	,	34347	,	-22398	,	-20398	,	17.203438	,	20
28,45	,	34379	,	-22402	,	-20402	,	21.494865	,	25
28,45	,	34395	,	-22385	,	-20406	,	23.97193	,	29
28,45	,	34410	,	-22389	,	-20405	,	24.781525	,	31
28,45	,	34442	,	-22401	,	-20410	,	24.208956	,	31
28,45	,	34458	,	-22407	,	-20411	,	22.339657	,	30
28,45	,	34491	,	-22403	,	-20412	,	19.22264	,	27
28,45	,	34506	,	-22397	,	-20403	,	15.209537	,	23
28,45	,	34522	,	-22398	,	-20411	,	10.921798	,	17
28,45	,	34554	,	-22406	,	-20396	,	6.910468	,	11
28,45	,	34571	,	-22389	,	-20402	,	3.5084238	,	6
28,45	,	34587	,	-22404	,	-20410	,	0.9380355	,	2
28,45	,	34618	,	-22384	,	-20411	,	-0.68634987	,	0
28,45	,	34634	,	-22402	,	-20409	,	-1.3962264	,	0
28,45	,	34666	,	-22403	,	-20413	,	-1.4352621	,	0
28,45	,	34682	,	-22401	,	-20416	,	-1.2077688	,	0
28,45	,	34698	,	-22405	,	-20418	,	-1.0082589	,	0
28,45	,	34730	,	-22406	,	-20412	,	-0.96279174	,	0
28,45	,	34746	,	-22408	,	-20420	,	-1.1233698	,	0
28,45	,	34762	,	-22407	,	-20433	,	-1.4711146	,	0
28,45	,	34794	,	-22408	,	-20411	,	-1.9168437	,	0
28,45	,	34810	,	-22422	,	-20418	,	-2.4132984	,	0
28,45	,	34826	,	-22424	,	-20420	,	-3.0817413	,	0
28,45	,	34858	,	-22426	,	-20428	,	-4.0702667	,	0
28,45	,	34874	,	-22433	,	-20426	,	-5.363084	,	0
28,45	,	34906	,	-22433	,	-20423	,	-6.829538	,	0
28,45	,	34922	,	-22438	,	-20431	,	-8.307128	,	0
28,45	,	34938	,	-22436	,	-20431	,	-9.618601	,	0
28,45	,	34970	,	-22443	,	-20432	,	-10.608646	,	0
28,45	,	34986	,	-22441	,	-20426	,	-11.196133	,	0
28,45	,	35002	,	-22440	,	-20454	,	-11.350082	,	0
28,45	,	35034	,	-22463	,	-20425	,	-11.143461	,	0
28,45	,	35050	,	-22462	,	-20429	,	-10.887766	,	0
28,45	,	35082	,	-22463	,	-20438	,	-10.89973	,	0
28,45	,	35098	,	-22468	,	-20444	,	-11.203491	,	0
28,45	,	35114	,	-22468	,	-20449	,	-11.640932	,	0
28,45	,	35146	,	-22461	,	-20436	,	-11.991991	,	0
28,45	,	35162	,	-22443	,	-20429	,	-11.88834	,	0
28,45	,	35178	,	-22434	,	-20425	,	-10.823668	,	0
28,45	,	35210	,	-22433	,	-20421	,	-8.455003	,	1
28,45	,	35226	,	-22436	,	-20429	,	-4.927322	,	3
28,45	,	35242	,	-22420	,	-20434	,	-0.7605238	,	6
28,46	,	35274	,	-22423	,	-20426	,	3.5327163	,	10
28,46	,	35290	,	-22426	,	-20428	,	7.5115843	,	14
28,46	,	35322	,	-22427	,	-20435	,	10.6943	,	17
28,46	,	35338	,	-22432	,	-20440	,	12.672366	,	20
28,46	,	35354	,	-22421	,	-20431	,	13.310698	,	21
28,46	,	35386	,	-22434	,	-20438	,	12.767397	,	21
28,46	,	35402	,	-22442	,	-20435	,	11.244879	,	20
28,46	,	35418	,	-22436	,	-20438	,	8.882246	,	18
28,46	,	35450	,	-22434	,	-20437	,	5.9854074	,	15
28,46	,	35466	,	-22421	,	-20439	,	3.1043653	,	11
28,46	,	35498	,	-22432	,	-20444	,	0.7891183	,	7
28,46	,	35514	,	-22432	,	-20437	,	-0.7214463	,	4
28,46	,	35530	,	-22432	,	-20442	,	-1.526559	,	1
28,46	,	35562	,	-22421	,	-20438	,	-1.769318	,	0
28,46	,	35578	,	-22442	,	-20440	,	-1.5619475	,	0
28,46	,	35594	,	-22440	,	-20441	,	-1.1982954	,	0
28,46	,	35626	,	-22433	,	-20452	,	-1.0146513	,	0
28,46	,	35642	,	-22432	,	-20438	,	-1.0484407	,	0
28,46	,	35658	,	-22442	,	-20445	,	-1.1672244	,	0
28,46	,	35690	,	-22444	,	-20447	,	-1.3746516	,	0
28,46	,	35706	,	-22441	,	-20443	,	-1.7484752	,	0
28,46	,	35738	,	-22453	,	-20447	,	-2.295917	,	0
28,46	,	35754	,	-22457	,	-20448	,	-3.0492706	,	0
28,46	,	35770	,	-22465	,	-20451	,	-4.110426	,	0
28,46	,	35802	,	-22465	,	-20451	,	-5.5173078	,	0
28,46	,	35818	,	-22467	,	-20452	,	-7.148015	,	0
28,46	,	35834	,	-22469	,	-20457	,	-8.757461	,	0
28,46	,	35866	,	-22478	,	-20455	,	-10.135445	,	0
28,46	,	35882	,	-22482	,	-20458	,	-11.229977	,	0
28,46	,	35914	,	-22482	,	-20460	,	-12.073693	,	0
28,46	,	35930	,	-22485	,	-20466	,	-12.652313	,	0
28,46	,	35946	,	-22478	,	-20456	,	-12.874935	,	0
28,46	,	35978	,	-22491	,	-20461	,	-12.65488	,	0
28,46	,	35994	,	-22491	,	-20467	,	-12.063384	,	0
28,46	,	36010	,	-22503	,	-20453	,	-11.347121	,	0
28,46	,	36042	,	-22499	,	-20459	,	-10.75721	,	0
28,46	,	36058	,	-22503	,	-20465	,	-10.386993	,	0
28,46	,	36073	,	-22507	,	-20467	,	-10.188268	,	0
28,46	,	36106	,	-22478	,	-20457	,	-9.956406	,	0
28,46	,	36122	,	-22472	,	-20452	,	-9.181463	,	0
28,46	,	36154	,	-22460	,	-20455	,	-7.284645	,	0
28,46	,	36170	,	-22461	,	-20448	,	-4.0872426	,	1
28,46	,	36186	,	-22462	,	-20451	,	0.06206751	,	4
28,46	,	36218	,	-22450	,	-20448	,	4.523492	,	8
28,46	,	36234	,	-22457	,	-20449	,	8.694637	,	12
28,46	,	36250	,	-22453	,	-20444	,	12.096508	,	16
28,47	,	36282	,	-22447	,	-20452	,	14.414442	,	19
28,47	,	36298	,	-22445	,	-20444	,	15.622126	,	21
28,47	,	36329	,	-22454	,	-20445	,	15.846815	,	22
28,47	,	36345	,	-22455	,	-20447	,	15.1452	,	22
28,47	,	36362	,	-22455	,	-20443	,	13.56101	,	21
28,47	,	36394	,	-22446	,	-20446	,	11.319565	,	18
28,47	,	36410	,	-22451	,	-20444	,	8.8202915	,	14
28,47	,	36425	,	-22445	,	-20442	,	6.4395742	,	10
28,47	,	36457	,	-22452	,	-20446	,	4.4084783	,	6
28,47	,	36474	,	-22451	,	-20451	,	2.796792	,	3
28,47	,	36490	,	-22452	,	-20445	,	1.5610628	,	1
28,47	,	36522	,	-22454	,	-20446	,	0.6264522	,	0
28,47	,	36538	,	-22455	,	-20447	,	-0.09413278	,	0
28,47	,	36569	,	-22445	,	-20446	,	-0.6380631	,	0
28,47	,	36585	,	-22460	,	-20446	,	-0.9774032	,	0
28,47	,	36601	,	-22460	,	-20441	,	-1.1944435	,	0
28,47	,	36633	,	-22458	,	-20445	,	-1.460211	,	0
28,47	,	36650	,	-22464	,	-20447	,	-1.8366182	,	0
28,47	,	36666	,	-22460	,	-20444	,	-2.2895179	,	0
28,47	,	36698	,	-22467	,	-20443	,	-2.7720242	,	0
28,47	,	36714	,	-22470	,	-20455	,	-3.2768102	,	0
28,47	,	36745	,	-22468	,	-20444	,	-3.8293486	,	0
28,47	,	36762	,	-22478	,	-20451	,	-4.426767	,	0
28,47	,	36778	,	-22467	,	-20445	,	-5.02693	,	0
28,47	,	36810	,	-22484	,	-20445	,	-5.5634046	,	0
28,47	,	36825	,	-22480	,	-20446	,	-6.0342712	,	0
28,47	,	36841	,	-22485	,	-20454	,	-6.4941616	,	0
28,47	,	36873	,	-22495	,	-20458	,	-6.9825616	,	0
28,47	,	36890	,	-22493	,	-20452	,	-7.560465	,	0
28,47	,	36921	,	-22489	,	-20446	,	-8.199145	,	0
28,47	,	36937	,	-22494	,	-20457	,	-8.70733	,	0
28,47	,	36953	,	-22505	,	-20470	,	-8.975848	,	0
28,47	,	36985	,	-22500	,	-20450	,	-9.09566	,	0
28,47	,	37001	,	-22509	,	-20458	,	-9.174907	,	0
28,47	,	37017	,	-22521	,	-20459	,	-9.316729	,	0
28,47	,	37049	,	-22522	,	-20461	,	-9.695262	,	0
28,47	,	37065	,	-22518	,	-20471	,	-10.358815	,	0
28,47	,	37081	,	-22513	,	-20467	,	-11.058035	,	0
28,47	,	37114	,	-22506	,	-20469	,	-11.366251	,	0
28,47	,	37129	,	-22494	,	-20455	,	-10.860602	,	0
28,47	,	37161	,	-22485	,	-20460	,	-9.227337	,	0
28,47	,	37177	,	-22474	,	-20452	,	-6.3412843	,	1
28,47	,	37193	,	-22476	,	-20470	,	-2.3553495	,	3
28,47	,	37225	,	-22471	,	-20430	,	2.2616978	,	6
28,47	,	37241	,	-22469	,	-20446	,	6.882058	,	10
28,47	,	37257	,	-22465	,	-20442	,	10.9589615	,	14
28,48	,	37289	,	-22452	,	-20443	,	14.1844635	,	18
28,48	,	37305	,	-22456	,	-20442	,	16.50671	,	21
28,48	,	37337	,	-22472	,	-20435	,	17.860939	,	23
28,48	,	37353	,	-22461	,	-20441	,	18.025892	,	24
28,48	,	37369	,	-22457	,	-20446	,	16.977	,	23
28,48	,	37401	,	-22453	,	-20443	,	15.084743	,	21
28,48	,	37417	,	-22460	,	-20442	,	12.818101	,	18
28,48	,	37433	,	-22458	,	-20444	,	10.464594	,	14
28,48	,	37465	,	-22447	,	-20427	,	8.211955	,	10
28,48	,	37481	,	-22449	,	-20436	,	6.3151236	,	6
28,48	,	37497	,	-22458	,	-20436	,	4.92975	,	3
28,48	,	37529	,	-22450	,	-20429	,	3.9516063	,	1
28,48	,	37545	,	-22462	,	-20443	,	3.1806686	,	0
28,48	,	37577	,	-22460	,	-20440	,	2.4340231	,	0
28,48	,	37593	,	-22446	,	-20445	,	1.6555061	,	0
28,48	,	37609	,	-22444	,	-20439	,	1.0586431	,	0
28,48	,	37641	,	-22456	,	-20442	,	0.8617748	,	0
28,48	,	37657	,	-22447	,	-20439	,	0.98895216	,	0
28,48	,	37673	,	-22472	,	-20447	,	1.1497825	,	0
28,48	,	37705	,	-22469	,	-20425	,	0.9480992	,	0
28,48	,	37721	,	-22467	,	-20442	,	0.11456621	,	0
28,48	,	37753	,	-22468	,	-20440	,	-1.2369127	,	0
28,48	,	37769	,	-22476	,	-20450	,	-2.8033066	,	0
28,48	,	37785	,	-22480	,	-20445	,	-4.3967547	,	0
28,48	,	37817	,	-22481	,	-20451	,	-5.9447556	,	0
28,48	,	37833	,	-22481	,	-20455	,	-7.3485227	,	0
28,48	,	37849	,	-22489	,	-20446	,	-8.482242	,	0
28,48	,	37881	,	-22488	,	-20449	,	-9.297075	,	0
28,48	,	37897	,	-22480	,	-20453	,	-9.753351	,	0
28,48	,	37913	,	-22498	,	-20469	,	-9.7947645	,	0
28,48	,	37945	,	-22496	,	-20432	,	-9.539232	,	0
28,48	,	37961	,	-22496	,	-20451	,	-9.204896	,	0
28,48	,	37993	,	-22493	,	-20456	,	-8.840217	,	0
28,48	,	38009	,	-22514	,	-20458	,	-8.440014	,	0
28,48	,	38025	,	-22502	,	-20460	,	-8.146672	,	0
28,48	,	38057	,	-22515	,	-20462	,	-8.080958	,	0
28,48	,	38073	,	-22515	,	-20460	,	-8.237607	,	0
28,48	,	38089	,	-22507	,	-20465	,	-8.52903	,	0
28,48	,	38121	,	-22495	,	-20461	,	-8.6643505	,	0
28,48	,	38137	,	-22484	,	-20432	,	-8.158139	,	0
28,48	,	38169	,	-22473	,	-20448	,	-6.574208	,	0
28,48	,	38185	,	-22472	,	-20441	,	-3.7622848	,	1
28,48	,	38201	,	-22468	,	-20442	,	0.02956605	,	3
28,48	,	38233	,	-22463	,	-20448	,	4.274102	,	6
28,48	,	38249	,	-22470	,	-20443	,	8.3665495	,	10
28,49	,	38265	,	-22454	,	-20440	,	11.7863865	,	14
28,49	,	38297	,	-22460	,	-20437	,	14.266403	,	17
28,49	,	38313	,	-22458	,	-20443	,	15.741879	,	19
28,49	,	38329	,	-22464	,	-20441	,	16.17426	,	20
28,49	,	38361	,	-22469	,	-20443	,	15.535319	,	20
28,49	,	38377	,	-22464	,	-20451	,	13.886374	,	19
28,49	,	38409	,	-22462	,	-20441	,	11.486301	,	17
28,49	,	38425	,	-22464	,	-20433	,	8.749388	,	14
28,49	,	38441	,	-22458	,	-20446	,	6.072846	,	10
28,49	,	38473	,	-22452	,	-20437	,	3.8052197	,	6
28,49	,	38489	,	-22467	,	-20443	,	2.1740155	,	3
28,49	,	38505	,	-22457	,	-20439	,	1.1382782	,	1
28,49	,	38536	,	-22448	,	-20437	,	0.5874833	,	0
28,49	,	38552	,	-22447	,	-20446	,	0.57911575	,	0
28,49	,	38585	,	-22457	,	-20438	,	1.1093683	,	0
28,49	,	38601	,	-22460	,	-20443	,	1.8735492	,	0
28,49	,	38617	,	-22454	,	-20444	,	2.4767783	,	0
28,49	,	38649	,	-22464	,	-20450	,	2.706114	,	0
28,49	,	38665	,	-22470	,	-20439	,	2.4535966	,	0
28,49	,	38681	,	-22472	,	-20442	,	1.6175936	,	0
28,49	,	38713	,	-22484	,	-20451	,	0.16762388	,	0
28,49	,	38729	,	-22479	,	-20443	,	-1.8208517	,	0
28,49	,	38745	,	-22484	,	-20447	,	-4.1160936	,	0
28,49	,	38777	,	-22484	,	-20449	,	-6.3671794	,	0
28,49	,	38793	,	-22484	,	-20445	,	-8.255487	,	0
28,49	,	38825	,	-22484	,	-20456	,	-9.553925	,	0
28,49	,	38841	,	-22488	,	-20455	,	-10.155896	,	0
28,49	,	38856	,	-22484	,	-20454	,	-10.0900135	,	0
28,49	,	38889	,	-22496	,	-20451	,	-9.497626	,	0
28,49	,	38904	,	-22503	,	-20447	,	-8.676914	,	0
28,49	,	38920	,	-22513	,	-20458	,	-8.054346	,	0
28,49	,	38952	,	-22511	,	-20458	,	-7.9606886	,	0
28,49	,	38968	,	-22522	,	-20462	,	-8.46419	,	0
28,49	,	39000	,	-22510	,	-20458	,	-9.383871	,	0
28,49	,	39016	,	-22510	,	-20463	,	-10.324535	,	0
28,49	,	39032	,	-22503	,	-20448	,	-10.804185	,	0
28,49	,	39065	,	-22490	,	-20439	,	-10.422647	,	0
28,49	,	39081	,	-22470	,	-20439	,	-8.832808	,	0
28,49	,	39097	,	-22468	,	-20436	,	-5.7832613	,	1
28,49	,	39129	,	-22471	,	-20430	,	-1.4302988	,	4
28,49	,	39144	,	-22455	,	-20441	,	3.6200004	,	8
28,49	,	39161	,	-22462	,	-20430	,	8.674938	,	13
28,49	,	39192	,	-22465	,	-20435	,	13.0927	,	18
28,49	,	39209	,	-22455	,	-20440	,	16.315369	,	22
28,49	,	39241	,	-22459	,	-20431	,	18.097565	,	25
28,49	,	39256	,	-22461	,	-20428	,	18.477726	,	26
28,50	,	39273	,	-22459	,	-20433	,	17.593256	,	26
28,50	,	39305	,	-22459	,	-20431	,	15.698196	,	25
28,50	,	39320	,	-22458	,	-20434	,	13.160733	,	22
28,50	,	39336	,	-22451	,	-20423	,	10.389576	,	18
28,50	,	39368	,	-22442	,	-20432	,	7.838139	,	13
28,50	,	39384	,	-22442	,	-20438	,	5.938017	,	8
28,50	,	39416	,	-22442	,	-20425	,	4.889162	,	4
28,50	,	39433	,	-22448	,	-20428	,	4.557271	,	1
28,50	,	39449	,	-22441	,	-20431	,	4.6246643	,	0
28,50	,	39481	,	-22445	,	-20432	,	4.81056	,	0
28,50	,	39497	,	-22449	,	-20427	,	4.9070497	,	0
28,50	,	39513	,	-22448	,	-20430	,	4.7389145	,	0
28,50	,	39544	,	-22450	,	-20439	,	4.2254744	,	0
28,50	,	39561	,	-22461	,	-20439	,	3.3482816	,	0
28,50	,	39577	,	-22456	,	-20436	,	2.0787785	,	0
28,50	,	39608	,	-22452	,	-20441	,	0.52262723	,	0
28,50	,	39624	,	-22459	,	-20451	,	-1.0413027	,	0
28,50	,	39656	,	-22462	,	-20433	,	-2.4117856	,	0
28,50	,	39672	,	-22467	,	-20442	,	-3.582168	,	0
28,50	,	39688	,	-22470	,	-20441	,	-4.6317186	,	0
28,50	,	39721	,	-22468	,	-20436	,	-5.603149	,	0
28,50	,	39736	,	-22476	,	-20434	,	-6.4653234	,	0
28,50	,	39753	,	-22469	,	-20439	,	-7.156887	,	0
28,50	,	39784	,	-22471	,	-20445	,	-7.5771713	,	0
28,50	,	39800	,	-22474	,	-20440	,	-7.621648	,	0
28,50	,	39832	,	-22476	,	-20451	,	-7.3070955	,	0
28,50	,	39848	,	-22479	,	-20450	,	-6.770522	,	0
28,50	,	39864	,	-22479	,	-20463	,	-6.165086	,	0
28,50	,	39896	,	-22485	,	-20447	,	-5.6124277	,	0
28,50	,	39912	,	-22494	,	-20452	,	-5.257502	,	0
28,50	,	39928	,	-22495	,	-20460	,	-5.2745466	,	0
28,50	,	39960	,	-22502	,	-20456	,	-5.74928	,	0
28,50	,	39976	,	-22502	,	-20464	,	-6.626129	,	0
28,50	,	40008	,	-22513	,	-20457	,	-7.778188	,	0
28,50	,	40024	,	-22494	,	-20455	,	-8.999556	,	0
28,50	,	40040	,	-22490	,	-20451	,	-9.872505	,	0
28,50	,	40072	,	-22475	,	-20441	,	-9.840029	,	0
28,50	,	40088	,	-22458	,	-20448	,	-8.437472	,	0
28,50	,	40104	,	-22456	,	-20458	,	-5.4425235	,	1
28,50	,	40136	,	-22450	,	-20432	,	-1.0466309	,	3
28,50	,	40152	,	-22455	,	-20434	,	4.1075554	,	7
28,50	,	40168	,	-22447	,	-20436	,	9.176779	,	12
28,50	,	40200	,	-22440	,	-20431	,	13.488722	,	17
28,50	,	40216	,	-22436	,	-20436	,	16.738846	,	21
28,50	,	40248	,	-22442	,	-20430	,	18.83787	,	24
28,51	,	40264	,	-22440	,	-20436	,	19.709648	,	26
28,51	,	40280	,	-22437	,	-20423	,	19.354046	,	26
28,51	,	40312	,	-22443	,	-20433	,	17.947884	,	25
28,51	,	40328	,	-22442	,	-20435	,	15.745214	,	23
28,51	,	40344	,	-22440	,	-20437	,	13.011346	,	19
28,51	,	40376	,	-22433	,	-20405	,	10.093928	,	14
28,51	,	40392	,	-22437	,	-20426	,	7.380503	,	9
28,51	,	40424	,	-22441	,	-20433	,	5.0998073	,	5
28,51	,	40440	,	-22435	,	-20437	,	3.2822466	,	2
28,51	,	40456	,	-22436	,	-20425	,	1.9225712	,	0
28,51	,	40488	,	-22430	,	-20431	,	1.0447793	,	0
28,51	,	40504	,	-22428	,	-20427	,	0.6783298	,	0
28,51	,	40520	,	-22438	,	-20434	,	0.77259964	,	0
28,51	,	40552	,	-22442	,	-20438	,	1.064878	,	0
28,51	,	40568	,	-22444	,	-20433	,	1.1851497	,	0
28,51	,	40584	,	-22447	,	-20455	,	0.89556193	,	0
28,51	,	40616	,	-22445	,	-20429	,	0.1696893	,	0
28,51	,	40632	,	-22459	,	-20441	,	-0.90384156	,	0
28,51	,	40664	,	-22457	,	-20439	,	-2.2656846	,	0
28,51	,	40680	,	-22458	,	-20440	,	-3.836544	,	0
28,51	,	40696	,	-22459	,	-20444	,	-5.410828	,	0
28,51	,	40728	,	-22468	,	-20442	,	-6.7889185	,	0
28,51	,	40744	,	-22462	,	-20441	,	-7.8885202	,	0
28,51	,	40760	,	-22477	,	-20440	,	-8.698992	,	0
28,51	,	40792	,	-22471	,	-20444	,	-9.274653	,	0
28,51	,	40808	,	-22475	,	-20446	,	-9.665882	,	0
28,51	,	40840	,	-22478	,	-20453	,	-9.853138	,	0
28,51	,	40856	,	-22485	,	-20432	,	-9.85671	,	0
28,51	,	40872	,	-22497	,	-20455	,	-9.838566	,	0
28,51	,	40904	,	-22489	,	-20456	,	-9.993054	,	0
28,51	,	40920	,	-22485	,	-20446	,	-10.269312	,	0
28,51	,	40936	,	-22491	,	-20451	,	-10.377979	,	0
28,51	,	40968	,	-22498	,	-20451	,	-10.161618	,	0
28,51	,	40984	,	-22503	,	-20454	,	-9.751392	,	0
28,51	,	41000	,	-22503	,	-20458	,	-9.368948	,	0
28,51	,	41032	,	-22499	,	-20458	,	-9.089409	,	0
28,51	,	41048	,	-22506	,	-20449	,	-8.8211355	,	0
28,51	,	41080	,	-22517	,	-20474	,	-8.539076	,	0
28,51	,	41096	,	-22505	,	-20443	,	-8.344002	,	0
28,51	,	41112	,	-22482	,	-20451	,	-8.078844	,	0
28,51	,	41144	,	-22469	,	-20444	,	-7.1351504	,	0
28,51	,	41160	,	-22464	,	-20443	,	-4.9090166	,	0
28,51	,	41176	,	-22464	,	-20444	,	-1.3327222	,	2
28,51	,	41208	,	-22456	,	-20443	,	3.117848	,	5
28,51	,	41224	,	-22469	,	-20444	,	7.71127	,	9
28,51	,	41256	,	-22454	,	-20437	,	11.704724	,	13
28,52	,	41272	,	-22464	,	-20444	,	14.582413	,	16
28,52	,	41288	,	-22460	,	-20445	,	16.117695	,	18
28,52	,	41320	,	-22461	,	-20456	,	16.288296	,	19
28,52	,	41336	,	-22461	,	-20436	,	15.265519	,	19
28,52	,	41352	,	-22471	,	-20446	,	13.311796	,	19
28,52	,	41384	,	-22462	,	-20442	,	10.687424	,	17
28,52	,	41400	,	-22461	,	-20444	,	7.744376	,	14
28,52	,	41416	,	-22470	,	-20442	,	4.8781424	,	10
28,52	,	41448	,	-22464	,	-20449	,	2.336206	,	6
28,52	,	41464	,	-22463	,	-20448	,	0.25831914	,	3
28,52	,	41495	,	-22457	,	-20448	,	-1.2042341	,	1
28,52	,	41511	,	-22458	,	-20449	,	-1.9309136	,	0
28,52	,	41527	,	-22467	,	-20450	,	-1.975361	,	0
28,52	,	41560	,	-22473	,	-20455	,	-1.6602459	,	0
28,52	,	41576	,	-22475	,	-20432	,	-1.4232421	,	0
28,52	,	41592	,	-22474	,	-20451	,	-1.5359427	,	0
28,52	,	41624	,	-22485	,	-20454	,	-2.0491354	,	0
28,52	,	41640	,	-22487	,	-20456	,	-2.952034	,	0
28,52	,	41671	,	-22482	,	-20450	,	-4.172752	,	0
28,52	,	41687	,	-22500	,	-20453	,	-5.541466	,	0
28,52	,	41703	,	-22492	,	-20464	,	-6.9375696	,	0
28,52	,	41736	,	-22489	,	-20453	,	-8.222293	,	0
28,52	,	41752	,	-22486	,	-20458	,	-9.102201	,	0
28,52	,	41768	,	-22500	,	-20453	,	-9.37449	,	0
28,52	,	41800	,	-22503	,	-20458	,	-9.171831	,	0
28,52	,	41816	,	-22505	,	-20443	,	-8.806846	,	0
28,52	,	41832	,	-22506	,	-20458	,	-8.493252	,	0
28,52	,	41864	,	-22507	,	-20460	,	-8.27649	,	0
28,52	,	41880	,	-22519	,	-20454	,	-8.154631	,	0
28,52	,	41911	,	-22518	,	-20469	,	-8.190296	,	0
28,52	,	41927	,	-22514	,	-20464	,	-8.397072	,	0
28,52	,	41943	,	-22517	,	-20469	,	-8.614327	,	0
28,52	,	41975	,	-22516	,	-20472	,	-8.641996	,	0
28,52	,	41992	,	-22525	,	-20465	,	-8.41	,	0
28,52	,	42007	,	-22535	,	-20468	,	-8.055828	,	0
28,52	,	42039	,	-22539	,	-20483	,	-7.874641	,	0
28,52	,	42055	,	-22539	,	-20466	,	-8.080576	,	0
28,52	,	42087	,	-22541	,	-20470	,	-8.639326	,	0
28,52	,	42103	,	-22516	,	-20465	,	-9.229817	,	0
28,52	,	42119	,	-22513	,	-20461	,	-9.258732	,	0
28,52	,	42151	,	-22496	,	-20454	,	-8.128417	,	0
28,52	,	42167	,	-22500	,	-20463	,	-5.5958376	,	1
28,52	,	42183	,	-22511	,	-20452	,	-1.977706	,	3
28,52	,	42215	,	-22499	,	-20456	,	1.9688556	,	6
28,52	,	42231	,	-22492	,	-20451	,	5.5845337	,	9
28,53	,	42263	,	-22501	,	-20453	,	8.558101	,	12
28,53	,	42279	,	-22498	,	-20463	,	10.670723	,	14
28,53	,	42295	,	-22498	,	-20454	,	11.747081	,	16
28,53	,	42327	,	-22510	,	-20456	,	11.745207	,	17
28,53	,	42343	,	-22515	,	-20468	,	10.658717	,	17
28,53	,	42359	,	-22506	,	-20456	,	8.578655	,	16
28,53	,	42391	,	-22499	,	-20452	,	5.9152412	,	14
28,53	,	42407	,	-22501	,	-20462	,	3.2955117	,	11
28,53	,	42423	,	-22504	,	-20465	,	1.1860862	,	8
28,53	,	42455	,	-22502	,	-20462	,	-0.26801682	,	5
28,53	,	42471	,	-22498	,	-20459	,	-1.0903182	,	3
28,53	,	42503	,	-22506	,	-20462	,	-1.3605359	,	1
28,53	,	42519	,	-22499	,	-20460	,	-1.2383189	,	0
28,53	,	42535	,	-22500	,	-20458	,	-0.8927922	,	0
28,53	,	42567	,	-22504	,	-20458	,	-0.44262755	,	0
28,53	,	42583	,	-22506	,	-20451	,	-0.022060752	,	0
28,53	,	42599	,	-22514	,	-20472	,	0.19499752	,	0
28,53	,	42631	,	-22518	,	-20463	,	0.021928906	,	0
28,53	,	42647	,	-22519	,	-20455	,	-0.6613825	,	0
28,53	,	42679	,	-22527	,	-20464	,	-1.8365754	,	0
28,53	,	42695	,	-22520	,	-20466	,	-3.3566568	,	0
28,53	,	42711	,	-22517	,	-20467	,	-4.9230776	,	0
28,53	,	42743	,	-22521	,	-20459	,	-6.166353	,	0
28,53	,	42759	,	-22520	,	-20459	,	-6.8620396	,	0
28,53	,	42775	,	-22530	,	-20470	,	-7.0203686	,	0
28,53	,	42807	,	-22537	,	-20461	,	-6.870648	,	0
28,53	,	42823	,	-22544	,	-20470	,	-6.7721624	,	0
28,53	,	42839	,	-22538	,	-20474	,	-6.978174	,	0
28,53	,	42871	,	-22540	,	-20469	,	-7.4493866	,	0
28,53	,	42887	,	-22544	,	-20472	,	-7.968402	,	0
28,53	,	42919	,	-22543	,	-20475	,	-8.361677	,	0
28,53	,	42935	,	-22539	,	-20476	,	-8.507856	,	0
28,53	,	42951	,	-22545	,	-20469	,	-8.308279	,	0
28,53	,	42983	,	-22550	,	-20473	,	-7.796133	,	0
28,53	,	42999	,	-22551	,	-20482	,	-7.153146	,	0
28,53	,	43015	,	-22557	,	-20480	,	-6.5842323	,	0
28,53	,	43047	,	-22565	,	-20463	,	-6.2701244	,	0
28,53	,	43063	,	-22565	,	-20472	,	-6.351879	,	0
28,53	,	43095	,	-22559	,	-20478	,	-6.7923117	,	0
28,53	,	43111	,	-22542	,	-20469	,	-7.2348385	,	0
28,53	,	43127	,	-22542	,	-20468	,	-7.1234794	,	0
28,53	,	43159	,	-22533	,	-20464	,	-6.0583086	,	0
28,53	,	43175	,	-22529	,	-20462	,	-3.978096	,	1
28,53	,	43191	,	-22523	,	-20470	,	-1.0685267	,	3
28,53	,	43223	,	-22518	,	-20464	,	2.35693	,	5
28,53	,	43239	,	-22523	,	-20457	,	5.889846	,	8
28,53	,	43255	,	-22516	,	-20471	,	9.06164	,	11
28,54	,	43287	,	-22519	,	-20443	,	11.492321	,	14
28,54	,	43303	,	-22517	,	-20450	,	12.98282	,	16
28,54	,	43335	,	-22513	,	-20452	,	13.500496	,	17
28,54	,	43351	,	-22510	,	-20467	,	13.190293	,	17
28,54	,	43367	,	-22513	,	-20456	,	12.299961	,	16
28,54	,	43399	,	-22512	,	-20452	,	11.036293	,	14
28,54	,	43415	,	-22518	,	-20452	,	9.515925	,	12
28,54	,	43431	,	-22511	,	-20441	,	7.821309	,	9
28,54	,	43463	,	-22509	,	-20451	,	6.105951	,	6
28,54	,	43479	,	-22506	,	-20448	,	4.6010594	,	3
28,54	,	43510	,	-22505	,	-20466	,	3.49157	,	1
28,54	,	43527	,	-22508	,	-20432	,	2.8157978	,	0
28,54	,	43543	,	-22516	,	-20450	,	2.424609	,	0
28,54	,	43575	,	-22509	,	-20453	,	2.0737472	,	0
28,54	,	43591	,	-22511	,	-20446	,	1.6403931	,	0
28,54	,	43607	,	-22512	,	-20446	,	1.1600633	,	0
28,54	,	43639	,	-22522	,	-20442	,	0.6379077	,	0
28,54	,	43655	,	-22520	,	-20447	,	-0.029583097	,	0
28,54	,	43671	,	-22516	,	-20451	,	-0.87732834	,	0
28,54	,	43703	,	-22529	,	-20448	,	-1.8100845	,	0
28,54	,	43719	,	-22517	,	-20450	,	-2.7460854	,	0
28,54	,	43750	,	-22512	,	-20452	,	-3.5342872	,	0
28,54	,	43767	,	-22522	,	-20438	,	-3.934637	,	0
28,54	,	43783	,	-22535	,	-20445	,	-3.9702964	,	0
28,54	,	43814	,	-22534	,	-20450	,	-3.9925735	,	0
28,54	,	43831	,	-22534	,	-20449	,	-4.2822514	,	0
28,54	,	43847	,	-22540	,	-20460	,	-4.854927	,	0
28,54	,	43879	,	-22536	,	-20460	,	-5.592248	,	0
28,54	,	43895	,	-22533	,	-20457	,	-6.295101	,	0
28,54	,	43926	,	-22541	,	-20461	,	-6.745244	,	0
28,54	,	43943	,	-22547	,	-20453	,	-6.906907	,	0
28,54	,	43959	,	-22543	,	-20456	,	-6.918481	,	0
28,54	,	43991	,	-22538	,	-20473	,	-6.8332796	,	0
28,54	,	44007	,	-22542	,	-20453	,	-6.549446	,	0
28,54	,	44023	,	-22545	,	-20458	,	-6.01326	,	0
28,54	,	44054	,	-22550	,	-20465	,	-5.341613	,	0
28,54	,	44071	,	-22558	,	-20467	,	-4.7681785	,	0
28,54	,	44086	,	-22565	,	-20463	,	-4.5591793	,	0
28,54	,	44119	,	-22562	,	-20466	,	-4.8767576	,	0
28,54	,	44135	,	-22565	,	-20470	,	-5.647187	,	0
28,54	,	44167	,	-22571	,	-20470	,	-6.6537614	,	0
28,54	,	44183	,	-22564	,	-20467	,	-7.680195	,	0
28,54	,	44198	,	-22553	,	-20460	,	-8.425017	,	0
28,54	,	44230	,	-22535	,	-20468	,	-8.411592	,	0
28,54	,	44246	,	-22526	,	-20444	,	-7.1339574	,	0
28,55	,	44262	,	-22519	,	-20458	,	-4.345232	,	1
28,55	,	44295	,	-22523	,	-20453	,	-0.27937174	,	3
28,55	,	44311	,	-22507	,	-20450	,	4.4507194	,	7
28,55	,	44343	,	-22519	,	-20451	,	9.15778	,	11
28,55	,	44358	,	-22503	,	-20440	,	13.245246	,	15
28,55	,	44374	,	-22498	,	-20454	,	16.371376	,	19
28,55	,	44406	,	-22497	,	-20449	,	18.510769	,	22
28,55	,	44422	,	-22505	,	-20448	,	19.676645	,	24
28,55	,	44438	,	-22499	,	-20453	,	19.78242	,	25
28,55	,	44470	,	-22513	,	-20463	,	18.778458	,	24
28,55	,	44486	,	-22501	,	-20435	,	16.741436	,	22
28,55	,	44502	,	-22503	,	-20440	,	13.951828	,	18
28,55	,	44534	,	-22495	,	-20431	,	10.887202	,	14
28,55	,	44550	,	-22495	,	-20433	,	8.042419	,	10
28,55	,	44582	,	-22491	,	-20432	,	5.770107	,	6
28,55	,	44598	,	-22499	,	-20440	,	4.1946874	,	3
28,55	,	44614	,	-22501	,	-20439	,	3.1846154	,	1
28,55	,	44646	,	-22499	,	-20436	,	2.4814951	,	0
28,55	,	44662	,	-22499	,	-20437	,	1.906826	,	0
28,55	,	44678	,	-22501	,	-20435	,	1.399406	,	0
28,55	,	44710	,	-22508	,	-20447	,	0.8947383	,	0
28,55	,	44726	,	-22499	,	-20434	,	0.31970072	,	0
28,55	,	44758	,	-22505	,	-20444	,	-0.29231805	,	0
28,55	,	44774	,	-22511	,	-20442	,	-0.87706125	,	0
28,55	,	44790	,	-22511	,	-20448	,	-1.4820321	,	0
28,55	,	44822	,	-22510	,	-20444	,	-2.1601424	,	0
28,55	,	44838	,	-22518	,	-20443	,	-2.8833225	,	0
28,55	,	44854	,	-22517	,	-20448	,	-3.6312246	,	0
28,55	,	44886	,	-22520	,	-20444	,	-4.3947453	,	0
28,55	,	44902	,	-22509	,	-20441	,	-5.0708923	,	0
28,55	,	44918	,	-22512	,	-20445	,	-5.4441857	,	0
28,55	,	44950	,	-22512	,	-20447	,	-5.3493056	,	0
28,55	,	44966	,	-22521	,	-20443	,	-4.849103	,	0
28,55	,	44998	,	-22526	,	-20449	,	-4.222558	,	0
28,55	,	45014	,	-22534	,	-20450	,	-3.8186939	,	0
28,55	,	45030	,	-22537	,	-20445	,	-3.905076	,	0
28,55	,	45062	,	-22546	,	-20455	,	-4.591881	,	0
28,55	,	45078	,	-22542	,	-20459	,	-5.82011	,	0
28,55	,	45094	,	-22542	,	-20451	,	-7.336696	,	0
28,55	,	45126	,	-22539	,	-20461	,	-8.741936	,	0
28,55	,	45142	,	-22542	,	-20463	,	-9.672113	,	0
28,55	,	45174	,	-22557	,	-20458	,	-10.026561	,	0
28,55	,	45190	,	-22554	,	-20467	,	-10.014814	,	0
28,55	,	45206	,	-22566	,	-20468	,	-9.930532	,	0
28,55	,	45238	,	-22547	,	-20455	,	-9.89381	,	0
28,55	,	45254	,	-22523	,	-20450	,	-9.604712	,	0
28,56	,	45270	,	-22516	,	-20449	,	-8.374241	,	0
28,56	,	45302	,	-22509	,	-20445	,	-5.6902347	,	1
28,56	,	45318	,	-22505	,	-20449	,	-1.6284666	,	3
28,56	,	45350	,	-22504	,	-20447	,	3.267859	,	7
28,56	,	45366	,	-22497	,	-20436	,	8.284012	,	11
28,56	,	45382	,	-22489	,	-20437	,	12.820576	,	16
28,56	,	45414	,	-22492	,	-20443	,	16.500877	,	20
28,56	,	45430	,	-22486	,	-20437	,	19.086868	,	23
28,56	,	45446	,	-22504	,	-20452	,	20.384195	,	25
28,56	,	45478	,	-22509	,	-20442	,	20.160261	,	26
28,56	,	45494	,	-22493	,	-20435	,	18.346386	,	25
28,56	,	45510	,	-22491	,	-20438	,	15.384237	,	23
28,56	,	45542	,	-22488	,	-20440	,	12.038428	,	19
28,56	,	45558	,	-22493	,	-20438	,	8.916104	,	15
28,56	,	45590	,	-22494	,	-20436	,	6.28457	,	10
28,56	,	45606	,	-22477	,	-20443	,	4.2477617	,	6
28,56	,	45622	,	-22486	,	-20433	,	2.9382806	,	3
28,56	,	45654	,	-22495	,	-20431	,	2.3175206	,	1
28,56	,	45670	,	-22486	,	-20443	,	2.0675836	,	0
28,56	,	45686	,	-22494	,	-20447	,	1.9004729	,	0
28,56	,	45718	,	-22499	,	-20433	,	1.643745	,	0
28,56	,	45734	,	-22497	,	-20446	,	1.1429492	,	0
28,56	,	45766	,	-22496	,	-20436	,	0.37426776	,	0
28,56	,	45782	,	-22489	,	-20442	,	-0.4814704	,	0
28,56	,	45798	,	-22509	,	-20442	,	-1.2394773	,	0
28,56	,	45830	,	-22514	,	-20446	,	-1.9926233	,	0
28,56	,	45846	,	-22515	,	-20438	,	-3.0089564	,	0
28,56	,	45862	,	-22505	,	-20443	,	-4.318656	,	0
28,56	,	45894	,	-22507	,	-20444	,	-5.6045218	,	0
28,56	,	45910	,	-22506	,	-20451	,	-6.4921412	,	0
28,56	,	45942	,	-22521	,	-20463	,	-6.863312	,	0
28,56	,	45958	,	-22518	,	-20443	,	-6.9035378	,	0
28,56	,	45974	,	-22528	,	-20450	,	-6.8914986	,	0
28,56	,	46006	,	-22525	,	-20451	,	-7.010675	,	0
28,56	,	46022	,	-22529	,	-20446	,	-7.2948174	,	0
28,56	,	46038	,	-22533	,	-20459	,	-7.676609	,	0
28,56	,	46069	,	-22533	,	-20454	,	-8.08252	,	0
28,56	,	46086	,	-22541	,	-20460	,	-8.4681425	,	0
28,56	,	46118	,	-22540	,	-20460	,	-8.825386	,	0
28,56	,	46134	,	-22544	,	-20456	,	-9.146698	,	0
28,56	,	46150	,	-22542	,	-20459	,	-9.370407	,	0
28,56	,	46182	,	-22544	,	-20449	,	-9.400322	,	0
28,56	,	46198	,	-22552	,	-20456	,	-9.201579	,	0
28,56	,	46213	,	-22545	,	-20464	,	-8.834708	,	0
28,56	,	46246	,	-22526	,	-20445	,	-8.228694	,	0
28,56	,	46261	,	-22510	,	-20448	,	-6.9825015	,	0
28,57	,	46277	,	-22512	,	-20446	,	-4.6563416	,	1
28,57	,	46310	,	-22496	,	-20446	,	-1.1880655	,	3
28,57	,	46326	,	-22494	,	-20442	,	3.1330266	,	6
28,57	,	46358	,	-22489	,	-20442	,	7.853176	,	10
28,57	,	46374	,	-22476	,	-20434	,	12.475812	,	14
28,57	,	46390	,	-22484	,	-20457	,	16.5762	,	18
28,57	,	46422	,	-22478	,	-20421	,	19.765036	,	22
28,57	,	46438	,	-22490	,	-20439	,	21.664488	,	25
28,57	,	46454	,	-22480	,	-20430	,	22.043087	,	26
28,57	,	46486	,	-22479	,	-20440	,	20.980606	,	25
28,57	,	46502	,	-22491	,	-20430	,	18.794464	,	23
28,57	,	46533	,	-22478	,	-20438	,	15.819562	,	20
28,57	,	46549	,	-22486	,	-20429	,	12.429417	,	16
28,57	,	46565	,	-22475	,	-20435	,	9.064498	,	12
28,57	,	46597	,	-22485	,	-20433	,	6.0926003	,	8
28,57	,	46614	,	-22462	,	-20424	,	3.7809715	,	4
28,57	,	46630	,	-22462	,	-20446	,	2.4049253	,	1
28,57	,	46661	,	-22475	,	-20417	,	2.085789	,	0
28,57	,	46677	,	-22473	,	-20444	,	2.5074515	,	0
28,57	,	46693	,	-22478	,	-20431	,	3.1193628	,	0
28,57	,	46726	,	-22483	,	-20437	,	3.4720647	,	0
28,57	,	46742	,	-22484	,	-20428	,	3.2931828	,	0
28,57	,	46774	,	-22489	,	-20439	,	2.505054	,	0
28,57	,	46789	,	-22480	,	-20436	,	1.2351437	,	0
28,57	,	46805	,	-22485	,	-20436	,	-0.22178233	,	0
28,57	,	46837	,	-22488	,	-20436	,	-1.5768219	,	0
28,57	,	46853	,	-22482	,	-20444	,	-2.6752505	,	0
28,57	,	46869	,	-22487	,	-20447	,	-3.4256115	,	0
28,57	,	46901	,	-22485	,	-20432	,	-3.785884	,	0
28,57	,	46918	,	-22500	,	-20433	,	-3.8599925	,	0
28,57	,	46949	,	-22500	,	-20450	,	-3.9169562	,	0
28,57	,	46965	,	-22506	,	-20442	,	-4.2266808	,	0
28,57	,	46981	,	-22498	,	-20442	,	-4.8440466	,	0
28,57	,	47013	,	-22501	,	-20444	,	-5.577557	,	0
28,57	,	47029	,	-22500	,	-20439	,	-6.1600313	,	0
28,57	,	47045	,	-22508	,	-20444	,	-6.4522324	,	0
28,57	,	47077	,	-22508	,	-20455	,	-6.5016584	,	0
28,57	,	47093	,	-22516	,	-20448	,	-6.4583235	,	0
28,57	,	47110	,	-22505	,	-20456	,	-6.424941	,	0
28,57	,	47141	,	-22524	,	-20436	,	-6.411487	,	0
28,57	,	47157	,	-22514	,	-20459	,	-6.447853	,	0
28,57	,	47189	,	-22534	,	-20452	,	-6.618877	,	0
28,57	,	47205	,	-22524	,	-20452	,	-7.005124	,	0
28,57	,	47221	,	-22535	,	-20456	,	-7.6049623	,	0
28,57	,	47253	,	-22530	,	-20457	,	-8.304245	,	0
28,58	,	47270	,	-22526	,	-20454	,	-8.904224	,	0
28,58	,	47285	,	-22511	,	-20455	,	-9.077923	,	0
28,58	,	47317	,	-22499	,	-20446	,	-8.379631	,	0
28,58	,	47333	,	-22490	,	-20444	,	-6.4360914	,	0
28,58	,	47365	,	-22488	,	-20449	,	-3.194056	,	1
28,58	,	47381	,	-22485	,	-20440	,	0.99052453	,	4
28,58	,	47397	,	-22477	,	-20436	,	5.5316973	,	8
28,58	,	47429	,	-22466	,	-20439	,	9.918238	,	12
28,58	,	47445	,	-22463	,	-20438	,	13.852716	,	16
28,58	,	47461	,	-22472	,	-20430	,	17.084497	,	19
28,58	,	47493	,	-22458	,	-20432	,	19.309923	,	22
28,58	,	47509	,	-22464	,	-20426	,	20.368671	,	24
28,58	,	47525	,	-22462	,	-20436	,	20.29797	,	25
28,58	,	47557	,	-22472	,	-20428	,	19.168959	,	24
28,58	,	47573	,	-22469	,	-20432	,	17.062466	,	21
28,58	,	47605	,	-22467	,	-20439	,	14.191537	,	17
28,58	,	47621	,	-22476	,	-20433	,	10.892584	,	13
28,58	,	47637	,	-22456	,	-20430	,	7.5408387	,	9
28,58	,	47669	,	-22461	,	-20431	,	4.596401	,	6
28,58	,	47685	,	-22453	,	-20434	,	2.4847298	,	3
28,58	,	47701	,	-22451	,	-20427	,	1.393146	,	1
28,58	,	47733	,	-22456	,	-20431	,	1.2569332	,	0
28,58	,	47749	,	-22460	,	-20437	,	1.7597029	,	0
28,58	,	47781	,	-22466	,	-20437	,	2.4186404	,	0
28,58	,	47797	,	-22470	,	-20428	,	2.7777622	,	0
28,58	,	47813	,	-22465	,	-20428	,	2.5830116	,	0
28,58	,	47845	,	-22477	,	-20438	,	1.8268222	,	0
28,58	,	47861	,	-22477	,	-20431	,	0.5879564	,	0
28,58	,	47877	,	-22475	,	-20438	,	-1.0146452	,	0
28,58	,	47909	,	-22477	,	-20432	,	-2.7325392	,	0
28,58	,	47925	,	-22477	,	-20433	,	-4.277323	,	0
28,58	,	47957	,	-22493	,	-20433	,	-5.5201306	,	0
28,58	,	47973	,	-22494	,	-20426	,	-6.5745034	,	0
28,58	,	47989	,	-22487	,	-20428	,	-7.5681024	,	0
28,58	,	48021	,	-22486	,	-20441	,	-8.367505	,	0
28,58	,	48037	,	-22478	,	-20437	,	-8.671348	,	0
28,58	,	48053	,	-22491	,	-20441	,	-8.301955	,	0
28,58	,	48085	,	-22492	,	-20442	,	-7.397176	,	0
28,58	,	48101	,	-22499	,	-20451	,	-6.3287215	,	0
28,58	,	48117	,	-22508	,	-20445	,	-5.4939623	,	1
28,58	,	48149	,	-22503	,	-20450	,	-5.1682954	,	1
28,58	,	48165	,	-22505	,	-20444	,	-5.3538256	,	1
28,58	,	48197	,	-22519	,	-20452	,	-5.8814707	,	1
28,58	,	48213	,	-22512	,	-20443	,	-6.6515493	,	1
28,58	,	48229	,	-22511	,	-20458	,	-7.530031	,	1
28,59	,	48261	,	-22525	,	-20454	,	-8.306735	,	1
28,59	,	48277	,	-22527	,	-20455	,	-8.943056	,	1
28,59	,	48293	,	-22521	,	-20455	,	-9.502635	,	1
28,59	,	48325	,	-22525	,	-20461	,	-9.898739	,	0
28,59	,	48341	,	-22526	,	-20464	,	-9.985856	,	0
28,59	,	48373	,	-22517	,	-20456	,	-9.680813	,	0
28,59	,	48389	,	-22493	,	-20446	,	-8.7784195	,	0
28,59	,	48405	,	-22497	,	-20453	,	-6.919718	,	0
28,59	,	48437	,	-22480	,	-20437	,	-3.930965	,	1
28,59	,	48453	,	-22486	,	-20437	,	-0.009605885	,	3
28,59	,	48469	,	-22484	,	-20437	,	4.3390284	,	6
28,59	,	48501	,	-22482	,	-20435	,	8.455248	,	10
28,59	,	48517	,	-22481	,	-20435	,	11.781585	,	14
28,59	,	48533	,	-22483	,	-20444	,	13.986912	,	17
28,59	,	48565	,	-22480	,	-20444	,	14.948566	,	19
28,59	,	48581	,	-22489	,	-20450	,	14.710474	,	19
28,59	,	48613	,	-22494	,	-20434	,	13.370448	,	19
28,59	,	48629	,	-22490	,	-20446	,	11.0762825	,	18
28,59	,	48645	,	-22477	,	-20439	,	8.213603	,	16
28,59	,	48677	,	-22482	,	-20448	,	5.3931274	,	13
28,59	,	48693	,	-22483	,	-20429	,	3.0911264	,	9
28,59	,	48709	,	-22476	,	-20433	,	1.4728842	,	5
28,59	,	48740	,	-22481	,	-20441	,	0.5392835	,	2
28,59	,	48756	,	-22481	,	-20436	,	0.17894268	,	0
28,59	,	48789	,	-22485	,	-20443	,	0.16439301	,	0
28,59	,	48805	,	-22483	,	-20439	,	0.26525226	,	0
28,59	,	48821	,	-22487	,	-20452	,	0.32980305	,	0
28,59	,	48853	,	-22490	,	-20441	,	0.25278595	,	0
28,59	,	48869	,	-22491	,	-20440	,	-0.053254776	,	0
28,59	,	48885	,	-22497	,	-20439	,	-0.629075	,	0
28,59	,	48917	,	-22500	,	-20439	,	-1.4757651	,	0
28,59	,	48933	,	-22495	,	-20452	,	-2.526851	,	0
28,59	,	48949	,	-22493	,	-20448	,	-3.574429	,	0
28,59	,	48980	,	-22499	,	-20444	,	-4.377263	,	0
28,59	,	48996	,	-22500	,	-20445	,	-4.8499765	,	0
28,59	,	49028	,	-22501	,	-20452	,	-5.0465117	,	0
28,59	,	49045	,	-22505	,	-20448	,	-5.058529	,	0
28,59	,	49061	,	-22507	,	-20451	,	-4.9950466	,	0
28,59	,	49092	,	-22501	,	-20445	,	-4.9181356	,	0
28,59	,	49108	,	-22516	,	-20445	,	-4.8342056	,	0
28,59	,	49124	,	-22515	,	-20454	,	-4.831513	,	0
28,59	,	49156	,	-22517	,	-20450	,	-5.0319505	,	0
28,59	,	49172	,	-22517	,	-20455	,	-5.4201803	,	0
28,59	,	49205	,	-22518	,	-20459	,	-5.868727	,	0
28,59	,	49221	,	-22534	,	-20453	,	-6.3142805	,	0
28,59	,	49237	,	-22524	,	-20449	,	-6.8198	,	0
29,0	,	49268	,	-22531	,	-20455	,	-7.3849535	,	0
29,0	,	49284	,	-22522	,	-20458	,	-7.8487644	,	0
29,0	,	49301	,	-22525	,	-20482	,	-8.002584	,	0
29,0	,	49332	,	-22537	,	-20444	,	-7.7659187	,	0
29,0	,	49348	,	-22515	,	-20459	,	-7.2126293	,	0
29,0	,	49364	,	-22511	,	-20449	,	-6.279088	,	0
29,0	,	49397	,	-22508	,	-20452	,	-4.7395926	,	0
29,0	,	49412	,	-22495	,	-20455	,	-2.497741	,	1
29,0	,	49444	,	-22503	,	-20444	,	0.33185673	,	3
29,0	,	49460	,	-22497	,	-20441	,	3.4201915	,	5
29,0	,	49476	,	-22499	,	-20443	,	6.3111076	,	8
29,0	,	49508	,	-22492	,	-20443	,	8.644907	,	10
29,0	,	49524	,	-22486	,	-20441	,	10.293651	,	12
29,0	,	49540	,	-22493	,	-20454	,	11.29582	,	13
29,0	,	49572	,	-22488	,	-20425	,	11.676666	,	14
29,0	,	49588	,	-22499	,	-20449	,	11.4022045	,	14
29,0	,	49620	,	-22500	,	-20444	,	10.422636	,	13
29,0	,	49636	,	-22494	,	-20441	,	8.774424	,	11
29,0	,	49652	,	-22490	,	-20432	,	6.7289634	,	9
29,0	,	49685	,	-22485	,	-20433	,	4.724862	,	6
29,0	,	49700	,	-22489	,	-20439	,	3.126823	,	4
29,0	,	49716	,	-22482	,	-20432	,	2.0934896	,	2
29,0	,	49748	,	-22480	,	-20433	,	1.6462619	,	1
29,0	,	49764	,	-22480	,	-20434	,	1.7396399	,	0
29,0	,	49780	,	-22476	,	-20442	,	2.2468505	,	0
29,0	,	49812	,	-22482	,	-20427	,	2.9762793	,	0
29,0	,	49828	,	-22484	,	-20447	,	3.679731	,	0
29,0	,	49860	,	-22486	,	-20431	,	4.095025	,	0
29,0	,	49876	,	-22492	,	-20438	,	4.035027	,	0
29,0	,	49892	,	-22494	,	-20439	,	3.4094305	,	0
29,0	,	49924	,	-22489	,	-20447	,	2.2732382	,	0
29,0	,	49940	,	-22493	,	-20440	,	0.8585926	,	0
29,0	,	49956	,	-22498	,	-20442	,	-0.5933598	,	0
29,0	,	49989	,	-22507	,	-20442	,	-2.0173936	,	0
29,0	,	50004	,	-22509	,	-20453	,	-3.486481	,	0
29,0	,	50036	,	-22505	,	-20458	,	-5.00885	,	0
29,0	,	50052	,	-22512	,	-20435	,	-6.4355035	,	0
29,0	,	50068	,	-22515	,	-20450	,	-7.621501	,	0
29,0	,	50100	,	-22521	,	-20455	,	-8.559065	,	0
29,0	,	50116	,	-22510	,	-20457	,	-9.258194	,	0
29,0	,	50132	,	-22514	,	-20454	,	-9.59707	,	0
29,0	,	50164	,	-22518	,	-20449	,	-9.442185	,	0
29,0	,	50180	,	-22515	,	-20458	,	-8.82528	,	0
29,0	,	50212	,	-22527	,	-20454	,	-7.920814	,	0
29,0	,	50228	,	-22532	,	-20447	,	-7.0159764	,	0
29,0	,	50244	,	-22539	,	-20452	,	-6.446509	,	0
29,1	,	50276	,	-22539	,	-20470	,	-6.4168453	,	0
29,1	,	50292	,	-22540	,	-20450	,	-6.893177	,	0
29,1	,	50308	,	-22542	,	-20457	,	-7.65989	,	0
29,1	,	50340	,	-22530	,	-20456	,	-8.40045	,	0
29,1	,	50356	,	-22510	,	-20446	,	-8.632696	,	0
29,1	,	50372	,	-22492	,	-20447	,	-7.703205	,	0
29,1	,	50404	,	-22494	,	-20443	,	-5.140644	,	0
29,1	,	50420	,	-22500	,	-20440	,	-1.1205449	,	2
29,1	,	50452	,	-22492	,	-20438	,	3.5739777	,	6
29,1	,	50468	,	-22490	,	-20434	,	8.094668	,	10
29,1	,	50484	,	-22473	,	-20441	,	11.946726	,	14
29,1	,	50516	,	-22484	,	-20434	,	14.962644	,	17
29,1	,	50532	,	-22473	,	-20426	,	17.047846	,	20
29,1	,	50548	,	-22470	,	-20423	,	18.16112	,	22
29,1	,	50580	,	-22461	,	-20423	,	18.458403	,	23
29,1	,	50596	,	-22479	,	-20430	,	18.128965	,	23
29,1	,	50628	,	-22472	,	-20438	,	17.158298	,	21
29,1	,	50644	,	-22467	,	-20422	,	15.5159445	,	17
29,1	,	50660	,	-22450	,	-20420	,	13.494786	,	13
29,1	,	50692	,	-22456	,	-20422	,	11.619943	,	9
29,1	,	50708	,	-22458	,	-20421	,	10.206007	,	6
29,1	,	50724	,	-22448	,	-20412	,	9.228777	,	3
29,1	,	50756	,	-22436	,	-20422	,	8.66856	,	1
29,1	,	50772	,	-22446	,	-20413	,	8.599778	,	0
29,1	,	50788	,	-22452	,	-20417	,	8.857038	,	0
29,1	,	50820	,	-22454	,	-20429	,	8.999056	,	0
29,1	,	50836	,	-22449	,	-20433	,	8.676851	,	0
29,1	,	50868	,	-22466	,	-20426	,	7.7696924	,	0
29,1	,	50884	,	-22451	,	-20423	,	6.2757196	,	0
29,1	,	50900	,	-22456	,	-20424	,	4.3803787	,	0
29,1	,	50932	,	-22453	,	-20422	,	2.4335635	,	0
29,1	,	50948	,	-22461	,	-20430	,	0.6970835	,	0
29,1	,	50964	,	-22455	,	-20427	,	-0.730772	,	0
29,1	,	50996	,	-22466	,	-20431	,	-1.8437296	,	0
29,1	,	51012	,	-22467	,	-20426	,	-2.7345037	,	0
29,1	,	51044	,	-22467	,	-20426	,	-3.5334	,	0
29,1	,	51060	,	-22452	,	-20427	,	-4.1921396	,	0
29,1	,	51076	,	-22468	,	-20433	,	-4.498237	,	0
29,1	,	51107	,	-22471	,	-20436	,	-4.4326	,	0
29,1	,	51124	,	-22474	,	-20430	,	-4.255469	,	0
29,1	,	51140	,	-22483	,	-20444	,	-4.249836	,	0
29,1	,	51172	,	-22479	,	-20438	,	-4.5744367	,	0
29,1	,	51187	,	-22486	,	-20437	,	-5.217664	,	0
29,1	,	51203	,	-22490	,	-20435	,	-6.0686226	,	0
29,1	,	51236	,	-22478	,	-20441	,	-6.9762115	,	0
29,1	,	51252	,	-22484	,	-20438	,	-7.677576	,	0
29,2	,	51284	,	-22498	,	-20448	,	-7.9986305	,	0
29,2	,	51300	,	-22499	,	-20445	,	-8.094682	,	0
29,2	,	51316	,	-22501	,	-20451	,	-8.223255	,	0
29,2	,	51347	,	-22508	,	-20450	,	-8.490005	,	0
29,2	,	51364	,	-22503	,	-20442	,	-8.875574	,	0
29,2	,	51380	,	-22518	,	-20455	,	-9.3161335	,	0
29,2	,	51412	,	-22499	,	-20449	,	-9.721143	,	0
29,2	,	51428	,	-22504	,	-20456	,	-9.877018	,	0
29,2	,	51460	,	-22473	,	-20453	,	-9.383707	,	0
29,2	,	51476	,	-22473	,	-20444	,	-7.7648954	,	0
29,2	,	51492	,	-22462	,	-20443	,	-4.766355	,	1
29,2	,	51523	,	-22458	,	-20437	,	-0.5735035	,	3
29,2	,	51539	,	-22456	,	-20431	,	4.299385	,	7
29,2	,	51555	,	-22456	,	-20429	,	9.184563	,	11
29,2	,	51588	,	-22455	,	-20428	,	13.409672	,	15
29,2	,	51604	,	-22446	,	-20434	,	16.508636	,	19
29,2	,	51620	,	-22438	,	-20425	,	18.381664	,	22
29,2	,	51652	,	-22453	,	-20425	,	19.15486	,	23
29,2	,	51667	,	-22449	,	-20429	,	18.870483	,	23
29,2	,	51699	,	-22448	,	-20430	,	17.535307	,	22
29,2	,	51715	,	-22443	,	-20429	,	15.368296	,	20
29,2	,	51731	,	-22440	,	-20431	,	12.790136	,	16
29,2	,	51763	,	-22439	,	-20424	,	10.236595	,	12
29,2	,	51779	,	-22431	,	-20424	,	8.042839	,	8
29,2	,	51795	,	-22440	,	-20431	,	6.3982573	,	4
29,2	,	51827	,	-22432	,	-20430	,	5.298074	,	1
29,2	,	51843	,	-22433	,	-20438	,	4.6266575	,	0
29,2	,	51875	,	-22438	,	-20427	,	4.2537093	,	0
29,2	,	51891	,	-22439	,	-20430	,	3.9929984	,	0
29,2	,	51907	,	-22446	,	-20435	,	3.6179936	,	0
29,2	,	51939	,	-22443	,	-20430	,	2.957357	,	0
29,2	,	51955	,	-22441	,	-20435	,	2.0027256	,	0
29,2	,	51971	,	-22455	,	-20440	,	0.8578378	,	0
29,2	,	52003	,	-22452	,	-20434	,	-0.4458362	,	0
29,2	,	52019	,	-22451	,	-20433	,	-1.8724058	,	0
29,2	,	52051	,	-22450	,	-20439	,	-3.2290075	,	0
29,2	,	52068	,	-22452	,	-20441	,	-4.286081	,	0
29,2	,	52083	,	-22458	,	-20435	,	-4.9595284	,	0
29,2	,	52115	,	-22454	,	-20440	,	-5.3104057	,	0
29,2	,	52131	,	-22460	,	-20439	,	-5.421899	,	0
29,2	,	52147	,	-22452	,	-20438	,	-5.3383646	,	0
29,2	,	52179	,	-22457	,	-20444	,	-5.061594	,	0
29,2	,	52195	,	-22466	,	-20445	,	-4.638264	,	0
29,2	,	52211	,	-22470	,	-20451	,	-4.2754307	,	0
29,2	,	52243	,	-22474	,	-20428	,	-4.2256427	,	0
29,2	,	52259	,	-22479	,	-20444	,	-4.6149516	,	0
29,3	,	52291	,	-22484	,	-20443	,	-5.441867	,	0
29,3	,	52307	,	-22472	,	-20444	,	-6.5568123	,	0
29,3	,	52323	,	-22486	,	-20446	,	-7.6624694	,	0
29,3	,	52355	,	-22487	,	-20453	,	-8.541063	,	0
29,3	,	52371	,	-22486	,	-20448	,	-9.1499405	,	0
29,3	,	52387	,	-22491	,	-20450	,	-9.476091	,	0
29,3	,	52419	,	-22497	,	-20455	,	-9.551979	,	0
29,3	,	52435	,	-22503	,	-20455	,	-9.525518	,	0
29,3	,	52467	,	-22493	,	-20461	,	-9.508927	,	0
29,3	,	52483	,	-22483	,	-20437	,	-9.353207	,	0
29,3	,	52499	,	-22458	,	-20444	,	-8.594669	,	0
29,3	,	52531	,	-22459	,	-20438	,	-6.691123	,	0
29,3	,	52547	,	-22449	,	-20439	,	-3.4381247	,	1
29,3	,	52563	,	-22456	,	-20449	,	0.8315811	,	4
29,3	,	52595	,	-22457	,	-20437	,	5.3922095	,	8
29,3	,	52611	,	-22455	,	-20438	,	9.435146	,	12
29,3	,	52627	,	-22458	,	-20439	,	12.372974	,	16
29,3	,	52659	,	-22449	,	-20435	,	13.97061	,	18
29,3	,	52675	,	-22447	,	-20443	,	14.351153	,	19
29,3	,	52707	,	-22458	,	-20455	,	13.805117	,	19
29,3	,	52723	,	-22452	,	-20429	,	12.528063	,	19
29,3	,	52739	,	-22442	,	-20431	,	10.730131	,	18
29,3	,	52771	,	-22444	,	-20432	,	8.800014	,	15
29,3	,	52787	,	-22450	,	-20437	,	7.069298	,	11
29,3	,	52803	,	-22442	,	-20443	,	5.6283035	,	7
29,3	,	52835	,	-22448	,	-20449	,	4.4642777	,	3
29,3	,	52851	,	-22451	,	-20443	,	3.522371	,	1
29,3	,	52883	,	-22454	,	-20437	,	2.667964	,	0
29,3	,	52899	,	-22463	,	-20442	,	1.730314	,	0
29,3	,	52915	,	-22451	,	-20447	,	0.608994	,	0
29,3	,	52947	,	-22453	,	-20451	,	-0.58641875	,	0
29,3	,	52963	,	-22449	,	-20440	,	-1.5886316	,	0
29,3	,	52979	,	-22450	,	-20442	,	-2.1878023	,	0
29,3	,	53011	,	-22449	,	-20440	,	-2.3260212	,	0
29,3	,	53027	,	-22460	,	-20443	,	-2.1161804	,	0
29,3	,	53043	,	-22453	,	-20440	,	-1.7960417	,	0
29,3	,	53075	,	-22464	,	-20444	,	-1.5807894	,	0
29,3	,	53091	,	-22467	,	-20456	,	-1.6275737	,	0
29,3	,	53123	,	-22468	,	-20455	,	-2.0511913	,	0
29,3	,	53139	,	-22466	,	-20455	,	-2.8167987	,	0
29,3	,	53155	,	-22467	,	-20456	,	-3.7172587	,	0
29,3	,	53187	,	-22473	,	-20469	,	-4.5399504	,	0
29,3	,	53203	,	-22466	,	-20438	,	-5.1771545	,	0
29,3	,	53219	,	-22483	,	-20453	,	-5.6215377	,	0
29,3	,	53251	,	-22481	,	-20452	,	-5.992326	,	0
29,4	,	53267	,	-22486	,	-20453	,	-6.4444246	,	0
29,4	,	53299	,	-22495	,	-20452	,	-7.0526447	,	0
29,4	,	53315	,	-22510	,	-20450	,	-7.9247746	,	0
29,4	,	53331	,	-22502	,	-20457	,	-9.177895	,	0
29,4	,	53363	,	-22503	,	-20463	,	-10.66966	,	0
29,4	,	53379	,	-22489	,	-20452	,	-11.947517	,	0
29,4	,	53395	,	-22490	,	-20456	,	-12.484026	,	0
29,4	,	53427	,	-22484	,	-20472	,	-11.940187	,	0
29,4	,	53443	,	-22477	,	-20434	,	-10.252794	,	0
29,4	,	53459	,	-22462	,	-20449	,	-7.4953365	,	1
29,4	,	53491	,	-22465	,	-20443	,	-3.8093386	,	3
29,4	,	53506	,	-22449	,	-20439	,	0.5178337	,	6
29,4	,	53538	,	-22448	,	-20434	,	5.109934	,	10
29,4	,	53555	,	-22439	,	-20444	,	9.606425	,	14
29,4	,	53571	,	-22445	,	-20434	,	13.632331	,	18
29,4	,	53603	,	-22444	,	-20437	,	16.762465	,	22
29,4	,	53619	,	-22441	,	-20430	,	18.644882	,	25
29,4	,	53635	,	-22448	,	-20438	,	19.148174	,	26
29,4	,	53666	,	-22448	,	-20448	,	18.320997	,	25
29,4	,	53682	,	-22444	,	-20430	,	16.362122	,	23
29,4	,	53715	,	-22446	,	-20440	,	13.642597	,	20
29,4	,	53731	,	-22455	,	-20437	,	10.542999	,	16
29,4	,	53747	,	-22450	,	-20430	,	7.3185267	,	12
29,4	,	53779	,	-22443	,	-20427	,	4.2386227	,	8
29,4	,	53795	,	-22441	,	-20422	,	1.6822505	,	4
29,4	,	53811	,	-22444	,	-20422	,	-0.060619116	,	1
29,4	,	53842	,	-22441	,	-20426	,	-0.9580568	,	0
29,4	,	53859	,	-22441	,	-20425	,	-1.1515542	,	0
29,4	,	53875	,	-22441	,	-20425	,	-0.84136903	,	0
29,4	,	53907	,	-22440	,	-20438	,	-0.24753252	,	0
29,4	,	53922	,	-22442	,	-20424	,	0.43403488	,	0
29,4	,	53954	,	-22458	,	-20430	,	0.9739748	,	0
29,4	,	53971	,	-22449	,	-20436	,	1.0844823	,	0
29,4	,	53987	,	-22455	,	-20436	,	0.64176285	,	0
29,4	,	54019	,	-22455	,	-20440	,	-0.2341418	,	0
29,4	,	54035	,	-22452	,	-20435	,	-1.3273716	,	0
29,4	,	54050	,	-22446	,	-20442	,	-2.3560343	,	0
29,4	,	54082	,	-22461	,	-20444	,	-3.0848658	,	0
29,4	,	54098	,	-22463	,	-20442	,	-3.5537257	,	0
29,4	,	54130	,	-22479	,	-20442	,	-4.048911	,	0
29,4	,	54147	,	-22463	,	-20441	,	-4.809434	,	0
29,4	,	54162	,	-22474	,	-20432	,	-5.785009	,	0
29,4	,	54194	,	-22465	,	-20447	,	-6.723763	,	0
29,4	,	54210	,	-22474	,	-20445	,	-7.402007	,	0
29,4	,	54226	,	-22471	,	-20444	,	-7.7172594	,	0
29,4	,	54258	,	-22477	,	-20446	,	-7.684259	,	0
29,5	,	54274	,	-22472	,	-20453	,	-7.369217	,	0
29,5	,	54290	,	-22487	,	-20439	,	-6.880534	,	0
29,5	,	54322	,	-22497	,	-20450	,	-6.4812346	,	0
29,5	,	54338	,	-22495	,	-20442	,	-6.5075593	,	0
29,5	,	54370	,	-22483	,	-20446	,	-6.9963717	,	0
29,5	,	54386	,	-22497	,	-20461	,	-7.6253195	,	0
29,5	,	54402	,	-22490	,	-20452	,	-8.093593	,	0
29,5	,	54434	,	-22483	,	-20451	,	-8.223082	,	0
29,5	,	54450	,	-22461	,	-20439	,	-7.7146063	,	0
29,5	,	54466	,	-22463	,	-20434	,	-6.176244	,	0
29,5	,	54499	,	-22467	,	-20436	,	-3.5351	,	1
29,5	,	54515	,	-22453	,	-20421	,	-0.17422366	,	3
29,5	,	54546	,	-22452	,	-20432	,	3.440494	,	6
29,5	,	54562	,	-22438	,	-20431	,	7.012675	,	9
29,5	,	54578	,	-22439	,	-20426	,	10.361346	,	12
29,5	,	54610	,	-22435	,	-20423	,	13.305084	,	15
29,5	,	54626	,	-22428	,	-20437	,	15.648936	,	17
29,5	,	54642	,	-22427	,	-20428	,	17.286839	,	19
29,5	,	54674	,	-22429	,	-20421	,	18.176693	,	20
29,5	,	54690	,	-22426	,	-20435	,	18.27117	,	19
29,5	,	54722	,	-22423	,	-20426	,	17.597141	,	17
29,5	,	54738	,	-22418	,	-20419	,	16.331188	,	14
29,5	,	54754	,	-22424	,	-20424	,	14.710472	,	11
29,5	,	54786	,	-22421	,	-20424	,	12.885874	,	8
29,5	,	54802	,	-22415	,	-20424	,	10.967627	,	5
29,5	,	54818	,	-22425	,	-20415	,	9.096422	,	3
29,5	,	54850	,	-22418	,	-20414	,	7.3486753	,	1
29,5	,	54866	,	-22418	,	-20420	,	5.7615385	,	0
29,5	,	54882	,	-22420	,	-20429	,	4.4023786	,	0
29,5	,	54914	,	-22423	,	-20423	,	3.28011	,	0
29,5	,	54930	,	-22429	,	-20422	,	2.2937658	,	0
29,5	,	54962	,	-22419	,	-20425	,	1.3378508	,	0
29,5	,	54978	,	-22430	,	-20430	,	0.41720355	,	0
29,5	,	54994	,	-22431	,	-20422	,	-0.4469807	,	0
29,5	,	55026	,	-22438	,	-20420	,	-1.331512	,	0
29,5	,	55042	,	-22438	,	-20433	,	-2.3306816	,	0
29,5	,	55058	,	-22434	,	-20430	,	-3.4202197	,	0
29,5	,	55090	,	-22443	,	-20434	,	-4.455274	,	0
29,5	,	55106	,	-22435	,	-20434	,	-5.304696	,	0
29,5	,	55138	,	-22457	,	-20432	,	-5.9611416	,	0
29,5	,	55154	,	-22459	,	-20419	,	-6.607501	,	0
29,5	,	55170	,	-22461	,	-20433	,	-7.473078	,	0
29,5	,	55202	,	-22464	,	-20438	,	-8.574459	,	0
29,5	,	55218	,	-22463	,	-20431	,	-9.729869	,	0
29,5	,	55234	,	-22455	,	-20434	,	-10.657139	,	0
29,6	,	55266	,	-22470	,	-20438	,	-11.097004	,	0
29,6	,	55282	,	-22459	,	-20442	,	-10.993767	,	0
29,6	,	55298	,	-22456	,	-20431	,	-10.379833	,	0
29,6	,	55330	,	-22473	,	-20433	,	-9.301037	,	0
29,6	,	55346	,	-22466	,	-20444	,	-7.993306	,	1
29,6	,	55378	,	-22480	,	-20453	,	-6.791872	,	2
29,6	,	55394	,	-22483	,	-20432	,	-5.976123	,	3
29,6	,	55410	,	-22488	,	-20447	,	-5.7523947	,	3
29,6	,	55442	,	-22488	,	-20441	,	-6.148034	,	3
29,6	,	55458	,	-22484	,	-20444	,	-6.953603	,	3
29,6	,	55474	,	-22473	,	-20435	,	-7.756441	,	3
29,6	,	55506	,	-22464	,	-20434	,	-8.023082	,	3
29,6	,	55522	,	-22459	,	-20427	,	-7.2991962	,	3
29,6	,	55554	,	-22441	,	-20427	,	-5.3627224	,	2
29,6	,	55570	,	-22434	,	-20429	,	-2.1870627	,	2
29,6	,	55586	,	-22433	,	-20421	,	2.034262	,	4
29,6	,	55618	,	-22434	,	-20436	,	6.776187	,	8
29,6	,	55634	,	-22430	,	-20419	,	11.313819	,	12
29,6	,	55650	,	-22422	,	-20416	,	15.057573	,	16
29,6	,	55682	,	-22423	,	-20411	,	17.72694	,	19
29,6	,	55698	,	-22415	,	-20420	,	19.273329	,	21
29,6	,	55714	,	-22421	,	-20409	,	19.760183	,	22
29,6	,	55746	,	-22425	,	-20422	,	19.251038	,	22
29,6	,	55762	,	-22419	,	-20416	,	17.80317	,	21
29,6	,	55793	,	-22427	,	-20416	,	15.576384	,	18
29,6	,	55810	,	-22422	,	-20411	,	12.818095	,	14
29,6	,	55826	,	-22409	,	-20418	,	9.883458	,	10
29,6	,	55857	,	-22408	,	-20428	,	7.2818856	,	6
29,6	,	55873	,	-22411	,	-20405	,	5.4146767	,	3
29,6	,	55890	,	-22418	,	-20419	,	4.289383	,	1
29,6	,	55922	,	-22423	,	-20423	,	3.5848088	,	0
29,6	,	55938	,	-22414	,	-20422	,	2.9585996	,	0
29,6	,	55970	,	-22419	,	-20421	,	2.2883043	,	0
29,6	,	55986	,	-22423	,	-20420	,	1.5878952	,	0
29,6	,	56002	,	-22421	,	-20421	,	0.8487569	,	0
29,6	,	56033	,	-22423	,	-20420	,	0.08262181	,	0
29,6	,	56050	,	-22424	,	-20420	,	-0.65683794	,	0
29,6	,	56065	,	-22431	,	-20420	,	-1.359395	,	0
29,6	,	56097	,	-22435	,	-20436	,	-2.1004126	,	0
29,6	,	56114	,	-22434	,	-20415	,	-2.9609938	,	0
29,6	,	56146	,	-22424	,	-20421	,	-3.8579721	,	0
29,6	,	56162	,	-22440	,	-20431	,	-4.5836563	,	0
29,6	,	56177	,	-22439	,	-20431	,	-5.086676	,	0
29,6	,	56210	,	-22445	,	-20432	,	-5.5019836	,	0
29,6	,	56226	,	-22443	,	-20428	,	-5.931301	,	0
29,6	,	56242	,	-22451	,	-20428	,	-6.384426	,	0
29,7	,	56273	,	-22449	,	-20433	,	-6.849139	,	0
29,7	,	56289	,	-22458	,	-20428	,	-7.3190694	,	0
29,7	,	56305	,	-22448	,	-20429	,	-7.7579365	,	0
29,7	,	56337	,	-22452	,	-20450	,	-8.037471	,	0
29,7	,	56353	,	-22459	,	-20423	,	-8.035093	,	0
29,7	,	56385	,	-22475	,	-20436	,	-7.872992	,	0
29,7	,	56401	,	-22466	,	-20439	,	-7.8526287	,	0
29,7	,	56417	,	-22465	,	-20436	,	-8.061911	,	0
29,7	,	56450	,	-22475	,	-20443	,	-8.32657	,	0
29,7	,	56466	,	-22464	,	-20437	,	-8.486759	,	0
29,7	,	56482	,	-22475	,	-20441	,	-8.447262	,	0
29,7	,	56513	,	-22475	,	-20436	,	-8.1868725	,	0
29,7	,	56529	,	-22471	,	-20439	,	-7.763761	,	0
29,7	,	56561	,	-22452	,	-20431	,	-7.0882683	,	0
29,7	,	56577	,	-22445	,	-20445	,	-5.827154	,	0
29,7	,	56593	,	-22426	,	-20413	,	-3.6149144	,	1
29,7	,	56625	,	-22441	,	-20428	,	-0.36444092	,	3
29,7	,	56641	,	-22430	,	-20422	,	3.5403507	,	6
29,7	,	56658	,	-22432	,	-20425	,	7.4533825	,	9
29,7	,	56689	,	-22425	,	-20420	,	10.840216	,	12
29,7	,	56705	,	-22428	,	-20415	,	13.378595	,	15
29,7	,	56721	,	-22422	,	-20416	,	14.91674	,	17
29,7	,	56753	,	-22420	,	-20418	,	15.476864	,	18
29,7	,	56769	,	-22416	,	-20414	,	15.238422	,	18
29,7	,	56801	,	-22421	,	-20424	,	14.419218	,	17
29,7	,	56817	,	-22418	,	-20423	,	13.161732	,	15
29,7	,	56833	,	-22421	,	-20395	,	11.559251	,	12
29,7	,	56865	,	-22411	,	-20424	,	9.759523	,	9
29,7	,	56881	,	-22416	,	-20418	,	7.992674	,	6
29,7	,	56897	,	-22422	,	-20414	,	6.408284	,	3
29,7	,	56929	,	-22421	,	-20413	,	4.961133	,	1
29,7	,	56945	,	-22423	,	-20414	,	3.5599039	,	0
29,7	,	56977	,	-22418	,	-20426	,	2.2163055	,	0
29,7	,	56993	,	-22427	,	-20412	,	1.0000927	,	0
29,7	,	57009	,	-22430	,	-20420	,	-0.09960747	,	0
29,7	,	57041	,	-22429	,	-20421	,	-1.1668937	,	0
29,7	,	57057	,	-22427	,	-20429	,	-2.1923335	,	0
29,7	,	57073	,	-22435	,	-20410	,	-3.0783832	,	0
29,7	,	57105	,	-22424	,	-20418	,	-3.7512112	,	0
29,7	,	57121	,	-22434	,	-20418	,	-4.1511974	,	0
29,7	,	57137	,	-22429	,	-20420	,	-4.2605886	,	0
29,7	,	57169	,	-22440	,	-20423	,	-4.1668797	,	0
29,7	,	57185	,	-22441	,	-20420	,	-4.046804	,	0
29,7	,	57217	,	-22443	,	-20424	,	-4.0732393	,	0
29,7	,	57233	,	-22459	,	-20419	,	-4.3720393	,	0
29,7	,	57249	,	-22459	,	-20423	,	-5.0892067	,	0
29,8	,	57281	,	-22448	,	-20431	,	-6.228071	,	0
29,8	,	57297	,	-22450	,	-20434	,	-7.442626	,	0
29,8	,	57313	,	-22459	,	-20416	,	-8.325245	,	0
29,8	,	57345	,	-22458	,	-20433	,	-8.763111	,	0
29,8	,	57361	,	-22474	,	-20431	,	-8.910396	,	0
29,8	,	57393	,	-22467	,	-20433	,	-9.009864	,	0
29,8	,	57409	,	-22479	,	-20435	,	-9.223141	,	0
29,8	,	57425	,	-22471	,	-20443	,	-9.554403	,	0
29,8	,	57457	,	-22489	,	-20435	,	-9.933757	,	0
29,8	,	57473	,	-22481	,	-20438	,	-10.32909	,	0
29,8	,	57489	,	-22471	,	-20429	,	-10.63036	,	0
29,8	,	57521	,	-22470	,	-20426	,	-10.520436	,	0
29,8	,	57537	,	-22450	,	-20428	,	-9.627682	,	0
29,8	,	57553	,	-22451	,	-20421	,	-7.68125	,	0
29,8	,	57585	,	-22435	,	-20422	,	-4.6128397	,	1
29,8	,	57601	,	-22429	,	-20417	,	-0.5847459	,	4
29,8	,	57633	,	-22424	,	-20416	,	4.081725	,	8
29,8	,	57649	,	-22425	,	-20407	,	8.900944	,	12
29,8	,	57665	,	-22430	,	-20412	,	13.239035	,	16
29,8	,	57697	,	-22420	,	-20422	,	16.506704	,	20
29,8	,	57713	,	-22423	,	-20404	,	18.410408	,	23
29,8	,	57729	,	-22424	,	-20414	,	18.942825	,	24
29,8	,	57761	,	-22434	,	-20410	,	18.174799	,	24
29,8	,	57777	,	-22417	,	-20404	,	16.269928	,	23
29,8	,	57809	,	-22417	,	-20399	,	13.667672	,	20
29,8	,	57825	,	-22418	,	-20403	,	10.945684	,	16
29,8	,	57841	,	-22421	,	-20407	,	8.466591	,	12
29,8	,	57873	,	-22421	,	-20408	,	6.321845	,	8
29,8	,	57889	,	-22423	,	-20407	,	4.4943266	,	4
29,8	,	57905	,	-22419	,	-20407	,	2.9692008	,	1
29,8	,	57937	,	-22424	,	-20402	,	1.7475832	,	0
29,8	,	57953	,	-22431	,	-20415	,	0.7595258	,	0
29,8	,	57985	,	-22429	,	-20415	,	-0.1511693	,	0
29,8	,	58001	,	-22424	,	-20413	,	-1.051284	,	0
29,8	,	58016	,	-22425	,	-20417	,	-1.8303945	,	0
29,8	,	58049	,	-22429	,	-20419	,	-2.3621879	,	0
29,8	,	58065	,	-22437	,	-20417	,	-2.6786704	,	0
29,8	,	58081	,	-22441	,	-20415	,	-2.974203	,	0
29,8	,	58113	,	-22436	,	-20412	,	-3.42275	,	0
29,8	,	58129	,	-22446	,	-20416	,	-4.037861	,	0
29,8	,	58160	,	-22440	,	-20423	,	-4.743592	,	0
29,8	,	58176	,	-22445	,	-20417	,	-5.42773	,	0
29,8	,	58192	,	-22449	,	-20419	,	-5.9826193	,	0
29,8	,	58225	,	-22454	,	-20426	,	-6.4122496	,	0
29,8	,	58241	,	-22449	,	-20414	,	-6.772235	,	0
29,8	,	58257	,	-22451	,	-20437	,	-7.0160904	,	0
29,9	,	58289	,	-22449	,	-20406	,	-7.019307	,	0
29,9	,	58305	,	-22458	,	-20414	,	-6.7382197	,	0
29,9	,	58321	,	-22454	,	-20421	,	-6.2712927	,	0
29,9	,	58352	,	-22472	,	-20421	,	-5.8116684	,	0
29,9	,	58368	,	-22477	,	-20425	,	-5.647345	,	0
29,9	,	58401	,	-22472	,	-20430	,	-6.013423	,	0
29,9	,	58417	,	-22479	,	-20430	,	-6.8540106	,	0
29,9	,	58432	,	-22481	,	-20428	,	-7.925284	,	0
29,9	,	58464	,	-22487	,	-20430	,	-9.025781	,	0
29,9	,	58480	,	-22482	,	-20423	,	-10.004374	,	0
29,9	,	58496	,	-22482	,	-20442	,	-10.674869	,	0
29,9	,	58528	,	-22471	,	-20416	,	-10.798711	,	0
29,9	,	58544	,	-22444	,	-20418	,	-10.023189	,	0
29,9	,	58576	,	-22436	,	-20415	,	-7.8646607	,	0
29,9	,	58592	,	-22437	,	-20416	,	-4.098979	,	2
29,9	,	58608	,	-22443	,	-20413	,	0.822618	,	5
29,9	,	58640	,	-22438	,	-20417	,	5.9693985	,	9
29,9	,	58656	,	-22424	,	-20407	,	10.535845	,	14
29,9	,	58672	,	-22429	,	-20416	,	14.151284	,	18
29,9	,	58704	,	-22428	,	-20407	,	16.666613	,	21
29,9	,	58720	,	-22422	,	-20401	,	17.991165	,	23
29,9	,	58736	,	-22425	,	-20422	,	18.179426	,	24
29,9	,	58768	,	-22421	,	-20402	,	17.41162	,	24
29,9	,	58784	,	-22425	,	-20416	,	15.902	,	22
29,9	,	58816	,	-22419	,	-20404	,	13.879946	,	19
29,9	,	58832	,	-22420	,	-20410	,	11.602952	,	15
29,9	,	58848	,	-22407	,	-20416	,	9.381472	,	10
29,9	,	58880	,	-22418	,	-20413	,	7.5160027	,	6
29,9	,	58896	,	-22422	,	-20403	,	6.0775013	,	3
29,9	,	58912	,	-22421	,	-20411	,	4.8772216	,	1
29,9	,	58944	,	-22415	,	-20412	,	3.767156	,	0
29,9	,	58960	,	-22420	,	-20415	,	2.7751186	,	0
29,9	,	58992	,	-22412	,	-20416	,	1.9785645	,	0
29,9	,	59008	,	-22418	,	-20393	,	1.4278083	,	0
29,9	,	59024	,	-22417	,	-20407	,	1.1038488	,	0
29,9	,	59056	,	-22419	,	-20399	,	0.9122295	,	0
29,9	,	59072	,	-22426	,	-20403	,	0.7249501	,	0
29,9	,	59088	,	-22432	,	-20416	,	0.3644027	,	0
29,9	,	59120	,	-22434	,	-20412	,	-0.35066274	,	0
29,9	,	59136	,	-22439	,	-20407	,	-1.485869	,	0
29,9	,	59152	,	-22435	,	-20412	,	-2.9434	,	0
29,9	,	59184	,	-22433	,	-20414	,	-4.458979	,	0
29,9	,	59200	,	-22435	,	-20418	,	-5.697893	,	0
29,9	,	59232	,	-22442	,	-20429	,	-6.467972	,	0
29,9	,	59248	,	-22444	,	-20405	,	-6.820144	,	0
29,10	,	59264	,	-22444	,	-20418	,	-6.916383	,	0
29,10	,	59296	,	-22452	,	-20414	,	-6.8945036	,	0
29,10	,	59312	,	-22456	,	-20419	,	-6.8983603	,	0
29,10	,	59328	,	-22454	,	-20423	,	-7.0474358	,	0
29,10	,	59360	,	-22458	,	-20429	,	-7.323251	,	0
29,10	,	59376	,	-22459	,	-20412	,	-7.621834	,	0
29,10	,	59408	,	-22459	,	-20424	,	-7.8501444	,	0
29,10	,	59424	,	-22475	,	-20422	,	-7.992998	,	0
29,10	,	59440	,	-22472	,	-20418	,	-8.176855	,	0
29,10	,	59472	,	-22465	,	-20433	,	-8.469962	,	0
29,10	,	59488	,	-22466	,	-20420	,	-8.678554	,	0
29,10	,	59504	,	-22466	,	-20427	,	-8.542492	,	0
29,10	,	59536	,	-22480	,	-20424	,	-8.026431	,	0
29,10	,	59552	,	-22485	,	-20430	,	-7.397406	,	0
29,10	,	59584	,	-22472	,	-20424	,	-6.9528284	,	0
29,10	,	59600	,	-22459	,	-20421	,	-6.5964327	,	0
29,10	,	59616	,	-22452	,	-20413	,	-5.85649	,	0
29,10	,	59648	,	-22442	,	-20417	,	-4.2892222	,	0
29,10	,	59664	,	-22435	,	-20420	,	-1.7234488	,	1
29,10	,	59680	,	-22438	,	-20404	,	1.6814635	,	3
29,10	,	59712	,	-22431	,	-20419	,	5.465683	,	6
29,10	,	59728	,	-22429	,	-20401	,	9.09202	,	9
29,10	,	59744	,	-22418	,	-20399	,	12.199457	,	12
29,10	,	59776	,	-22435	,	-20395	,	14.574652	,	15
29,10	,	59792	,	-22433	,	-20396	,	15.944891	,	17
29,10	,	59824	,	-22431	,	-20410	,	16.063885	,	18
29,10	,	59840	,	-22426	,	-20412	,	14.9985485	,	18
29,10	,	59856	,	-22432	,	-20401	,	13.095919	,	17
29,10	,	59888	,	-22416	,	-20399	,	10.789891	,	15
29,10	,	59904	,	-22416	,	-20401	,	8.563183	,	12
29,10	,	59920	,	-22421	,	-20397	,	6.7974706	,	9
29,10	,	59952	,	-22415	,	-20401	,	5.57992	,	6
29,10	,	59968	,	-22422	,	-20402	,	4.798338	,	3
29,10	,	59999	,	-22427	,	-20398	,	4.2460237	,	1
29,10	,	60016	,	-22435	,	-20405	,	3.6151526	,	0
29,10	,	60032	,	-22425	,	-20402	,	2.6664004	,	0
29,10	,	60064	,	-22437	,	-20398	,	1.3995258	,	0
29,10	,	60080	,	-22434	,	-20403	,	-0.061016798	,	0
29,10	,	60096	,	-22431	,	-20414	,	-1.5564456	,	0
29,10	,	60128	,	-22442	,	-20411	,	-2.9023905	,	0
29,10	,	60144	,	-22446	,	-20408	,	-4.054802	,	0
29,10	,	60160	,	-22439	,	-20403	,	-5.074234	,	0
29,10	,	60192	,	-22435	,	-20402	,	-5.864869	,	0
29,10	,	60208	,	-22445	,	-20415	,	-6.240821	,	0
29,10	,	60240	,	-22449	,	-20409	,	-6.2228775	,	0
29,10	,	60256	,	-22445	,	-20412	,	-6.011236	,	0
29,11	,	60271	,	-22452	,	-20410	,	-5.7478957	,	0
29,11	,	60304	,	-22452	,	-20406	,	-5.504378	,	0
29,11	,	60320	,	-22441	,	-20403	,	-5.2858577	,	0
29,11	,	60336	,	-22453	,	-20414	,	-4.9895577	,	0
29,11	,	60368	,	-22454	,	-20415	,	-4.592523	,	0
29,11	,	60384	,	-22453	,	-20420	,	-4.2168436	,	0
29,11	,	60415	,	-22454	,	-20415	,	-3.935322	,	0
29,11	,	60432	,	-22465	,	-20416	,	-3.7760825	,	0
29,11	,	60447	,	-22466	,	-20421	,	-3.8505108	,	0
29,11	,	60479	,	-22456	,	-20419	,	-4.208334	,	0
29,11	,	60495	,	-22465	,	-20422	,	-4.6848736	,	0
29,11	,	60512	,	-22474	,	-20424	,	-5.13501	,	0
29,11	,	60544	,	-22474	,	-20427	,	-5.616136	,	0
29,11	,	60560	,	-22467	,	-20408	,	-6.159863	,	0
29,11	,	60576	,	-22444	,	-20413	,	-6.48155	,	0
29,11	,	60607	,	-22444	,	-20422	,	-6.032488	,	0
29,11	,	60624	,	-22440	,	-20409	,	-4.4444695	,	0
29,11	,	60655	,	-22431	,	-20405	,	-1.7954485	,	1
29,11	,	60672	,	-22437	,	-20408	,	1.5379138	,	3
29,11	,	60687	,	-22434	,	-20425	,	5.0148406	,	6
29,11	,	60720	,	-22420	,	-20392	,	8.138792	,	9
29,11	,	60736	,	-22423	,	-20393	,	10.692935	,	12
29,11	,	60751	,	-22420	,	-20404	,	12.614747	,	14
29,11	,	60783	,	-22412	,	-20398	,	13.863967	,	15
29,11	,	60799	,	-22424	,	-20407	,	14.44697	,	16
29,11	,	60831	,	-22424	,	-20402	,	14.3121395	,	16
29,11	,	60848	,	-22430	,	-20393	,	13.350481	,	15
29,11	,	60864	,	-22415	,	-20399	,	11.624989	,	13
29,11	,	60895	,	-22403	,	-20392	,	9.559376	,	10
29,11	,	60911	,	-22401	,	-20396	,	7.8013506	,	7
29,11	,	60927	,	-22396	,	-20414	,	6.8139124	,	4
29,11	,	60959	,	-22416	,	-20397	,	6.588147	,	2
29,11	,	60975	,	-22399	,	-20393	,	6.7295065	,	1
29,11	,	60991	,	-22405	,	-20396	,	6.866996	,	0
29,11	,	61023	,	-22406	,	-20395	,	6.835851	,	0
29,11	,	61039	,	-22404	,	-20389	,	6.5434847	,	0
29,11	,	61071	,	-22403	,	-20404	,	5.9758205	,	0
29,11	,	61087	,	-22415	,	-20394	,	5.1636457	,	0
29,11	,	61103	,	-22411	,	-20403	,	4.0679026	,	0
29,11	,	61135	,	-22423	,	-20396	,	2.6387365	,	0
29,11	,	61151	,	-22428	,	-20391	,	0.85239196	,	0
29,11	,	61168	,	-22427	,	-20411	,	-1.269711	,	0
29,11	,	61199	,	-22428	,	-20385	,	-3.548098	,	0
29,11	,	61215	,	-22423	,	-20394	,	-5.6502795	,	0
29,11	,	61247	,	-22422	,	-20392	,	-7.21972	,	0
29,11	,	61263	,	-22426	,	-20396	,	-8.030515	,	0
29,12	,	61279	,	-22438	,	-20401	,	-8.14487	,	0
29,12	,	61311	,	-22433	,	-20395	,	-7.8700686	,	0
29,12	,	61327	,	-22432	,	-20400	,	-7.4591823	,	0
29,12	,	61343	,	-22442	,	-20402	,	-6.9952593	,	0
29,12	,	61375	,	-22433	,	-20411	,	-6.534178	,	0
29,12	,	61391	,	-22446	,	-20405	,	-6.1337147	,	0
29,12	,	61407	,	-22430	,	-20424	,	-5.79152	,	0
29,12	,	61439	,	-22436	,	-20400	,	-5.389698	,	0
29,12	,	61455	,	-22445	,	-20410	,	-4.828252	,	0
29,12	,	61487	,	-22435	,	-20401	,	-4.1904516	,	0
29,12	,	61503	,	-22448	,	-20411	,	-3.6063883	,	0
29,12	,	61519	,	-22451	,	-20404	,	-3.2069952	,	0
29,12	,	61551	,	-22447	,	-20406	,	-3.130188	,	0
29,12	,	61567	,	-22456	,	-20404	,	-3.3860416	,	0
29,12	,	61583	,	-22433	,	-20405	,	-3.7991052	,	0
29,12	,	61615	,	-22409	,	-20396	,	-3.8609896	,	0
29,12	,	61631	,	-22413	,	-20392	,	-2.856648	,	0
29,12	,	61663	,	-22398	,	-20408	,	-0.44202244	,	1
29,12	,	61679	,	-22398	,	-20372	,	3.1746204	,	3
29,12	,	61695	,	-22393	,	-20392	,	7.4697123	,	6
29,12	,	61727	,	-22388	,	-20384	,	11.807997	,	10
29,12	,	61743	,	-22383	,	-20379	,	15.642744	,	14
29,12	,	61759	,	-22378	,	-20384	,	18.629541	,	17
29,12	,	61791	,	-22378	,	-20376	,	20.603294	,	19
29,12	,	61807	,	-22394	,	-20377	,	21.426739	,	20
29,12	,	61823	,	-22383	,	-20383	,	20.925993	,	20
29,12	,	61855	,	-22375	,	-20389	,	19.186777	,	19
29,12	,	61871	,	-22368	,	-20372	,	16.733395	,	17
29,12	,	61903	,	-22359	,	-20391	,	14.253099	,	14
29,12	,	61919	,	-22364	,	-20366	,	12.24773	,	10
29,12	,	61935	,	-22354	,	-20378	,	10.895622	,	6
29,12	,	61967	,	-22356	,	-20378	,	10.156652	,	3
29,12	,	61983	,	-22353	,	-20369	,	9.891125	,	1
29,12	,	61999	,	-22366	,	-20371	,	9.824697	,	0
29,12	,	62031	,	-22362	,	-20371	,	9.576237	,	0
29,12	,	62047	,	-22360	,	-20374	,	8.885605	,	0
29,12	,	62079	,	-22366	,	-20379	,	7.741	,	0
29,12	,	62095	,	-22372	,	-20374	,	6.2098002	,	0
29,12	,	62111	,	-22358	,	-20372	,	4.390007	,	0
29,12	,	62143	,	-22377	,	-20385	,	2.4859722	,	0
29,12	,	62159	,	-22377	,	-20376	,	0.6189265	,	0
29,12	,	62175	,	-22375	,	-20382	,	-1.2180748	,	0
29,12	,	62207	,	-22379	,	-20387	,	-2.9455914	,	0
29,12	,	62223	,	-22381	,	-20375	,	-4.4327054	,	0
29,12	,	62255	,	-22382	,	-20378	,	-5.614217	,	0
29,13	,	62271	,	-22389	,	-20377	,	-6.4843655	,	0
29,13	,	62287	,	-22377	,	-20388	,	-7.0486965	,	0
29,13	,	62319	,	-22387	,	-20387	,	-7.25797	,	0
29,13	,	62335	,	-22383	,	-20382	,	-7.0831556	,	0
29,13	,	62351	,	-22384	,	-20379	,	-6.5765147	,	0
29,13	,	62383	,	-22385	,	-20393	,	-5.813369	,	0
29,13	,	62399	,	-22392	,	-20385	,	-4.9280124	,	0
29,13	,	62415	,	-22398	,	-20391	,	-4.158301	,	0
29,13	,	62447	,	-22398	,	-20394	,	-3.7431326	,	0
29,13	,	62463	,	-22395	,	-20401	,	-3.7462716	,	0
29,13	,	62495	,	-22414	,	-20395	,	-4.09898	,	0
29,13	,	62511	,	-22406	,	-20392	,	-4.792172	,	0
29,13	,	62527	,	-22413	,	-20394	,	-5.786296	,	0
29,13	,	62559	,	-22403	,	-20396	,	-6.861425	,	0
29,13	,	62575	,	-22413	,	-20399	,	-7.730216	,	0
29,13	,	62591	,	-22426	,	-20396	,	-8.296175	,	0
29,13	,	62623	,	-22420	,	-20414	,	-8.717977	,	0
29,13	,	62639	,	-22415	,	-20398	,	-9.075176	,	0
29,13	,	62671	,	-22409	,	-20399	,	-9.160198	,	0
29,13	,	62687	,	-22382	,	-20392	,	-8.56765	,	0
29,13	,	62703	,	-22380	,	-20391	,	-6.8138013	,	0
29,13	,	62735	,	-22364	,	-20386	,	-3.6234345	,	1
29,13	,	62751	,	-22363	,	-20389	,	0.84814024	,	4
29,13	,	62767	,	-22357	,	-20378	,	6.0841975	,	8
29,13	,	62798	,	-22355	,	-20382	,	11.382224	,	13
29,13	,	62815	,	-22356	,	-20376	,	16.04294	,	18
29,13	,	62831	,	-22340	,	-20380	,	19.57691	,	22
29,13	,	62863	,	-22341	,	-20383	,	21.856577	,	25
29,13	,	62879	,	-22350	,	-20371	,	22.927605	,	27
29,13	,	62910	,	-22354	,	-20378	,	22.717077	,	28
29,13	,	62927	,	-22358	,	-20383	,	21.129082	,	27
29,13	,	62943	,	-22351	,	-20385	,	18.298372	,	24
29,13	,	62974	,	-22344	,	-20377	,	14.691154	,	20
29,13	,	62991	,	-22351	,	-20382	,	10.945355	,	15
29,13	,	63007	,	-22333	,	-20380	,	7.6136303	,	10
29,13	,	63039	,	-22346	,	-20383	,	5.0731754	,	6
29,13	,	63055	,	-22346	,	-20388	,	3.4113812	,	3
29,13	,	63087	,	-22340	,	-20389	,	2.4364862	,	1
29,13	,	63103	,	-22354	,	-20386	,	1.8898559	,	0
29,13	,	63119	,	-22343	,	-20383	,	1.5133705	,	0
29,13	,	63150	,	-22350	,	-20380	,	1.1315986	,	0
29,13	,	63166	,	-22344	,	-20386	,	0.7252455	,	0
29,13	,	63182	,	-22354	,	-20391	,	0.31954652	,	0
29,13	,	63214	,	-22363	,	-20392	,	-0.16848189	,	0
29,13	,	63231	,	-22356	,	-20397	,	-0.90102005	,	0
29,13	,	63246	,	-22360	,	-20397	,	-1.88732	,	0
29,14	,	63278	,	-22362	,	-20398	,	-2.9677074	,	0
29,14	,	63294	,	-22357	,	-20392	,	-3.9706967	,	0
29,14	,	63326	,	-22366	,	-20402	,	-4.7588153	,	0
29,14	,	63342	,	-22378	,	-20400	,	-5.353055	,	0
29,14	,	63359	,	-22372	,	-20405	,	-5.946603	,	0
29,14	,	63391	,	-22378	,	-20406	,	-6.636498	,	0
29,14	,	63406	,	-22378	,	-20408	,	-7.3438053	,	0
29,14	,	63422	,	-22400	,	-20409	,	-8.054245	,	0
29,14	,	63455	,	-22397	,	-20404	,	-8.9430685	,	0
29,14	,	63470	,	-22391	,	-20410	,	-10.087926	,	0
29,14	,	63502	,	-22392	,	-20415	,	-11.212139	,	0
29,14	,	63518	,	-22396	,	-20417	,	-11.9371395	,	0
29,14	,	63534	,	-22406	,	-20416	,	-12.144232	,	0
29,14	,	63566	,	-22404	,	-20413	,	-11.982187	,	0
29,14	,	63582	,	-22402	,	-20422	,	-11.598053	,	0
29,14	,	63598	,	-22415	,	-20432	,	-11.039707	,	0
29,14	,	63630	,	-22421	,	-20416	,	-10.4582815	,	0
29,14	,	63646	,	-22417	,	-20430	,	-10.079004	,	0
29,14	,	63662	,	-22408	,	-20419	,	-9.880537	,	0
29,14	,	63694	,	-22412	,	-20414	,	-9.570646	,	0
29,14	,	63710	,	-22392	,	-20421	,	-8.819332	,	0
29,14	,	63743	,	-22373	,	-20415	,	-7.2504497	,	0
29,14	,	63758	,	-22380	,	-20408	,	-4.523695	,	1
29,14	,	63774	,	-22373	,	-20409	,	-0.7340689	,	3
29,14	,	63806	,	-22385	,	-20408	,	3.5095038	,	6
29,14	,	63822	,	-22371	,	-20406	,	7.4499073	,	10
29,14	,	63838	,	-22380	,	-20419	,	10.541778	,	13
29,14	,	63870	,	-22369	,	-20404	,	12.5458355	,	16
29,14	,	63886	,	-22378	,	-20407	,	13.441398	,	18
29,14	,	63918	,	-22383	,	-20421	,	13.283796	,	18
29,14	,	63934	,	-22377	,	-20412	,	12.147512	,	18
29,14	,	63950	,	-22379	,	-20417	,	10.253164	,	17
29,14	,	63982	,	-22376	,	-20416	,	7.9697566	,	15
29,14	,	63998	,	-22378	,	-20410	,	5.650972	,	12
29,14	,	64014	,	-22391	,	-20412	,	3.4849277	,	8
29,14	,	64046	,	-22376	,	-20408	,	1.4960053	,	5
29,14	,	64062	,	-22377	,	-20413	,	-0.20841527	,	2
29,14	,	64078	,	-22381	,	-20428	,	-1.4173472	,	0
29,14	,	64110	,	-22387	,	-20413	,	-2.1035328	,	0
29,14	,	64126	,	-22386	,	-20420	,	-2.4605317	,	0
29,14	,	64158	,	-22392	,	-20413	,	-2.706041	,	0
29,14	,	64174	,	-22399	,	-20417	,	-3.0198698	,	0
29,14	,	64190	,	-22395	,	-20417	,	-3.5378852	,	0
29,14	,	64222	,	-22401	,	-20411	,	-4.262735	,	0
29,14	,	64238	,	-22389	,	-20417	,	-5.0304427	,	0
29,14	,	64254	,	-22393	,	-20420	,	-5.569922	,	0
29,15	,	64286	,	-22398	,	-20428	,	-5.68935	,	0
29,15	,	64302	,	-22393	,	-20425	,	-5.417052	,	0
29,15	,	64334	,	-22394	,	-20446	,	-4.8617277	,	0
29,15	,	64350	,	-22415	,	-20415	,	-4.199686	,	0
29,15	,	64366	,	-22421	,	-20433	,	-3.8388798	,	0
29,15	,	64398	,	-22412	,	-20437	,	-4.148582	,	0
29,15	,	64414	,	-22409	,	-20434	,	-5.0171275	,	0
29,15	,	64430	,	-22424	,	-20432	,	-6.0397162	,	0
29,15	,	64462	,	-22425	,	-20433	,	-7.0119634	,	0
29,15	,	64478	,	-22437	,	-20437	,	-7.986782	,	0
29,15	,	64494	,	-22426	,	-20434	,	-9.013344	,	0
29,15	,	64526	,	-22437	,	-20429	,	-9.980742	,	0
29,15	,	64542	,	-22438	,	-20435	,	-10.739643	,	0
29,15	,	64574	,	-22436	,	-20443	,	-11.223343	,	0
29,15	,	64590	,	-22451	,	-20426	,	-11.427815	,	0
29,15	,	64606	,	-22451	,	-20442	,	-11.469723	,	0
29,15	,	64638	,	-22444	,	-20442	,	-11.468998	,	0
29,15	,	64654	,	-22450	,	-20447	,	-11.347116	,	0
29,15	,	64670	,	-22456	,	-20441	,	-11.00317	,	0
29,15	,	64702	,	-22432	,	-20445	,	-10.38929	,	0
29,15	,	64718	,	-22411	,	-20428	,	-9.1733265	,	0
29,15	,	64750	,	-22423	,	-20441	,	-6.8643365	,	1
29,15	,	64766	,	-22411	,	-20430	,	-3.430118	,	3
29,15	,	64782	,	-22414	,	-20437	,	0.6588435	,	6
29,15	,	64814	,	-22406	,	-20450	,	4.8272533	,	10
29,15	,	64830	,	-22407	,	-20420	,	8.590186	,	14
29,15	,	64846	,	-22406	,	-20431	,	11.583527	,	17
29,15	,	64878	,	-22400	,	-20437	,	13.590492	,	19
29,15	,	64894	,	-22407	,	-20433	,	14.562844	,	21
29,15	,	64910	,	-22398	,	-20429	,	14.57048	,	21
29,15	,	64942	,	-22408	,	-20427	,	13.752686	,	20
29,15	,	64958	,	-22413	,	-20433	,	12.230104	,	18
29,15	,	64990	,	-22411	,	-20421	,	10.072897	,	15
29,15	,	65006	,	-22407	,	-20425	,	7.4718523	,	11
29,15	,	65022	,	-22401	,	-20421	,	4.8191357	,	7
29,15	,	65054	,	-22410	,	-20434	,	2.5227132	,	4
29,15	,	65070	,	-22406	,	-20416	,	0.7778957	,	2
29,15	,	65086	,	-22408	,	-20432	,	-0.42354894	,	0
29,15	,	65118	,	-22408	,	-20431	,	-1.1523367	,	0
29,15	,	65134	,	-22403	,	-20428	,	-1.4749627	,	0
29,15	,	65166	,	-22403	,	-20429	,	-1.4263974	,	0
29,15	,	65182	,	-22413	,	-20430	,	-1.0920515	,	0
29,15	,	65198	,	-22412	,	-20435	,	-0.69982576	,	0
29,15	,	65230	,	-22406	,	-20430	,	-0.45788044	,	0
29,15	,	65246	,	-22418	,	-20435	,	-0.41791046	,	0
29,15	,	65262	,	-22413	,	-20433	,	-0.59274757	,	0
29,16	,	65294	,	-22423	,	-20448	,	-1.0146487	,	0
29,16	,	65309	,	-22420	,	-20430	,	-1.6859665	,	0
29,16	,	65325	,	-22424	,	-20432	,	-2.5467477	,	0
29,16	,	65358	,	-22420	,	-20431	,	-3.4592652	,	0
29,16	,	65374	,	-22438	,	-20439	,	-4.3201227	,	0
29,16	,	65406	,	-22443	,	-20443	,	-5.2291965	,	0
29,16	,	65422	,	-22443	,	-20427	,	-6.375525	,	0
29,16	,	65438	,	-22448	,	-20446	,	-7.76192	,	0
29,16	,	65470	,	-22447	,	-20438	,	-9.198256	,	0
29,16	,	65486	,	-22447	,	-20433	,	-10.4363165	,	0
29,16	,	65501	,	-22449	,	-20426	,	-11.253246	,	0
29,16	,	65534	,	-22455	,	-20445	,	-11.556124	,	0
29,16	,	65550	,	-22457	,	-20436	,	-11.42536	,	0
29,16	,	65582	,	-22458	,	-20438	,	-11.01502	,	0
29,16	,	65598	,	-22474	,	-20441	,	-10.506729	,	0
29,16	,	65614	,	-22469	,	-20442	,	-10.131704	,	0
29,16	,	65646	,	-22469	,	-20455	,	-9.993061	,	0
29,16	,	65661	,	-22477	,	-20449	,	-9.983261	,	0
29,16	,	65677	,	-22483	,	-20454	,	-10.023998	,	0
29,16	,	65710	,	-22475	,	-20459	,	-10.11035	,	0
29,16	,	65726	,	-22482	,	-20450	,	-10.143108	,	0
29,16	,	65757	,	-22477	,	-20443	,	-9.974428	,	0
29,16	,	65774	,	-22456	,	-20447	,	-9.405081	,	0
29,16	,	65790	,	-22434	,	-20432	,	-7.987204	,	0
29,16	,	65822	,	-22446	,	-20439	,	-5.265549	,	1
29,16	,	65838	,	-22439	,	-20433	,	-1.3501859	,	3
29,16	,	65854	,	-22431	,	-20438	,	3.1486495	,	6
29,16	,	65886	,	-22439	,	-20433	,	7.577286	,	10
29,16	,	65901	,	-22432	,	-20429	,	11.355071	,	14
29,16	,	65918	,	-22435	,	-20431	,	14.040712	,	17
29,16	,	65949	,	-22432	,	-20431	,	15.450403	,	19
29,16	,	65965	,	-22429	,	-20427	,	15.646025	,	20
29,16	,	65997	,	-22427	,	-20426	,	14.881998	,	20
29,16	,	66013	,	-22434	,	-20439	,	13.464928	,	19
29,16	,	66030	,	-22430	,	-20434	,	11.614725	,	17
29,16	,	66062	,	-22417	,	-20426	,	9.568834	,	14
29,16	,	66077	,	-22417	,	-20431	,	7.708355	,	10
29,16	,	66093	,	-22422	,	-20433	,	6.3394446	,	6
29,16	,	66125	,	-22418	,	-20433	,	5.469314	,	3
29,16	,	66141	,	-22419	,	-20431	,	4.939425	,	1
29,16	,	66174	,	-22425	,	-20429	,	4.571958	,	0
29,16	,	66190	,	-22418	,	-20433	,	4.2019362	,	0
29,16	,	66206	,	-22422	,	-20425	,	3.756823	,	0
29,16	,	66237	,	-22427	,	-20427	,	3.2184944	,	0
29,16	,	66253	,	-22421	,	-20435	,	2.5494165	,	0
29,17	,	66269	,	-22422	,	-20440	,	1.7807989	,	0
29,17	,	66301	,	-22420	,	-20428	,	1.0363014	,	0
29,17	,	66317	,	-22424	,	-20432	,	0.42167807	,	0
29,17	,	66333	,	-22424	,	-20434	,	-0.04219377	,	0
29,17	,	66365	,	-22437	,	-20427	,	-0.45077562	,	0
29,17	,	66381	,	-22439	,	-20438	,	-1.0196092	,	0
29,17	,	66413	,	-22439	,	-20427	,	-1.9229394	,	0
29,17	,	66429	,	-22440	,	-20435	,	-3.1147623	,	0
29,17	,	66445	,	-22448	,	-20435	,	-4.4191585	,	0
29,17	,	66477	,	-22458	,	-20435	,	-5.7554927	,	0
29,17	,	66493	,	-22440	,	-20437	,	-7.085867	,	0
29,17	,	66509	,	-22453	,	-20448	,	-8.205454	,	0
29,17	,	66541	,	-22444	,	-20438	,	-8.861072	,	0
29,17	,	66557	,	-22446	,	-20439	,	-8.925448	,	0
29,17	,	66589	,	-22446	,	-20442	,	-8.37678	,	0
29,17	,	66605	,	-22444	,	-20436	,	-7.307173	,	0
29,17	,	66622	,	-22456	,	-20442	,	-5.942381	,	1
29,17	,	66653	,	-22465	,	-20439	,	-4.664978	,	2
29,17	,	66669	,	-22460	,	-20442	,	-3.877218	,	3
29,17	,	66685	,	-22465	,	-20443	,	-3.7191775	,	3
29,17	,	66717	,	-22473	,	-20446	,	-4.1016836	,	3
29,17	,	66733	,	-22473	,	-20443	,	-4.918235	,	3
29,17	,	66749	,	-22483	,	-20456	,	-6.072014	,	3
29,17	,	66781	,	-22473	,	-20437	,	-7.4079685	,	3
29,17	,	66797	,	-22464	,	-20446	,	-8.593093	,	3
29,17	,	66829	,	-22452	,	-20441	,	-9.095985	,	2
29,17	,	66845	,	-22445	,	-20438	,	-8.418318	,	1
29,17	,	66861	,	-22425	,	-20435	,	-6.283213	,	0
29,17	,	66893	,	-22431	,	-20421	,	-2.704774	,	2
29,17	,	66909	,	-22432	,	-20430	,	1.8665252	,	5
29,17	,	66925	,	-22431	,	-20423	,	6.6053047	,	9
29,17	,	66957	,	-22432	,	-20424	,	10.694885	,	13
29,17	,	66973	,	-22423	,	-20423	,	13.633398	,	17
29,17	,	67005	,	-22429	,	-20433	,	15.276376	,	19
29,17	,	67021	,	-22418	,	-20406	,	15.717886	,	20
29,17	,	67037	,	-22438	,	-20424	,	15.129708	,	20
29,17	,	67069	,	-22428	,	-20418	,	13.638184	,	20
29,17	,	67085	,	-22429	,	-20426	,	11.41734	,	18
29,17	,	67101	,	-22429	,	-20419	,	8.801895	,	15
29,17	,	67133	,	-22430	,	-20425	,	6.1480875	,	11
29,17	,	67149	,	-22423	,	-20414	,	3.7497034	,	7
29,17	,	67165	,	-22423	,	-20418	,	1.8656335	,	3
29,17	,	67197	,	-22421	,	-20418	,	0.65803194	,	1
29,17	,	67213	,	-22415	,	-20423	,	0.16052508	,	0
29,17	,	67245	,	-22421	,	-20445	,	0.29850632	,	0
29,18	,	67261	,	-22422	,	-20411	,	0.8505792	,	0
29,18	,	67277	,	-22413	,	-20424	,	1.5463655	,	0
29,18	,	67309	,	-22427	,	-20427	,	2.2061102	,	0
29,18	,	67325	,	-22434	,	-20420	,	2.602958	,	0
29,18	,	67341	,	-22419	,	-20422	,	2.5017664	,	0
29,18	,	67373	,	-22428	,	-20427	,	1.9519104	,	0
29,18	,	67389	,	-22425	,	-20422	,	1.1878564	,	0
29,18	,	67421	,	-22429	,	-20426	,	0.3684373	,	0
29,18	,	67437	,	-22440	,	-20419	,	-0.48205054	,	0
29,18	,	67453	,	-22439	,	-20420	,	-1.4570119	,	0
29,18	,	67485	,	-22436	,	-20436	,	-2.5931096	,	0
29,18	,	67501	,	-22427	,	-20416	,	-3.6923041	,	0
29,18	,	67517	,	-22439	,	-20424	,	-4.4649343	,	0
29,18	,	67549	,	-22424	,	-20425	,	-4.761239	,	0
29,18	,	67565	,	-22443	,	-20430	,	-4.600359	,	0
29,18	,	67581	,	-22438	,	-20420	,	-4.170456	,	0
29,18	,	67613	,	-22460	,	-20430	,	-3.8200605	,	0
29,18	,	67629	,	-22458	,	-20422	,	-3.9405777	,	0
29,18	,	67661	,	-22453	,	-20433	,	-4.7062635	,	0
29,18	,	67677	,	-22451	,	-20422	,	-5.863267	,	0
29,18	,	67693	,	-22457	,	-20435	,	-6.9636273	,	0
29,18	,	67725	,	-22455	,	-20442	,	-7.727359	,	0
29,18	,	67741	,	-22464	,	-20416	,	-8.102781	,	0
29,18	,	67757	,	-22450	,	-20432	,	-8.1258	,	0
29,18	,	67789	,	-22461	,	-20426	,	-7.7855587	,	0
29,18	,	67805	,	-22426	,	-20415	,	-6.949464	,	0
29,18	,	67837	,	-22432	,	-20422	,	-5.323745	,	0
29,18	,	67853	,	-22408	,	-20410	,	-2.6409962	,	1
29,18	,	67869	,	-22414	,	-20419	,	1.0847855	,	3
29,18	,	67901	,	-22415	,	-20413	,	5.454812	,	6
29,18	,	67917	,	-22398	,	-20403	,	9.829677	,	10
29,18	,	67933	,	-22397	,	-20407	,	13.732527	,	14
29,18	,	67964	,	-22397	,	-20417	,	16.919304	,	17
29,18	,	67980	,	-22398	,	-20391	,	19.155252	,	20
29,18	,	67996	,	-22392	,	-20401	,	20.254606	,	22
29,18	,	68029	,	-22392	,	-20390	,	20.22641	,	23
29,18	,	68045	,	-22391	,	-20401	,	19.24556	,	22
29,18	,	68077	,	-22397	,	-20396	,	17.5122	,	20
29,18	,	68093	,	-22386	,	-20397	,	15.231225	,	17
29,18	,	68109	,	-22378	,	-20396	,	12.755548	,	13
29,18	,	68141	,	-22375	,	-20387	,	10.565196	,	9
29,18	,	68157	,	-22369	,	-20385	,	9.022086	,	6
29,18	,	68172	,	-22375	,	-20387	,	8.208908	,	3
29,18	,	68205	,	-22369	,	-20402	,	7.9494534	,	1
29,18	,	68221	,	-22367	,	-20377	,	7.990282	,	0
29,18	,	68252	,	-22368	,	-20390	,	8.147046	,	0
29,19	,	68269	,	-22370	,	-20393	,	8.254166	,	0
29,19	,	68285	,	-22358	,	-20393	,	8.191673	,	0
29,19	,	68316	,	-22365	,	-20391	,	7.983529	,	0
29,19	,	68333	,	-22366	,	-20393	,	7.6606083	,	0
29,19	,	68348	,	-22377	,	-20391	,	7.0940228	,	0
29,19	,	68380	,	-22380	,	-20390	,	6.064454	,	0
29,19	,	68396	,	-22373	,	-20395	,	4.487149	,	0
29,19	,	68412	,	-22377	,	-20392	,	2.556856	,	0
29,19	,	68445	,	-22383	,	-20398	,	0.56833744	,	0
29,19	,	68461	,	-22377	,	-20389	,	-1.2823141	,	0
29,19	,	68492	,	-22389	,	-20390	,	-2.877387	,	0
29,19	,	68508	,	-22395	,	-20392	,	-4.2331996	,	0
29,19	,	68524	,	-22384	,	-20402	,	-5.4435873	,	0
29,19	,	68556	,	-22399	,	-20406	,	-6.4859037	,	0
29,19	,	68572	,	-22401	,	-20405	,	-7.3402224	,	0
29,19	,	68589	,	-22399	,	-20407	,	-8.074224	,	0
29,19	,	68620	,	-22398	,	-20411	,	-8.651795	,	0
29,19	,	68636	,	-22412	,	-20407	,	-8.9863615	,	0
29,19	,	68668	,	-22411	,	-20408	,	-9.153856	,	0
29,19	,	68684	,	-22410	,	-20415	,	-9.280083	,	0
29,19	,	68700	,	-22409	,	-20406	,	-9.331593	,	0
29,19	,	68732	,	-22421	,	-20415	,	-9.228128	,	0
29,19	,	68748	,	-22431	,	-20424	,	-9.087967	,	0
29,19	,	68764	,	-22433	,	-20416	,	-9.187935	,	0
29,19	,	68796	,	-22431	,	-20421	,	-9.6584	,	0
29,19	,	68812	,	-22420	,	-20410	,	-10.28487	,	0
29,19	,	68844	,	-22404	,	-20408	,	-10.537783	,	0
29,19	,	68860	,	-22385	,	-20403	,	-9.730446	,	0
29,19	,	68876	,	-22374	,	-20409	,	-7.2954183	,	0
29,19	,	68908	,	-22375	,	-20404	,	-3.1334095	,	2
29,19	,	68924	,	-22367	,	-20401	,	2.2569208	,	6
29,19	,	68940	,	-22367	,	-20402	,	8.044073	,	11
29,19	,	68972	,	-22355	,	-20400	,	13.442237	,	16
29,19	,	68988	,	-22349	,	-20397	,	17.948383	,	21
29,19	,	69004	,	-22343	,	-20396	,	21.363848	,	25
29,19	,	69036	,	-22362	,	-20400	,	23.552153	,	28
29,19	,	69052	,	-22357	,	-20393	,	24.249065	,	30
29,19	,	69084	,	-22357	,	-20400	,	23.291811	,	30
29,19	,	69100	,	-22353	,	-20406	,	20.899818	,	28
29,19	,	69116	,	-22353	,	-20407	,	17.58258	,	24
29,19	,	69148	,	-22349	,	-20402	,	13.909673	,	19
29,19	,	69164	,	-22348	,	-20411	,	10.380195	,	14
29,19	,	69180	,	-22341	,	-20403	,	7.3791504	,	9
29,19	,	69212	,	-22339	,	-20395	,	5.172452	,	5
29,19	,	69228	,	-22342	,	-20404	,	3.8489385	,	2
29,19	,	69260	,	-22345	,	-20405	,	3.2508576	,	0
29,20	,	69276	,	-22350	,	-20401	,	3.0388384	,	0
29,20	,	69292	,	-22340	,	-20408	,	2.9020414	,	0
29,20	,	69324	,	-22339	,	-20411	,	2.7531438	,	0
29,20	,	69340	,	-22340	,	-20412	,	2.663691	,	0
29,20	,	69356	,	-22350	,	-20413	,	2.6074748	,	0
29,20	,	69388	,	-22348	,	-20416	,	2.401669	,	0
29,20	,	69404	,	-22352	,	-20419	,	1.8951331	,	0
29,20	,	69420	,	-22356	,	-20423	,	1.061528	,	0
29,20	,	69452	,	-22361	,	-20415	,	-0.082766175	,	0
29,20	,	69468	,	-22375	,	-20429	,	-1.564509	,	0
29,20	,	69500	,	-22377	,	-20423	,	-3.4554174	,	0
29,20	,	69516	,	-22382	,	-20424	,	-5.7436895	,	0
29,20	,	69532	,	-22383	,	-20429	,	-8.232039	,	0
29,20	,	69564	,	-22387	,	-20433	,	-10.6115675	,	0
29,20	,	69580	,	-22391	,	-20434	,	-12.609602	,	0
29,20	,	69596	,	-22388	,	-20438	,	-14.047972	,	0
29,20	,	69628	,	-22387	,	-20438	,	-14.779732	,	0
29,20	,	69644	,	-22401	,	-20438	,	-14.754993	,	0
29,20	,	69676	,	-22406	,	-20440	,	-14.197056	,	0
29,20	,	69692	,	-22411	,	-20437	,	-13.499273	,	0
29,20	,	69708	,	-22419	,	-20446	,	-12.974369	,	0
29,20	,	69740	,	-22416	,	-20441	,	-12.757284	,	0
29,20	,	69756	,	-22419	,	-20451	,	-12.7781925	,	0
29,20	,	69772	,	-22421	,	-20446	,	-12.841614	,	0
29,20	,	69804	,	-22425	,	-20450	,	-12.793235	,	0
29,20	,	69820	,	-22421	,	-20460	,	-12.549175	,	0
29,20	,	69836	,	-22420	,	-20460	,	-12.014489	,	0
29,20	,	69868	,	-22431	,	-20460	,	-11.1415	,	0
29,20	,	69884	,	-22411	,	-20449	,	-9.977219	,	0
29,20	,	69916	,	-22406	,	-20467	,	-8.449594	,	1
29,20	,	69932	,	-22386	,	-20437	,	-6.2764087	,	2
29,20	,	69948	,	-22376	,	-20450	,	-3.1566114	,	4
29,20	,	69980	,	-22377	,	-20448	,	0.96634793	,	7
29,20	,	69996	,	-22374	,	-20439	,	5.715209	,	11
29,20	,	70028	,	-22368	,	-20445	,	10.443757	,	15
29,20	,	70044	,	-22370	,	-20435	,	14.558345	,	19
29,20	,	70060	,	-22372	,	-20445	,	17.596746	,	23
29,20	,	70092	,	-22366	,	-20440	,	19.259073	,	26
29,20	,	70108	,	-22376	,	-20444	,	19.479385	,	26
29,20	,	70123	,	-22374	,	-20438	,	18.35428	,	25
29,20	,	70156	,	-22379	,	-20455	,	16.080696	,	23
29,20	,	70172	,	-22371	,	-20431	,	13.001213	,	20
29,20	,	70188	,	-22366	,	-20430	,	9.629303	,	16
29,20	,	70220	,	-22370	,	-20436	,	6.514551	,	12
29,20	,	70236	,	-22369	,	-20442	,	3.9914508	,	8
29,21	,	70268	,	-22376	,	-20447	,	2.1057076	,	4
29,21	,	70284	,	-22365	,	-20445	,	0.7737324	,	1
29,21	,	70300	,	-22371	,	-20447	,	-0.050093174	,	0
29,21	,	70332	,	-22385	,	-20450	,	-0.47669542	,	0
29,21	,	70347	,	-22370	,	-20442	,	-0.7696898	,	0
29,21	,	70364	,	-22375	,	-20465	,	-1.0658697	,	0
29,21	,	70396	,	-22372	,	-20439	,	-1.2891666	,	0
29,21	,	70411	,	-22390	,	-20450	,	-1.4467057	,	0
29,21	,	70444	,	-22389	,	-20448	,	-1.757387	,	0
29,21	,	70460	,	-22395	,	-20460	,	-2.4464192	,	0
29,21	,	70476	,	-22398	,	-20458	,	-3.5588057	,	0
29,21	,	70508	,	-22398	,	-20457	,	-4.977662	,	0
29,21	,	70524	,	-22393	,	-20454	,	-6.448409	,	0
29,21	,	70540	,	-22415	,	-20461	,	-7.7252874	,	0
29,21	,	70571	,	-22413	,	-20453	,	-8.817422	,	0
29,21	,	70587	,	-22398	,	-20470	,	-9.772476	,	0
29,21	,	70603	,	-22410	,	-20478	,	-10.378281	,	0
29,21	,	70635	,	-22413	,	-20453	,	-10.4606905	,	0
29,21	,	70652	,	-22417	,	-20471	,	-10.138437	,	0
29,21	,	70684	,	-22422	,	-20466	,	-9.652887	,	0
29,21	,	70700	,	-22422	,	-20476	,	-9.2029505	,	0
29,21	,	70716	,	-22424	,	-20477	,	-8.868657	,	0
29,21	,	70748	,	-22430	,	-20471	,	-8.636648	,	0
29,21	,	70764	,	-22437	,	-20468	,	-8.533954	,	0
29,21	,	70779	,	-22435	,	-20476	,	-8.629831	,	0
29,21	,	70811	,	-22431	,	-20476	,	-8.864788	,	0
29,21	,	70827	,	-22425	,	-20470	,	-8.981475	,	0
29,21	,	70859	,	-22416	,	-20482	,	-8.632652	,	0
29,21	,	70875	,	-22415	,	-20446	,	-7.538248	,	0
29,21	,	70891	,	-22398	,	-20463	,	-5.575546	,	1
29,21	,	70923	,	-22411	,	-20458	,	-2.818427	,	2
29,21	,	70939	,	-22400	,	-20462	,	0.39838433	,	4
29,21	,	70956	,	-22395	,	-20459	,	3.6420617	,	7
29,21	,	70987	,	-22401	,	-20453	,	6.5951104	,	10
29,21	,	71003	,	-22396	,	-20458	,	8.982703	,	12
29,21	,	71035	,	-22403	,	-20457	,	10.553605	,	14
29,21	,	71051	,	-22412	,	-20463	,	11.114936	,	15
29,21	,	71067	,	-22405	,	-20460	,	10.556265	,	15
29,21	,	71099	,	-22396	,	-20468	,	9.0632305	,	14
29,21	,	71115	,	-22401	,	-20452	,	7.128474	,	13
29,21	,	71131	,	-22402	,	-20466	,	5.1933208	,	11
29,21	,	71163	,	-22393	,	-20457	,	3.5004487	,	8
29,21	,	71179	,	-22400	,	-20462	,	2.2122757	,	5
29,21	,	71196	,	-22408	,	-20455	,	1.3376856	,	3
29,21	,	71227	,	-22402	,	-20467	,	0.6875452	,	1
29,21	,	71243	,	-22401	,	-20454	,	0.12394321	,	0
29,22	,	71275	,	-22403	,	-20461	,	-0.33118147	,	0
29,22	,	71291	,	-22396	,	-20459	,	-0.6121079	,	0
29,22	,	71307	,	-22410	,	-20456	,	-0.7044741	,	0
29,22	,	71339	,	-22403	,	-20473	,	-0.7128232	,	0
29,22	,	71355	,	-22407	,	-20456	,	-0.76753527	,	0
29,22	,	71371	,	-22418	,	-20466	,	-0.9534335	,	0
29,22	,	71403	,	-22416	,	-20463	,	-1.3934367	,	0
29,22	,	71419	,	-22419	,	-20470	,	-2.1589978	,	0
29,22	,	71451	,	-22427	,	-20472	,	-3.1963217	,	0
29,22	,	71467	,	-22427	,	-20467	,	-4.429626	,	0
29,22	,	71483	,	-22432	,	-20475	,	-5.7699404	,	0
29,22	,	71515	,	-22434	,	-20481	,	-7.0959854	,	0
29,22	,	71531	,	-22443	,	-20474	,	-8.327047	,	0
29,22	,	71547	,	-22448	,	-20475	,	-9.476763	,	0
29,22	,	71579	,	-22442	,	-20489	,	-10.550688	,	0
29,22	,	71595	,	-22444	,	-20473	,	-11.395772	,	0
29,22	,	71612	,	-22450	,	-20484	,	-11.816165	,	0
29,22	,	71643	,	-22442	,	-20479	,	-11.751406	,	0
29,22	,	71659	,	-22453	,	-20486	,	-11.239566	,	0
29,22	,	71691	,	-22462	,	-20488	,	-10.451286	,	0
29,22	,	71707	,	-22465	,	-20489	,	-9.717447	,	0
29,22	,	71723	,	-22469	,	-20492	,	-9.316277	,	0
29,22	,	71755	,	-22468	,	-20493	,	-9.304767	,	0
29,22	,	71771	,	-22468	,	-20490	,	-9.534828	,	0
29,22	,	71787	,	-22473	,	-20491	,	-9.784836	,	0
29,22	,	71819	,	-22445	,	-20478	,	-9.779406	,	0
29,22	,	71835	,	-22442	,	-20490	,	-9.054514	,	0
29,22	,	71867	,	-22430	,	-20489	,	-7.149551	,	0
29,22	,	71883	,	-22431	,	-20482	,	-3.9853516	,	1
29,22	,	71899	,	-22432	,	-20472	,	0.056203365	,	4
29,22	,	71931	,	-22424	,	-20483	,	4.337199	,	8
29,22	,	71947	,	-22428	,	-20475	,	8.257175	,	12
29,22	,	71963	,	-22425	,	-20478	,	11.369834	,	15
29,22	,	71995	,	-22434	,	-20472	,	13.354969	,	18
29,22	,	72011	,	-22431	,	-20474	,	14.032874	,	19
29,22	,	72027	,	-22426	,	-20474	,	13.457895	,	19
29,22	,	72059	,	-22422	,	-20475	,	11.9791	,	19
29,22	,	72075	,	-22425	,	-20472	,	10.06952	,	18
29,22	,	72107	,	-22422	,	-20469	,	8.091568	,	15
29,22	,	72123	,	-22437	,	-20476	,	6.1971445	,	11
29,22	,	72139	,	-22431	,	-20469	,	4.34762	,	7
29,22	,	72172	,	-22414	,	-20467	,	2.5924964	,	4
29,22	,	72187	,	-22429	,	-20471	,	1.2132392	,	1
29,22	,	72203	,	-22436	,	-20473	,	0.31693935	,	0
29,22	,	72235	,	-22422	,	-20475	,	-0.28402197	,	0
29,22	,	72251	,	-22424	,	-20480	,	-0.6657902	,	0
29,23	,	72283	,	-22442	,	-20471	,	-0.83731556	,	0
29,23	,	72299	,	-22428	,	-20473	,	-0.9903573	,	0
29,23	,	72315	,	-22435	,	-20485	,	-1.2698314	,	0
29,23	,	72347	,	-22445	,	-20475	,	-1.6871989	,	0
29,23	,	72363	,	-22444	,	-20474	,	-2.316018	,	0
29,23	,	72379	,	-22441	,	-20483	,	-3.1764383	,	0
29,23	,	72411	,	-22436	,	-20473	,	-4.0653644	,	0
29,23	,	72427	,	-22447	,	-20476	,	-4.7297716	,	0
29,23	,	72442	,	-22456	,	-20478	,	-5.156979	,	0
29,23	,	72474	,	-22463	,	-20474	,	-5.6010566	,	0
29,23	,	72491	,	-22448	,	-20471	,	-6.2465706	,	0
29,23	,	72523	,	-22458	,	-20482	,	-6.9576244	,	0
29,23	,	72539	,	-22454	,	-20478	,	-7.4790483	,	0
29,23	,	72555	,	-22462	,	-20493	,	-7.6958036	,	0
29,23	,	72587	,	-22463	,	-20475	,	-7.6533823	,	0
29,23	,	72602	,	-22459	,	-20477	,	-7.444803	,	0
29,23	,	72618	,	-22470	,	-20497	,	-7.123494	,	0
29,23	,	72651	,	-22477	,	-20483	,	-6.813801	,	0
29,23	,	72667	,	-22476	,	-20484	,	-6.7262287	,	0
29,23	,	72698	,	-22477	,	-20486	,	-6.932459	,	0
29,23	,	72715	,	-22483	,	-20492	,	-7.32928	,	0
29,23	,	72731	,	-22490	,	-20492	,	-7.8379345	,	0
29,23	,	72763	,	-22488	,	-20485	,	-8.4532585	,	0
29,23	,	72779	,	-22493	,	-20485	,	-9.116131	,	0
29,23	,	72795	,	-22503	,	-20504	,	-9.746406	,	0
29,23	,	72827	,	-22495	,	-20490	,	-10.321176	,	0
29,23	,	72842	,	-22506	,	-20496	,	-10.789674	,	0
29,23	,	72859	,	-22490	,	-20499	,	-11.024172	,	0
29,23	,	72890	,	-22490	,	-20481	,	-10.802313	,	0
29,23	,	72906	,	-22476	,	-20484	,	-9.838833	,	0
29,23	,	72939	,	-22467	,	-20488	,	-7.902694	,	0
29,23	,	72954	,	-22455	,	-20483	,	-4.886549	,	1
29,23	,	72970	,	-22464	,	-20491	,	-0.93985605	,	4
29,23	,	73002	,	-22460	,	-20485	,	3.411633	,	7
29,23	,	73019	,	-22446	,	-20486	,	7.536207	,	11
29,23	,	73035	,	-22460	,	-20487	,	11.0161915	,	15
29,23	,	73067	,	-22457	,	-20469	,	13.525605	,	18
29,23	,	73083	,	-22445	,	-20475	,	14.839532	,	20
29,23	,	73114	,	-22446	,	-20478	,	15.08404	,	21
29,23	,	73130	,	-22441	,	-20471	,	14.606585	,	21
29,23	,	73146	,	-22451	,	-20477	,	13.670423	,	20
29,23	,	73178	,	-22442	,	-20470	,	12.38847	,	17
29,23	,	73194	,	-22439	,	-20470	,	10.881826	,	14
29,23	,	73211	,	-22439	,	-20470	,	9.361649	,	10
29,23	,	73243	,	-22441	,	-20470	,	7.982423	,	6
29,23	,	73258	,	-22428	,	-20468	,	6.8201094	,	3
29,24	,	73274	,	-22436	,	-20482	,	5.9720597	,	1
29,24	,	73306	,	-22443	,	-20453	,	5.41146	,	0
29,24	,	73322	,	-22443	,	-20469	,	4.8907576	,	0
29,24	,	73354	,	-22425	,	-20469	,	4.263921	,	0
29,24	,	73370	,	-22442	,	-20469	,	3.6571078	,	0
29,24	,	73386	,	-22439	,	-20471	,	3.1395493	,	0
29,24	,	73418	,	-22442	,	-20460	,	2.5952497	,	0
29,24	,	73434	,	-22446	,	-20459	,	1.9230905	,	0
29,24	,	73450	,	-22439	,	-20471	,	1.1151999	,	0
29,24	,	73482	,	-22452	,	-20473	,	0.22255063	,	0
29,24	,	73498	,	-22440	,	-20461	,	-0.6956928	,	0
29,24	,	73530	,	-22442	,	-20481	,	-1.5245179	,	0
29,24	,	73546	,	-22452	,	-20461	,	-2.1429825	,	0
29,24	,	73562	,	-22450	,	-20474	,	-2.5987542	,	0
29,24	,	73594	,	-22443	,	-20467	,	-2.968954	,	0
29,24	,	73610	,	-22447	,	-20476	,	-3.1818504	,	0
29,24	,	73626	,	-22443	,	-20467	,	-3.1380072	,	0
29,24	,	73658	,	-22454	,	-20478	,	-2.8579888	,	0
29,24	,	73674	,	-22453	,	-20468	,	-2.509525	,	0
29,24	,	73706	,	-22458	,	-20471	,	-2.3063393	,	0
29,24	,	73722	,	-22455	,	-20474	,	-2.35886	,	0
29,24	,	73738	,	-22461	,	-20469	,	-2.6517267	,	0
29,24	,	73770	,	-22456	,	-20483	,	-3.099307	,	0
29,24	,	73786	,	-22464	,	-20465	,	-3.5881124	,	0
29,24	,	73802	,	-22473	,	-20477	,	-4.091792	,	0
29,24	,	73834	,	-22480	,	-20482	,	-4.752386	,	0
29,24	,	73850	,	-22478	,	-20479	,	-5.7165327	,	0
29,24	,	73866	,	-22484	,	-20480	,	-6.947566	,	0
29,24	,	73898	,	-22488	,	-20485	,	-8.290642	,	0
29,24	,	73914	,	-22490	,	-20481	,	-9.601721	,	0
29,24	,	73946	,	-22482	,	-20478	,	-10.702293	,	0
29,24	,	73962	,	-22466	,	-20476	,	-11.242176	,	0
29,24	,	73978	,	-22469	,	-20474	,	-10.780598	,	0
29,24	,	74010	,	-22452	,	-20475	,	-9.074749	,	0
29,24	,	74026	,	-22443	,	-20469	,	-6.127762	,	1
29,24	,	74042	,	-22447	,	-20474	,	-2.1391406	,	3
29,24	,	74074	,	-22450	,	-20462	,	2.3633156	,	6
29,24	,	74090	,	-22447	,	-20465	,	6.6257515	,	10
29,24	,	74122	,	-22436	,	-20462	,	10.081016	,	14
29,24	,	74138	,	-22430	,	-20462	,	12.591864	,	17
29,24	,	74154	,	-22440	,	-20458	,	14.244596	,	19
29,24	,	74186	,	-22442	,	-20460	,	15.004852	,	20
29,24	,	74202	,	-22438	,	-20466	,	14.76458	,	20
29,24	,	74218	,	-22449	,	-20459	,	13.552099	,	19
29,24	,	74250	,	-22430	,	-20463	,	11.578742	,	17
29,25	,	74266	,	-22433	,	-20441	,	9.279373	,	14
29,25	,	74282	,	-22436	,	-20457	,	7.1271625	,	10
29,25	,	74314	,	-22429	,	-20463	,	5.356962	,	6
29,25	,	74330	,	-22427	,	-20452	,	4.0578823	,	3
29,25	,	74362	,	-22423	,	-20455	,	3.3075237	,	1
29,25	,	74378	,	-22418	,	-20467	,	3.1388597	,	0
29,25	,	74394	,	-22428	,	-20453	,	3.4685192	,	0
29,25	,	74426	,	-22430	,	-20457	,	4.0121355	,	0
29,25	,	74442	,	-22422	,	-20448	,	4.425127	,	0
29,25	,	74458	,	-22431	,	-20449	,	4.5341706	,	0
29,25	,	74490	,	-22439	,	-20468	,	4.241728	,	0
29,25	,	74506	,	-22424	,	-20452	,	3.4767818	,	0
29,25	,	74538	,	-22431	,	-20457	,	2.391188	,	0
29,25	,	74554	,	-22439	,	-20469	,	1.2213932	,	0
29,25	,	74570	,	-22424	,	-20455	,	0.08645117	,	0
29,25	,	74602	,	-22443	,	-20462	,	-0.9172381	,	0
29,25	,	74618	,	-22434	,	-20459	,	-1.7584418	,	0
29,25	,	74634	,	-22436	,	-20465	,	-2.4622478	,	0
29,25	,	74666	,	-22450	,	-20462	,	-3.0443192	,	0
29,25	,	74682	,	-22445	,	-20458	,	-3.6159081	,	0
29,25	,	74698	,	-22444	,	-20468	,	-4.252183	,	0
29,25	,	74730	,	-22438	,	-20471	,	-4.8145103	,	0
29,25	,	74746	,	-22445	,	-20467	,	-5.1011243	,	0
29,25	,	74778	,	-22452	,	-20468	,	-5.08983	,	0
29,25	,	74794	,	-22452	,	-20463	,	-4.967047	,	0
29,25	,	74810	,	-22456	,	-20475	,	-4.926132	,	0
29,25	,	74841	,	-22449	,	-20473	,	-5.0062346	,	0
29,25	,	74857	,	-22449	,	-20470	,	-5.0863376	,	0
29,25	,	74874	,	-22457	,	-20467	,	-5.0307245	,	0
29,25	,	74906	,	-22461	,	-20472	,	-4.8737087	,	0
29,25	,	74922	,	-22463	,	-20475	,	-4.7795	,	0
29,25	,	74954	,	-22458	,	-20463	,	-4.8267593	,	0
29,25	,	74970	,	-22439	,	-20466	,	-4.819536	,	0
29,25	,	74986	,	-22427	,	-20468	,	-4.2707577	,	0
29,25	,	75017	,	-22431	,	-20458	,	-2.7419693	,	0
29,25	,	75033	,	-22414	,	-20462	,	-0.18523479	,	1
29,25	,	75049	,	-22412	,	-20445	,	3.1681023	,	3
29,25	,	75082	,	-22412	,	-20456	,	6.9572287	,	6
29,25	,	75098	,	-22407	,	-20444	,	10.686259	,	9
29,25	,	75114	,	-22404	,	-20446	,	13.882196	,	12
29,25	,	75146	,	-22405	,	-20451	,	16.231052	,	15
29,25	,	75162	,	-22399	,	-20443	,	17.568272	,	17
29,25	,	75193	,	-22400	,	-20451	,	17.890877	,	18
29,25	,	75209	,	-22400	,	-20451	,	17.32015	,	18
29,25	,	75225	,	-22405	,	-20453	,	15.995355	,	17
29,25	,	75258	,	-22397	,	-20443	,	14.072733	,	15
29,26	,	75274	,	-22404	,	-20442	,	11.782042	,	12
29,26	,	75290	,	-22386	,	-20439	,	9.427547	,	9
29,26	,	75322	,	-22385	,	-20442	,	7.4006076	,	6
29,26	,	75337	,	-22381	,	-20451	,	6.059494	,	3
29,26	,	75369	,	-22391	,	-20444	,	5.466161	,	1
29,26	,	75385	,	-22384	,	-20444	,	5.365917	,	0
29,26	,	75401	,	-22381	,	-20439	,	5.473446	,	0
29,26	,	75434	,	-22385	,	-20446	,	5.6368055	,	0
29,26	,	75449	,	-22386	,	-20437	,	5.725874	,	0
29,26	,	75466	,	-22383	,	-20459	,	5.6040177	,	0
29,26	,	75497	,	-22399	,	-20430	,	5.163391	,	0
29,26	,	75513	,	-22393	,	-20447	,	4.284976	,	0
29,26	,	75529	,	-22402	,	-20443	,	2.9250054	,	0
29,26	,	75561	,	-22402	,	-20441	,	1.1724389	,	0
29,26	,	75577	,	-22408	,	-20448	,	-0.83162045	,	0
29,26	,	75610	,	-22400	,	-20453	,	-2.8852205	,	0
29,26	,	75625	,	-22404	,	-20449	,	-4.697223	,	0
29,26	,	75641	,	-22407	,	-20452	,	-6.025068	,	0
29,26	,	75673	,	-22404	,	-20451	,	-6.7914505	,	0
29,26	,	75689	,	-22410	,	-20450	,	-7.032522	,	0
29,26	,	75705	,	-22421	,	-20461	,	-6.913013	,	0
29,26	,	75737	,	-22409	,	-20438	,	-6.6885843	,	0
29,26	,	75753	,	-22424	,	-20460	,	-6.511798	,	0
29,26	,	75785	,	-22413	,	-20458	,	-6.41393	,	0
29,26	,	75801	,	-22418	,	-20456	,	-6.346326	,	0
29,26	,	75817	,	-22419	,	-20459	,	-6.2075157	,	0
29,26	,	75849	,	-22429	,	-20461	,	-5.996487	,	0
29,26	,	75865	,	-22435	,	-20465	,	-5.8769984	,	0
29,26	,	75881	,	-22432	,	-20467	,	-6.023182	,	0
29,26	,	75913	,	-22441	,	-20471	,	-6.4636564	,	0
29,26	,	75929	,	-22439	,	-20471	,	-7.1180544	,	0
29,26	,	75961	,	-22456	,	-20482	,	-7.923723	,	0
29,26	,	75977	,	-22447	,	-20459	,	-8.864649	,	0
29,26	,	75993	,	-22453	,	-20475	,	-9.844503	,	0
29,26	,	76025	,	-22438	,	-20460	,	-10.592727	,	0
29,26	,	76041	,	-22439	,	-20470	,	-10.747623	,	0
29,26	,	76057	,	-22420	,	-20469	,	-9.978242	,	0
29,26	,	76089	,	-22417	,	-20463	,	-8.05799	,	0
29,26	,	76105	,	-22409	,	-20456	,	-4.965712	,	1
29,26	,	76121	,	-22409	,	-20451	,	-0.98170614	,	4
29,26	,	76153	,	-22395	,	-20456	,	3.4270833	,	7
29,26	,	76169	,	-22392	,	-20453	,	7.840706	,	11
29,26	,	76201	,	-22385	,	-20466	,	11.941409	,	15
29,26	,	76217	,	-22393	,	-20441	,	15.4045515	,	19
29,26	,	76233	,	-22388	,	-20456	,	17.865892	,	22
29,27	,	76265	,	-22383	,	-20447	,	19.09895	,	24
29,27	,	76281	,	-22393	,	-20454	,	19.118843	,	25
29,27	,	76297	,	-22384	,	-20447	,	18.060308	,	24
29,27	,	76329	,	-22387	,	-20450	,	16.149399	,	21
29,27	,	76345	,	-22377	,	-20444	,	13.746692	,	18
29,27	,	76377	,	-22381	,	-20442	,	11.262969	,	14
29,27	,	76393	,	-22382	,	-20439	,	8.98978	,	10
29,27	,	76409	,	-22385	,	-20443	,	7.0027003	,	6
29,27	,	76441	,	-22376	,	-20454	,	5.2943735	,	3
29,27	,	76457	,	-22373	,	-20432	,	3.952241	,	1
29,27	,	76473	,	-22380	,	-20443	,	3.0781631	,	0
29,27	,	76505	,	-22390	,	-20443	,	2.549514	,	0
29,27	,	76521	,	-22384	,	-20443	,	2.05731	,	0
29,27	,	76537	,	-22396	,	-20456	,	1.3681906	,	0
29,27	,	76569	,	-22386	,	-20441	,	0.41084373	,	0
29,27	,	76585	,	-22374	,	-20454	,	-0.6483123	,	0
29,27	,	76617	,	-22392	,	-20450	,	-1.4736495	,	0
29,27	,	76633	,	-22392	,	-20448	,	-1.9706647	,	0
29,27	,	76649	,	-22385	,	-20456	,	-2.2967792	,	0
29,27	,	76681	,	-22391	,	-20462	,	-2.516417	,	0
