Data recorded on Wed Jul 26 10-04-58 CAT 2017
Time: 10:5:6
Time		Millis		IR PPG		Red PPG		Filtered		SSF
5,15	,	97289	,	-25104	,	-22241	,	5.555562	,	12
5,15	,	97321	,	-25112	,	-22237	,	4.14563	,	12
5,15	,	97337	,	-25102	,	-22242	,	2.6892414	,	12
5,15	,	97353	,	-25104	,	-22233	,	1.4717469	,	11
5,15	,	97385	,	-25095	,	-22241	,	0.7109927	,	9
5,15	,	97401	,	-25114	,	-22243	,	0.4552002	,	6
5,15	,	97417	,	-25112	,	-22251	,	0.4550774	,	3
5,15	,	97449	,	-25131	,	-22244	,	0.2710139	,	1
5,15	,	97465	,	-25130	,	-22260	,	-0.5015193	,	0
5,15	,	97497	,	-25139	,	-22271	,	-2.0499644	,	0
5,15	,	97513	,	-25153	,	-22247	,	-4.3310404	,	0
5,15	,	97529	,	-25153	,	-22266	,	-7.2005777	,	0
5,15	,	97561	,	-25143	,	-22271	,	-10.318377	,	0
5,15	,	97577	,	-25151	,	-22275	,	-13.090712	,	0
5,15	,	97593	,	-25152	,	-22276	,	-15.019743	,	0
5,15	,	97625	,	-25148	,	-22281	,	-15.912092	,	0
5,15	,	97641	,	-25156	,	-22271	,	-15.773401	,	0
5,15	,	97657	,	-25148	,	-22276	,	-14.754079	,	0
5,15	,	97689	,	-25145	,	-22276	,	-13.045382	,	1
5,15	,	97705	,	-25173	,	-22279	,	-10.917732	,	2
5,15	,	97737	,	-25176	,	-22288	,	-8.953916	,	4
5,15	,	97753	,	-25185	,	-22258	,	-7.8151517	,	5
5,15	,	97769	,	-25192	,	-22277	,	-7.8162894	,	6
5,15	,	97801	,	-25168	,	-22275	,	-8.7742195	,	6
5,15	,	97817	,	-25174	,	-22277	,	-10.013374	,	6
5,15	,	97832	,	-25158	,	-22278	,	-10.7187195	,	6
5,15	,	97865	,	-25157	,	-22277	,	-10.338766	,	6
5,15	,	97881	,	-25146	,	-22268	,	-8.663161	,	5
5,15	,	97913	,	-25149	,	-22263	,	-5.804548	,	5
5,15	,	97929	,	-25145	,	-22269	,	-2.1661797	,	5
5,15	,	97945	,	-25149	,	-22264	,	1.6699281	,	7
5,15	,	97977	,	-25170	,	-22273	,	5.005713	,	9
5,15	,	97993	,	-25141	,	-22252	,	7.230971	,	12
5,15	,	98009	,	-25151	,	-22258	,	8.251	,	14
5,15	,	98041	,	-25174	,	-22256	,	8.260372	,	15
5,15	,	98056	,	-25150	,	-22257	,	7.2957687	,	15
5,15	,	98088	,	-25140	,	-22255	,	5.6530337	,	15
5,15	,	98105	,	-25149	,	-22257	,	4.021135	,	14
5,15	,	98121	,	-25159	,	-22257	,	2.7929752	,	12
5,15	,	98153	,	-25145	,	-22254	,	1.8984678	,	9
5,15	,	98169	,	-25175	,	-22260	,	1.1436585	,	6
5,15	,	98185	,	-25156	,	-22256	,	0.28442752	,	3
5,15	,	98216	,	-25143	,	-22261	,	-0.70297897	,	1
5,15	,	98233	,	-25144	,	-22240	,	-1.403266	,	0
5,15	,	98249	,	-25145	,	-22246	,	-1.4318788	,	0
5,16	,	98281	,	-25147	,	-22255	,	-0.81417894	,	0
5,16	,	98297	,	-25170	,	-22256	,	0.054018557	,	0
5,16	,	98328	,	-25188	,	-22255	,	0.46062213	,	0
5,16	,	98345	,	-25168	,	-22252	,	-0.22151232	,	0
5,16	,	98360	,	-25142	,	-22262	,	-1.7873647	,	0
5,16	,	98392	,	-25156	,	-22258	,	-3.2797751	,	0
5,16	,	98408	,	-25183	,	-22258	,	-4.121128	,	0
5,16	,	98425	,	-25177	,	-22259	,	-4.620676	,	0
5,16	,	98457	,	-25195	,	-22280	,	-5.3245525	,	0
5,16	,	98473	,	-25166	,	-22255	,	-6.3960443	,	0
5,16	,	98505	,	-25176	,	-22273	,	-7.494757	,	0
5,16	,	98521	,	-25190	,	-22259	,	-8.205829	,	0
5,16	,	98537	,	-25180	,	-22254	,	-8.49531	,	0
5,16	,	98568	,	-25171	,	-22257	,	-8.412374	,	0
5,16	,	98584	,	-25159	,	-22262	,	-7.740609	,	0
5,16	,	98601	,	-25142	,	-22255	,	-6.128106	,	0
5,16	,	98632	,	-25170	,	-22249	,	-3.47016	,	1
5,16	,	98648	,	-25146	,	-22259	,	-0.18712783	,	3
5,16	,	98664	,	-25156	,	-22254	,	3.1150405	,	6
5,16	,	98696	,	-25154	,	-22271	,	5.998648	,	9
5,16	,	98713	,	-25139	,	-22240	,	8.206768	,	11
5,16	,	98744	,	-25157	,	-22252	,	9.679496	,	13
5,16	,	98760	,	-25169	,	-22245	,	10.293431	,	14
5,16	,	98776	,	-25162	,	-22247	,	9.779812	,	14
5,16	,	98809	,	-25147	,	-22243	,	8.22098	,	14
5,16	,	98825	,	-25151	,	-22242	,	6.2027783	,	13
5,16	,	98841	,	-25153	,	-22246	,	4.311829	,	11
5,16	,	98872	,	-25166	,	-22249	,	2.7288713	,	8
5,16	,	98888	,	-25188	,	-22254	,	1.1895974	,	5
5,16	,	98920	,	-25146	,	-22252	,	-0.59684706	,	3
5,16	,	98936	,	-25150	,	-22264	,	-2.3070438	,	1
5,16	,	98952	,	-25173	,	-22240	,	-3.3726888	,	0
5,16	,	98984	,	-25186	,	-22248	,	-3.9021986	,	0
5,16	,	99000	,	-25163	,	-22250	,	-4.403535	,	0
5,16	,	99017	,	-25164	,	-22253	,	-4.934703	,	0
5,16	,	99048	,	-25163	,	-22253	,	-5.163906	,	0
5,16	,	99064	,	-25178	,	-22254	,	-4.9571686	,	0
5,16	,	99080	,	-25172	,	-22246	,	-4.519062	,	0
5,16	,	99112	,	-25171	,	-22245	,	-4.0704274	,	0
5,16	,	99128	,	-25167	,	-22246	,	-3.62913	,	0
5,16	,	99160	,	-25159	,	-22249	,	-3.0658827	,	0
5,16	,	99176	,	-25194	,	-22258	,	-2.3790202	,	0
5,16	,	99192	,	-25177	,	-22238	,	-1.9059381	,	0
5,16	,	99224	,	-25192	,	-22256	,	-1.9892931	,	0
5,16	,	99240	,	-25164	,	-22242	,	-2.5528138	,	0
5,16	,	99256	,	-25184	,	-22239	,	-3.190642	,	0
5,17	,	99288	,	-25174	,	-22248	,	-3.5750873	,	0
5,17	,	99304	,	-25179	,	-22245	,	-3.6400428	,	0
5,17	,	99336	,	-25143	,	-22240	,	-3.2662544	,	0
5,17	,	99352	,	-25144	,	-22228	,	-2.047841	,	0
5,17	,	99369	,	-25153	,	-22232	,	0.26347017	,	1
5,17	,	99400	,	-25138	,	-22233	,	3.348275	,	3
5,17	,	99416	,	-25141	,	-22242	,	6.66149	,	6
5,17	,	99432	,	-25138	,	-22212	,	9.756392	,	9
5,17	,	99464	,	-25128	,	-22227	,	12.2985115	,	12
5,17	,	99480	,	-25145	,	-22229	,	14.076031	,	14
5,17	,	99496	,	-25131	,	-22221	,	14.92219	,	15
5,17	,	99528	,	-25138	,	-22216	,	14.780069	,	15
5,17	,	99544	,	-25138	,	-22225	,	13.762904	,	15
5,17	,	99576	,	-25144	,	-22227	,	12.020258	,	14
5,17	,	99592	,	-25150	,	-22215	,	9.675625	,	12
5,17	,	99608	,	-25154	,	-22222	,	6.8366094	,	9
5,17	,	99640	,	-25122	,	-22219	,	3.8087745	,	6
5,17	,	99656	,	-25126	,	-22233	,	1.2936969	,	3
5,17	,	99672	,	-25137	,	-22206	,	-0.105700016	,	1
5,17	,	99704	,	-25142	,	-22229	,	-0.46843565	,	0
5,17	,	99720	,	-25146	,	-22232	,	-0.33863717	,	0
5,17	,	99752	,	-25180	,	-22239	,	-0.3809064	,	0
5,17	,	99768	,	-25188	,	-22231	,	-1.3505636	,	0
5,17	,	99784	,	-25161	,	-22236	,	-3.6202633	,	0
5,17	,	99816	,	-25174	,	-22245	,	-6.678403	,	0
5,17	,	99832	,	-25170	,	-22238	,	-9.631113	,	0
5,17	,	99848	,	-25177	,	-22233	,	-11.889289	,	0
5,17	,	99880	,	-25163	,	-22238	,	-13.168598	,	0
5,17	,	99896	,	-25194	,	-22251	,	-13.431164	,	0
5,17	,	99912	,	-25182	,	-22210	,	-13.00359	,	0
5,17	,	99944	,	-25157	,	-22230	,	-12.163734	,	0
5,17	,	99960	,	-25173	,	-22216	,	-10.749327	,	0
5,17	,	99992	,	-25143	,	-22214	,	-8.534956	,	1
5,17	,	100008	,	-25142	,	-22212	,	-5.4377646	,	3
5,17	,	100024	,	-25130	,	-22213	,	-1.4579268	,	6
5,17	,	100056	,	-25137	,	-22211	,	3.1327891	,	9
5,17	,	100072	,	-25129	,	-22206	,	7.769986	,	13
5,17	,	100088	,	-25131	,	-22210	,	11.852168	,	17
5,17	,	100120	,	-25147	,	-22209	,	14.855543	,	21
5,17	,	100136	,	-25115	,	-22222	,	16.444794	,	24
5,17	,	100168	,	-25115	,	-22192	,	16.814125	,	25
5,17	,	100184	,	-25108	,	-22201	,	16.555279	,	24
5,17	,	100200	,	-25133	,	-22202	,	16.001799	,	22
5,17	,	100232	,	-25118	,	-22207	,	15.031608	,	19
5,17	,	100248	,	-25132	,	-22201	,	13.460698	,	16
5,17	,	100264	,	-25128	,	-22213	,	11.289043	,	12
5,18	,	100296	,	-25134	,	-22195	,	8.641107	,	8
5,18	,	100312	,	-25130	,	-22198	,	5.742223	,	4
5,18	,	100328	,	-25140	,	-22200	,	2.857995	,	1
5,18	,	100360	,	-25142	,	-22197	,	0.15766478	,	0
5,18	,	100376	,	-25111	,	-22222	,	-2.137238	,	0
5,18	,	100407	,	-25139	,	-22193	,	-3.6338222	,	0
5,18	,	100424	,	-25133	,	-22206	,	-4.2108836	,	0
5,18	,	100440	,	-25121	,	-22204	,	-4.1017323	,	0
5,18	,	100472	,	-25136	,	-22208	,	-3.49273	,	0
5,18	,	100488	,	-25128	,	-22202	,	-2.5789657	,	0
5,18	,	100504	,	-25149	,	-22199	,	-1.7038407	,	0
5,18	,	100536	,	-25141	,	-22197	,	-1.2404624	,	0
5,18	,	100552	,	-25130	,	-22203	,	-1.3062681	,	0
5,18	,	100584	,	-25166	,	-22203	,	-1.7649943	,	0
5,18	,	100600	,	-25134	,	-22211	,	-2.5628927	,	0
5,18	,	100616	,	-25125	,	-22217	,	-3.454054	,	0
5,18	,	100648	,	-25116	,	-22181	,	-3.773249	,	0
5,18	,	100663	,	-25102	,	-22200	,	-2.926489	,	0
5,18	,	100679	,	-25120	,	-22180	,	-0.8070921	,	0
5,18	,	100712	,	-25107	,	-22182	,	2.134935	,	2
5,18	,	100728	,	-25102	,	-22182	,	5.2670183	,	4
5,18	,	100744	,	-25099	,	-22184	,	8.191156	,	7
5,18	,	100776	,	-25123	,	-22178	,	10.56582	,	9
5,18	,	100792	,	-25090	,	-22183	,	12.01225	,	11
5,18	,	100824	,	-25103	,	-22179	,	12.493275	,	12
5,18	,	100840	,	-25096	,	-22178	,	12.279974	,	12
5,18	,	100856	,	-25122	,	-22185	,	11.485017	,	12
5,18	,	100888	,	-25093	,	-22169	,	10.063091	,	12
5,18	,	100904	,	-25088	,	-22176	,	8.27939	,	10
5,18	,	100920	,	-25083	,	-22172	,	6.7428746	,	8
5,18	,	100952	,	-25096	,	-22174	,	5.838966	,	5
5,18	,	100967	,	-25083	,	-22171	,	5.4973106	,	3
5,18	,	100999	,	-25097	,	-22177	,	5.4626265	,	1
5,18	,	101015	,	-25083	,	-22173	,	5.4945664	,	0
5,18	,	101032	,	-25083	,	-22174	,	5.4819565	,	0
5,18	,	101064	,	-25094	,	-22164	,	5.4041414	,	0
5,18	,	101080	,	-25097	,	-22160	,	5.1140547	,	0
5,18	,	101095	,	-25107	,	-22180	,	4.3533998	,	0
5,18	,	101127	,	-25083	,	-22159	,	3.0630186	,	0
5,18	,	101143	,	-25094	,	-22173	,	1.5736985	,	0
5,18	,	101175	,	-25092	,	-22167	,	0.29939055	,	0
5,18	,	101192	,	-25101	,	-22170	,	-0.64627373	,	0
5,18	,	101208	,	-25098	,	-22168	,	-1.371867	,	0
5,18	,	101239	,	-25086	,	-22175	,	-1.9113181	,	0
5,18	,	101256	,	-25080	,	-22164	,	-2.0696595	,	0
5,18	,	101272	,	-25081	,	-22154	,	-1.5989468	,	0
5,19	,	101304	,	-25080	,	-22160	,	-0.4854104	,	0
5,19	,	101319	,	-25065	,	-22161	,	1.1007466	,	1
5,19	,	101336	,	-25069	,	-22161	,	3.019678	,	2
5,19	,	101367	,	-25060	,	-22139	,	5.1351085	,	3
5,19	,	101383	,	-25058	,	-22147	,	7.263025	,	5
5,19	,	101415	,	-25035	,	-22150	,	9.334542	,	7
5,19	,	101432	,	-25052	,	-22146	,	11.391148	,	9
5,19	,	101448	,	-25053	,	-22149	,	13.238404	,	11
5,19	,	101479	,	-25051	,	-22152	,	14.424585	,	12
5,19	,	101496	,	-25048	,	-22149	,	14.673098	,	13
5,19	,	101511	,	-25046	,	-22145	,	14.0472355	,	12
5,19	,	101543	,	-25058	,	-22149	,	12.733789	,	11
5,19	,	101559	,	-25053	,	-22144	,	10.860847	,	10
5,19	,	101591	,	-25058	,	-22161	,	8.555385	,	8
5,19	,	101608	,	-25056	,	-22135	,	6.027811	,	6
5,19	,	101624	,	-25053	,	-22147	,	3.5416346	,	4
5,19	,	101655	,	-25053	,	-22149	,	1.3690715	,	2
5,19	,	101672	,	-25057	,	-22150	,	-0.30775523	,	1
5,19	,	101688	,	-25049	,	-22146	,	-1.4383696	,	0
5,19	,	101719	,	-25059	,	-22151	,	-2.0453982	,	0
5,19	,	101735	,	-25069	,	-22144	,	-2.30172	,	0
5,19	,	101751	,	-25053	,	-22147	,	-2.4790509	,	0
5,19	,	101783	,	-25055	,	-22152	,	-2.6220312	,	0
5,19	,	101799	,	-25062	,	-22149	,	-2.6003227	,	0
5,19	,	101831	,	-25067	,	-22156	,	-2.4590898	,	0
5,19	,	101847	,	-25049	,	-22126	,	-2.3173876	,	0
5,19	,	101863	,	-25033	,	-22133	,	-1.9788395	,	0
5,19	,	101895	,	-25029	,	-22135	,	-0.9710188	,	0
5,19	,	101911	,	-25046	,	-22126	,	0.8922117	,	1
5,19	,	101927	,	-25037	,	-22130	,	3.2068725	,	2
5,19	,	101959	,	-25020	,	-22118	,	5.471875	,	4
5,19	,	101975	,	-25027	,	-22113	,	7.541037	,	6
5,19	,	102007	,	-25021	,	-22117	,	9.374463	,	8
5,19	,	102023	,	-25012	,	-22118	,	10.8697815	,	9
5,19	,	102039	,	-24994	,	-22119	,	12.107054	,	10
5,19	,	102071	,	-25014	,	-22129	,	13.270158	,	11
5,19	,	102087	,	-25007	,	-22101	,	14.24317	,	12
5,19	,	102103	,	-24983	,	-22110	,	14.80818	,	11
5,19	,	102135	,	-24976	,	-22114	,	15.166798	,	10
5,19	,	102152	,	-25022	,	-22113	,	15.497396	,	8
5,19	,	102167	,	-25007	,	-22118	,	15.305496	,	6
5,19	,	102199	,	-25017	,	-22118	,	13.979179	,	4
5,19	,	102215	,	-25015	,	-22117	,	11.461308	,	3
5,19	,	102247	,	-25011	,	-22111	,	8.131823	,	2
5,19	,	102263	,	-25006	,	-22116	,	4.589022	,	1
5,20	,	102279	,	-24994	,	-22124	,	1.5107555	,	0
5,20	,	102311	,	-24998	,	-22128	,	-0.55217505	,	0
5,20	,	102327	,	-24999	,	-22109	,	-1.4130011	,	0
5,20	,	102343	,	-25011	,	-22122	,	-1.3445663	,	0
5,20	,	102375	,	-24987	,	-22115	,	-0.77759695	,	0
5,20	,	102391	,	-25007	,	-22119	,	0.04541701	,	0
5,20	,	102423	,	-25013	,	-22121	,	0.8853037	,	0
5,20	,	102439	,	-25009	,	-22115	,	1.3531024	,	0
5,20	,	102455	,	-24999	,	-22118	,	1.2964373	,	0
5,20	,	102487	,	-24987	,	-22113	,	1.0268121	,	0
5,20	,	102503	,	-24995	,	-22108	,	1.0054252	,	0
5,20	,	102519	,	-24964	,	-22103	,	1.543936	,	0
5,20	,	102551	,	-24952	,	-22113	,	2.9533374	,	0
5,20	,	102568	,	-24979	,	-22083	,	5.3815756	,	1
5,20	,	102583	,	-24944	,	-22096	,	8.433565	,	3
5,20	,	102615	,	-24939	,	-22091	,	11.652914	,	6
5,20	,	102631	,	-24938	,	-22081	,	14.886399	,	9
5,20	,	102663	,	-24951	,	-22081	,	17.827745	,	12
5,20	,	102679	,	-24917	,	-22083	,	20.027496	,	14
5,20	,	102695	,	-24925	,	-22081	,	21.410114	,	16
5,20	,	102727	,	-24914	,	-22078	,	22.187033	,	17
5,20	,	102743	,	-24926	,	-22071	,	22.422989	,	17
5,20	,	102759	,	-24942	,	-22076	,	21.882915	,	16
5,20	,	102791	,	-24911	,	-22091	,	20.308598	,	14
5,20	,	102807	,	-24926	,	-22064	,	17.890705	,	11
5,20	,	102839	,	-24912	,	-22071	,	15.138722	,	8
5,20	,	102855	,	-24912	,	-22062	,	12.495118	,	5
5,20	,	102871	,	-24905	,	-22070	,	10.295132	,	3
5,20	,	102903	,	-24892	,	-22068	,	8.795515	,	1
5,20	,	102919	,	-24896	,	-22072	,	8.156382	,	0
5,20	,	102935	,	-24913	,	-22074	,	8.22134	,	0
5,20	,	102967	,	-24905	,	-22081	,	8.445208	,	0
5,20	,	102983	,	-24897	,	-22078	,	8.378133	,	0
5,20	,	103015	,	-24965	,	-22082	,	7.6803265	,	0
5,20	,	103031	,	-24917	,	-22088	,	5.80144	,	0
5,20	,	103047	,	-24911	,	-22062	,	2.7588737	,	0
5,20	,	103079	,	-24939	,	-22084	,	-0.5929105	,	0
5,20	,	103095	,	-24943	,	-22083	,	-3.7017796	,	0
5,20	,	103111	,	-24909	,	-22082	,	-6.4145055	,	0
5,20	,	103143	,	-24928	,	-22085	,	-8.300533	,	0
5,20	,	103159	,	-24932	,	-22086	,	-9.035334	,	0
5,20	,	103175	,	-24936	,	-22087	,	-8.859758	,	0
5,20	,	103207	,	-24941	,	-22084	,	-8.253622	,	0
5,20	,	103223	,	-24958	,	-22090	,	-7.676241	,	0
5,20	,	103255	,	-24954	,	-22083	,	-7.5307713	,	0
5,20	,	103271	,	-24957	,	-22098	,	-7.9671097	,	0
5,21	,	103287	,	-24948	,	-22060	,	-8.767229	,	0
5,21	,	103319	,	-24900	,	-22071	,	-9.263968	,	0
5,21	,	103335	,	-24930	,	-22071	,	-8.533892	,	0
5,21	,	103351	,	-24897	,	-22077	,	-6.1392665	,	0
5,21	,	103383	,	-24897	,	-22063	,	-2.2743526	,	2
5,21	,	103399	,	-24870	,	-22064	,	2.738366	,	5
5,21	,	103430	,	-24886	,	-22070	,	8.49365	,	10
5,21	,	103447	,	-24883	,	-22061	,	14.258117	,	15
5,21	,	103463	,	-24876	,	-22061	,	19.134718	,	20
5,21	,	103495	,	-24898	,	-22059	,	22.42835	,	24
5,21	,	103511	,	-24904	,	-22061	,	23.620687	,	27
5,21	,	103527	,	-24908	,	-22035	,	22.402042	,	28
5,21	,	103559	,	-24875	,	-22050	,	19.113258	,	28
5,21	,	103575	,	-24866	,	-22044	,	14.921962	,	26
5,21	,	103591	,	-24866	,	-22047	,	11.201857	,	23
5,21	,	103623	,	-24868	,	-22045	,	8.706102	,	18
5,21	,	103639	,	-24860	,	-22042	,	7.480715	,	13
5,21	,	103671	,	-24858	,	-22040	,	7.2834873	,	8
5,21	,	103687	,	-24870	,	-22044	,	7.7462153	,	4
5,21	,	103703	,	-24872	,	-22046	,	8.321759	,	1
5,21	,	103735	,	-24908	,	-22040	,	8.305294	,	0
5,21	,	103751	,	-24865	,	-22056	,	7.1559563	,	0
5,21	,	103767	,	-24884	,	-22027	,	5.0295777	,	0
5,21	,	103799	,	-24878	,	-22050	,	2.5696995	,	0
5,21	,	103815	,	-24875	,	-22044	,	0.28556514	,	0
5,21	,	103846	,	-24889	,	-22040	,	-1.5590189	,	0
5,21	,	103863	,	-24893	,	-22042	,	-2.9781244	,	0
5,21	,	103879	,	-24890	,	-22041	,	-4.167587	,	0
5,21	,	103910	,	-24879	,	-22042	,	-5.1390967	,	0
5,21	,	103927	,	-24891	,	-22042	,	-5.7007875	,	0
5,21	,	103943	,	-24911	,	-22047	,	-5.8919134	,	0
5,21	,	103975	,	-24914	,	-22049	,	-6.15687	,	0
5,21	,	103991	,	-24890	,	-22057	,	-6.7942944	,	0
5,21	,	104007	,	-24917	,	-22027	,	-7.601598	,	0
5,21	,	104039	,	-24922	,	-22053	,	-8.398619	,	0
5,21	,	104054	,	-24930	,	-22052	,	-9.343353	,	0
5,21	,	104086	,	-24903	,	-22035	,	-10.442371	,	0
5,21	,	104102	,	-24887	,	-22033	,	-11.123486	,	0
5,21	,	104119	,	-24884	,	-22035	,	-10.553465	,	0
5,21	,	104151	,	-24877	,	-22026	,	-8.311622	,	0
5,21	,	104167	,	-24887	,	-22034	,	-4.6543016	,	2
5,21	,	104183	,	-24861	,	-22038	,	-0.22359896	,	5
5,21	,	104215	,	-24880	,	-22028	,	4.3568625	,	9
5,21	,	104231	,	-24862	,	-22042	,	8.555896	,	13
5,21	,	104262	,	-24867	,	-22006	,	11.958115	,	17
5,21	,	104278	,	-24873	,	-22020	,	14.310595	,	20
5,22	,	104294	,	-24856	,	-22022	,	15.486159	,	22
5,22	,	104326	,	-24899	,	-22023	,	15.428663	,	23
5,22	,	104342	,	-24863	,	-22020	,	14.070495	,	23
5,22	,	104358	,	-24866	,	-22021	,	11.675783	,	21
5,22	,	104390	,	-24861	,	-22017	,	8.963905	,	18
5,22	,	104406	,	-24878	,	-22023	,	6.485249	,	14
5,22	,	104422	,	-24857	,	-22021	,	4.3929234	,	10
5,22	,	104454	,	-24865	,	-22021	,	2.7825222	,	6
5,22	,	104470	,	-24870	,	-22037	,	1.7200646	,	3
5,22	,	104502	,	-24869	,	-22008	,	1.0693016	,	1
5,22	,	104518	,	-24863	,	-22027	,	0.65476906	,	0
5,22	,	104534	,	-24871	,	-22017	,	0.4099807	,	0
5,22	,	104567	,	-24873	,	-22027	,	0.24441516	,	0
5,22	,	104582	,	-24880	,	-22033	,	-0.021003246	,	0
5,22	,	104599	,	-24889	,	-22025	,	-0.5950562	,	0
5,22	,	104631	,	-24878	,	-22033	,	-1.5833861	,	0
5,22	,	104646	,	-24894	,	-22027	,	-2.8810558	,	0
5,22	,	104678	,	-24877	,	-22024	,	-4.2618694	,	0
5,22	,	104694	,	-24880	,	-22029	,	-5.4281454	,	0
5,22	,	104710	,	-24894	,	-22043	,	-6.1452203	,	0
5,22	,	104742	,	-24885	,	-22021	,	-6.4510975	,	0
5,22	,	104758	,	-24918	,	-22044	,	-6.60845	,	0
5,22	,	104774	,	-24934	,	-22034	,	-7.1382723	,	0
5,22	,	104806	,	-24905	,	-22043	,	-8.500591	,	0
5,22	,	104822	,	-24922	,	-22037	,	-10.4580555	,	0
5,22	,	104838	,	-24934	,	-22049	,	-12.441885	,	0
5,22	,	104870	,	-24922	,	-22041	,	-14.165583	,	0
5,22	,	104886	,	-24919	,	-22038	,	-15.376658	,	0
5,22	,	104918	,	-24905	,	-22035	,	-15.645523	,	0
5,22	,	104934	,	-24907	,	-22033	,	-14.615571	,	0
5,22	,	104950	,	-24934	,	-22040	,	-12.408085	,	1
5,22	,	104982	,	-24910	,	-22024	,	-9.67004	,	3
5,22	,	104998	,	-24894	,	-22039	,	-6.856168	,	5
5,22	,	105014	,	-24898	,	-22036	,	-3.8723097	,	7
5,22	,	105046	,	-24907	,	-22038	,	-0.68909025	,	9
5,22	,	105062	,	-24910	,	-22040	,	2.2885594	,	12
5,22	,	105094	,	-24937	,	-22040	,	4.417103	,	14
5,22	,	105110	,	-24904	,	-22046	,	5.1965966	,	16
5,22	,	105126	,	-24931	,	-22039	,	4.662495	,	16
5,22	,	105158	,	-24931	,	-22039	,	3.149707	,	15
5,22	,	105174	,	-24924	,	-22039	,	0.9505155	,	13
5,22	,	105190	,	-24953	,	-22051	,	-1.6405442	,	11
5,22	,	105222	,	-24935	,	-22034	,	-4.415466	,	9
5,22	,	105238	,	-24948	,	-22046	,	-7.162161	,	7
5,22	,	105270	,	-24917	,	-22051	,	-9.433921	,	4
5,23	,	105286	,	-24923	,	-22051	,	-10.619906	,	2
5,23	,	105302	,	-24910	,	-22050	,	-10.265352	,	0
5,23	,	105334	,	-24917	,	-22052	,	-8.366571	,	0
5,23	,	105350	,	-24909	,	-22050	,	-5.32966	,	1
5,23	,	105366	,	-24958	,	-22054	,	-1.9526858	,	4
5,23	,	105398	,	-24927	,	-22052	,	0.68721056	,	7
5,23	,	105414	,	-24959	,	-22053	,	1.8503096	,	9
5,23	,	105430	,	-24953	,	-22058	,	1.3775222	,	10
5,23	,	105462	,	-24941	,	-22031	,	-0.45760062	,	10
5,23	,	105478	,	-24954	,	-22055	,	-2.9796271	,	10
5,23	,	105510	,	-24979	,	-22056	,	-5.629036	,	10
5,23	,	105526	,	-24971	,	-22058	,	-8.34317	,	10
5,23	,	105542	,	-24968	,	-22063	,	-11.054287	,	9
5,23	,	105574	,	-24972	,	-22062	,	-13.371582	,	6
5,23	,	105590	,	-24989	,	-22067	,	-14.989952	,	3
5,23	,	105606	,	-24991	,	-22071	,	-15.997363	,	1
5,23	,	105638	,	-24987	,	-22066	,	-16.597126	,	0
5,23	,	105654	,	-24992	,	-22061	,	-16.802217	,	0
5,23	,	105686	,	-24992	,	-22077	,	-16.538742	,	0
5,23	,	105702	,	-24985	,	-22060	,	-15.765841	,	0
5,23	,	105718	,	-24982	,	-22069	,	-14.413948	,	0
5,23	,	105750	,	-24980	,	-22068	,	-12.429696	,	1
5,23	,	105766	,	-24951	,	-22064	,	-9.761743	,	2
5,23	,	105782	,	-24977	,	-22066	,	-6.363829	,	4
5,23	,	105814	,	-24982	,	-22067	,	-2.594253	,	7
5,23	,	105830	,	-24998	,	-22062	,	0.6784768	,	10
5,23	,	105846	,	-24999	,	-22069	,	2.6162057	,	13
5,23	,	105878	,	-24966	,	-22073	,	3.032559	,	14
5,23	,	105894	,	-24983	,	-22070	,	2.5263875	,	14
5,23	,	105926	,	-24983	,	-22073	,	1.7926068	,	14
5,23	,	105942	,	-24968	,	-22061	,	1.155745	,	13
5,23	,	105958	,	-24988	,	-22067	,	0.7682146	,	12
5,23	,	105990	,	-25000	,	-22065	,	0.49928677	,	10
5,23	,	106006	,	-24988	,	-22070	,	-0.036911488	,	7
5,23	,	106022	,	-24996	,	-22066	,	-0.97264695	,	4
5,23	,	106054	,	-25005	,	-22062	,	-2.1818056	,	1
5,23	,	106070	,	-24994	,	-22061	,	-3.5519094	,	0
5,23	,	106101	,	-25001	,	-22061	,	-4.8972187	,	0
5,23	,	106118	,	-24992	,	-22067	,	-5.940997	,	0
5,23	,	106134	,	-25008	,	-22069	,	-6.520721	,	0
5,23	,	106165	,	-24999	,	-22077	,	-6.6883736	,	0
5,23	,	106182	,	-25026	,	-22055	,	-6.674984	,	0
5,23	,	106198	,	-25038	,	-22066	,	-6.9180746	,	0
5,23	,	106230	,	-25020	,	-22061	,	-7.8040824	,	0
5,23	,	106246	,	-25016	,	-22073	,	-9.131655	,	0
5,23	,	106262	,	-25024	,	-22080	,	-10.28598	,	0
5,24	,	106294	,	-25033	,	-22085	,	-10.922897	,	0
5,24	,	106310	,	-25052	,	-22077	,	-11.203268	,	0
5,24	,	106341	,	-25026	,	-22075	,	-11.436321	,	0
5,24	,	106358	,	-25040	,	-22076	,	-11.605137	,	0
5,24	,	106374	,	-25004	,	-22073	,	-11.324854	,	0
5,24	,	106406	,	-25019	,	-22075	,	-10.120419	,	0
5,24	,	106422	,	-25012	,	-22060	,	-7.824666	,	1
5,24	,	106437	,	-25029	,	-22074	,	-4.823706	,	3
5,24	,	106469	,	-25025	,	-22070	,	-1.82127	,	6
5,24	,	106486	,	-25019	,	-22069	,	0.61992717	,	9
5,24	,	106518	,	-25019	,	-22069	,	2.329835	,	11
5,24	,	106534	,	-25015	,	-22067	,	3.4056208	,	12
5,24	,	106550	,	-25020	,	-22064	,	3.9947767	,	13
5,24	,	106581	,	-25023	,	-22070	,	4.179076	,	13
5,24	,	106597	,	-25025	,	-22070	,	3.9484658	,	13
5,24	,	106613	,	-25020	,	-22072	,	3.3197672	,	12
5,24	,	106646	,	-25031	,	-22086	,	2.391284	,	10
5,24	,	106662	,	-25022	,	-22063	,	1.274855	,	7
5,24	,	106693	,	-25039	,	-22078	,	0.05584705	,	4
5,24	,	106710	,	-25022	,	-22073	,	-1.1939555	,	2
5,24	,	106725	,	-25030	,	-22069	,	-2.3210943	,	1
5,24	,	106757	,	-25019	,	-22067	,	-3.090177	,	0
5,24	,	106773	,	-25020	,	-22067	,	-3.3160665	,	0
5,24	,	106789	,	-25030	,	-22075	,	-2.9924626	,	0
5,24	,	106822	,	-25015	,	-22072	,	-2.2983305	,	0
5,24	,	106838	,	-25045	,	-22073	,	-1.4976262	,	0
5,24	,	106853	,	-25014	,	-22076	,	-0.8627913	,	0
5,24	,	106885	,	-25039	,	-22083	,	-0.5065441	,	0
5,24	,	106901	,	-25057	,	-22062	,	-0.55140656	,	0
5,24	,	106933	,	-25047	,	-22083	,	-1.3268709	,	0
5,24	,	106949	,	-25038	,	-22081	,	-2.8410163	,	0
5,24	,	106965	,	-25058	,	-22079	,	-4.641178	,	0
5,24	,	106997	,	-25048	,	-22081	,	-6.356127	,	0
5,24	,	107013	,	-25064	,	-22084	,	-7.843403	,	0
5,24	,	107030	,	-25058	,	-22088	,	-9.059201	,	0
5,24	,	107061	,	-25057	,	-22088	,	-9.95173	,	0
5,24	,	107077	,	-25061	,	-22086	,	-10.39777	,	0
5,24	,	107109	,	-25046	,	-22085	,	-10.268728	,	0
5,24	,	107125	,	-25057	,	-22089	,	-9.475016	,	0
5,24	,	107141	,	-25050	,	-22067	,	-8.062515	,	0
5,24	,	107173	,	-25055	,	-22085	,	-6.2508907	,	1
5,24	,	107189	,	-25049	,	-22080	,	-4.2935762	,	2
5,24	,	107205	,	-25035	,	-22074	,	-2.3138878	,	3
5,24	,	107237	,	-25037	,	-22068	,	-0.24903321	,	4
5,24	,	107253	,	-25035	,	-22074	,	1.9415812	,	6
5,24	,	107269	,	-25031	,	-22070	,	4.12386	,	8
5,25	,	107301	,	-25051	,	-22078	,	6.014381	,	10
5,25	,	107317	,	-25037	,	-22078	,	7.2376533	,	11
5,25	,	107349	,	-25056	,	-22073	,	7.5288877	,	12
5,25	,	107365	,	-25046	,	-22085	,	6.844471	,	11
5,25	,	107381	,	-25048	,	-22065	,	5.3662977	,	10
5,25	,	107413	,	-25043	,	-22080	,	3.4926562	,	9
5,25	,	107429	,	-25043	,	-22087	,	1.6626256	,	8
5,25	,	107445	,	-25042	,	-22090	,	0.19110942	,	6
5,25	,	107477	,	-25044	,	-22081	,	-0.7830092	,	4
5,25	,	107493	,	-25035	,	-22082	,	-1.2423058	,	2
5,25	,	107525	,	-25058	,	-22103	,	-1.2833384	,	1
5,25	,	107541	,	-25028	,	-22091	,	-1.1003373	,	0
5,25	,	107557	,	-25058	,	-22096	,	-0.81818503	,	0
5,25	,	107589	,	-25055	,	-22098	,	-0.6150531	,	0
5,25	,	107605	,	-25042	,	-22111	,	-0.71875864	,	0
5,25	,	107621	,	-25060	,	-22082	,	-1.1070555	,	0
5,25	,	107653	,	-25062	,	-22103	,	-1.7126873	,	0
5,25	,	107669	,	-25054	,	-22107	,	-2.5602798	,	0
5,25	,	107685	,	-25062	,	-22100	,	-3.5244555	,	0
5,25	,	107717	,	-25079	,	-22106	,	-4.4940534	,	0
5,25	,	107733	,	-25071	,	-22107	,	-5.5689945	,	0
5,25	,	107765	,	-25068	,	-22109	,	-6.7458415	,	0
5,25	,	107781	,	-25090	,	-22107	,	-7.846701	,	0
5,25	,	107797	,	-25095	,	-22106	,	-8.907324	,	0
5,25	,	107829	,	-25092	,	-22106	,	-10.115899	,	0
5,25	,	107845	,	-25077	,	-22114	,	-11.34507	,	0
5,25	,	107861	,	-25071	,	-22086	,	-12.069875	,	0
5,25	,	107893	,	-25066	,	-22108	,	-11.740419	,	0
5,25	,	107909	,	-25060	,	-22097	,	-10.1198845	,	0
5,25	,	107941	,	-25052	,	-22099	,	-7.296001	,	1
5,25	,	107957	,	-25060	,	-22097	,	-3.605805	,	3
5,25	,	107973	,	-25046	,	-22093	,	0.42553282	,	6
5,25	,	108005	,	-25049	,	-22097	,	4.3039093	,	10
5,25	,	108021	,	-25054	,	-22091	,	7.644021	,	13
5,25	,	108037	,	-25053	,	-22090	,	10.069101	,	16
5,25	,	108069	,	-25050	,	-22098	,	11.337047	,	18
5,25	,	108085	,	-25035	,	-22106	,	11.566513	,	19
5,25	,	108101	,	-25046	,	-22087	,	11.152983	,	19
5,25	,	108133	,	-25036	,	-22093	,	10.432741	,	18
5,25	,	108149	,	-25048	,	-22093	,	9.541011	,	16
5,25	,	108181	,	-25059	,	-22094	,	8.409603	,	13
5,25	,	108197	,	-25053	,	-22091	,	6.845568	,	9
5,25	,	108213	,	-25045	,	-22087	,	4.8766413	,	6
5,25	,	108245	,	-25039	,	-22101	,	2.8969917	,	3
5,25	,	108261	,	-25053	,	-22095	,	1.3111684	,	1
5,26	,	108277	,	-25054	,	-22104	,	0.16951466	,	0
5,26	,	108309	,	-25054	,	-22095	,	-0.72675014	,	0
5,26	,	108325	,	-25060	,	-22110	,	-1.5339758	,	0
5,26	,	108357	,	-25072	,	-22095	,	-2.3825514	,	0
5,26	,	108373	,	-25057	,	-22101	,	-3.3884406	,	0
5,26	,	108389	,	-25061	,	-22103	,	-4.4347777	,	0
5,26	,	108421	,	-25082	,	-22105	,	-5.3349853	,	0
5,26	,	108437	,	-25065	,	-22105	,	-6.130613	,	0
5,26	,	108453	,	-25062	,	-22099	,	-6.79643	,	0
5,26	,	108485	,	-25072	,	-22104	,	-7.105212	,	0
5,26	,	108501	,	-25066	,	-22105	,	-6.9735527	,	0
5,26	,	108517	,	-25067	,	-22109	,	-6.480064	,	0
5,26	,	108549	,	-25083	,	-22108	,	-5.770214	,	0
5,26	,	108565	,	-25067	,	-22103	,	-5.0772886	,	0
5,26	,	108597	,	-25052	,	-22088	,	-4.4094176	,	0
5,26	,	108613	,	-25057	,	-22096	,	-3.4346714	,	0
5,26	,	108629	,	-25043	,	-22097	,	-1.8934476	,	0
5,26	,	108661	,	-25039	,	-22096	,	0.24707985	,	1
5,26	,	108677	,	-25053	,	-22092	,	2.816749	,	3
5,26	,	108693	,	-25035	,	-22093	,	5.4140944	,	5
5,26	,	108725	,	-25040	,	-22088	,	7.675523	,	7
5,26	,	108741	,	-25039	,	-22091	,	9.414261	,	9
5,26	,	108772	,	-25045	,	-22084	,	10.466459	,	10
5,26	,	108789	,	-25033	,	-22085	,	10.743819	,	11
5,26	,	108805	,	-25049	,	-22099	,	10.314377	,	11
5,26	,	108837	,	-25030	,	-22083	,	9.325579	,	11
5,26	,	108852	,	-25036	,	-22086	,	8.032543	,	10
5,26	,	108869	,	-25053	,	-22086	,	6.6480002	,	8
5,26	,	108901	,	-25039	,	-22086	,	5.1369753	,	6
5,26	,	108917	,	-25034	,	-22081	,	3.5344996	,	4
5,26	,	108932	,	-25042	,	-22081	,	2.109853	,	2
5,26	,	108965	,	-25041	,	-22082	,	1.0309308	,	1
5,26	,	108981	,	-25020	,	-22083	,	0.37015748	,	0
5,26	,	109013	,	-25052	,	-22088	,	0.20500869	,	0
5,26	,	109029	,	-25033	,	-22085	,	0.36563036	,	0
5,26	,	109045	,	-25025	,	-22098	,	0.6322723	,	0
5,26	,	109077	,	-25034	,	-22058	,	1.0522883	,	0
5,26	,	109093	,	-25047	,	-22073	,	1.5664554	,	0
5,26	,	109108	,	-25049	,	-22073	,	1.7914351	,	0
5,26	,	109140	,	-25042	,	-22078	,	1.4291725	,	0
5,26	,	109157	,	-25059	,	-22077	,	0.50157523	,	0
5,26	,	109189	,	-25042	,	-22077	,	-0.8193751	,	0
5,26	,	109205	,	-25055	,	-22084	,	-2.284461	,	0
5,26	,	109221	,	-25056	,	-22081	,	-3.6529274	,	0
5,26	,	109252	,	-25039	,	-22077	,	-4.747538	,	0
5,26	,	109268	,	-25044	,	-22088	,	-5.307846	,	0
5,27	,	109284	,	-25046	,	-22080	,	-5.148673	,	0
5,27	,	109317	,	-25030	,	-22068	,	-4.313101	,	0
5,27	,	109333	,	-25036	,	-22073	,	-2.8802433	,	0
5,27	,	109364	,	-25036	,	-22068	,	-1.0017285	,	1
5,27	,	109381	,	-25027	,	-22070	,	1.0290449	,	2
5,27	,	109397	,	-25018	,	-22057	,	3.0318718	,	4
5,27	,	109428	,	-25036	,	-22068	,	4.9314904	,	6
5,27	,	109445	,	-25030	,	-22061	,	6.467968	,	7
5,27	,	109461	,	-25019	,	-22066	,	7.379431	,	8
5,27	,	109492	,	-25011	,	-22064	,	7.7874336	,	8
5,27	,	109508	,	-25015	,	-22068	,	8.029021	,	8
5,27	,	109525	,	-25025	,	-22071	,	8.211339	,	8
5,27	,	109557	,	-24997	,	-22064	,	8.255916	,	7
5,27	,	109572	,	-25015	,	-22056	,	8.2338295	,	6
5,27	,	109604	,	-25009	,	-22054	,	8.219619	,	4
5,27	,	109621	,	-25004	,	-22059	,	8.12441	,	2
5,27	,	109637	,	-25021	,	-22059	,	7.837597	,	1
5,27	,	109668	,	-25014	,	-22058	,	7.21031	,	0
5,27	,	109684	,	-25020	,	-22050	,	6.1292233	,	0
5,27	,	109700	,	-24998	,	-22056	,	4.7453227	,	0
5,27	,	109732	,	-24998	,	-22058	,	3.503571	,	0
5,27	,	109748	,	-25022	,	-22055	,	2.7329156	,	0
5,27	,	109780	,	-25024	,	-22060	,	2.1989956	,	0
5,27	,	109796	,	-25014	,	-22058	,	1.4648892	,	0
5,27	,	109812	,	-24998	,	-22055	,	0.56115544	,	0
5,27	,	109844	,	-25011	,	-22056	,	-0.099785924	,	0
5,27	,	109860	,	-25031	,	-22056	,	-0.40083408	,	0
5,27	,	109876	,	-25017	,	-22061	,	-0.6873636	,	0
5,27	,	109908	,	-25022	,	-22054	,	-1.2041416	,	0
5,27	,	109924	,	-25027	,	-22057	,	-1.8957642	,	0
5,27	,	109940	,	-25022	,	-22064	,	-2.6632972	,	0
5,27	,	109972	,	-25025	,	-22058	,	-3.393964	,	0
5,27	,	109988	,	-25047	,	-22063	,	-4.05753	,	0
5,27	,	110020	,	-25031	,	-22059	,	-4.8116107	,	0
5,27	,	110036	,	-24992	,	-22047	,	-5.4788523	,	0
5,27	,	110052	,	-25016	,	-22054	,	-5.353493	,	0
5,27	,	110084	,	-25022	,	-22047	,	-4.128115	,	0
5,27	,	110100	,	-24998	,	-22059	,	-2.1969435	,	1
5,27	,	110116	,	-25004	,	-22052	,	0.09133816	,	2
5,27	,	110148	,	-25002	,	-22052	,	2.5649347	,	4
5,27	,	110164	,	-24994	,	-22054	,	4.974105	,	6
5,27	,	110196	,	-24965	,	-22053	,	7.2510557	,	8
5,27	,	110212	,	-25008	,	-22050	,	9.475941	,	10
5,27	,	110228	,	-24998	,	-22051	,	11.301932	,	12
5,27	,	110260	,	-25000	,	-22052	,	12.126606	,	13
5,27	,	110276	,	-25002	,	-22051	,	11.743646	,	13
5,28	,	110292	,	-25005	,	-22053	,	10.317599	,	12
5,28	,	110324	,	-25003	,	-22054	,	8.13438	,	11
5,28	,	110340	,	-24968	,	-22052	,	5.7247863	,	9
5,28	,	110372	,	-24997	,	-22044	,	3.821147	,	7
5,28	,	110388	,	-24993	,	-22046	,	2.7430778	,	5
5,28	,	110404	,	-25014	,	-22043	,	2.1325538	,	3
5,28	,	110436	,	-25006	,	-22052	,	1.4311606	,	1
5,28	,	110452	,	-24999	,	-22047	,	0.3970201	,	0
5,28	,	110468	,	-24995	,	-22050	,	-0.7508806	,	0
5,28	,	110500	,	-24971	,	-22056	,	-1.51577	,	0
5,28	,	110516	,	-25004	,	-22029	,	-1.5010626	,	0
5,28	,	110532	,	-25010	,	-22047	,	-0.91467977	,	0
5,28	,	110564	,	-24985	,	-22052	,	-0.3350895	,	0
5,28	,	110580	,	-25011	,	-22051	,	-0.0038890243	,	0
5,28	,	110612	,	-25003	,	-22050	,	0.03645596	,	0
5,28	,	110628	,	-25016	,	-22049	,	-0.34456217	,	0
5,28	,	110644	,	-25000	,	-22049	,	-1.1513518	,	0
5,28	,	110676	,	-24982	,	-22053	,	-2.024995	,	0
5,28	,	110692	,	-25008	,	-22047	,	-2.4437656	,	0
5,28	,	110708	,	-24973	,	-22041	,	-2.1702933	,	0
5,28	,	110740	,	-25010	,	-22061	,	-1.2771517	,	0
5,28	,	110756	,	-24994	,	-22028	,	-0.0968312	,	0
5,28	,	110788	,	-24996	,	-22035	,	0.93836117	,	1
5,28	,	110804	,	-24978	,	-22034	,	1.7310903	,	2
5,28	,	110820	,	-24972	,	-22028	,	2.5598423	,	2
5,28	,	110852	,	-24956	,	-22030	,	3.8128488	,	2
5,28	,	110868	,	-24964	,	-22024	,	5.709953	,	3
5,28	,	110884	,	-24954	,	-22024	,	8.108951	,	4
5,28	,	110916	,	-24961	,	-22023	,	10.599545	,	6
5,28	,	110932	,	-24949	,	-22025	,	12.759046	,	8
5,28	,	110948	,	-24972	,	-22021	,	14.237708	,	10
5,28	,	110980	,	-24939	,	-22034	,	14.805545	,	10
5,28	,	110996	,	-24949	,	-22006	,	14.578203	,	9
5,28	,	111028	,	-24939	,	-22021	,	13.927975	,	9
5,28	,	111044	,	-24954	,	-22015	,	13.078217	,	9
5,28	,	111060	,	-24950	,	-22016	,	11.982073	,	8
5,28	,	111092	,	-24933	,	-22011	,	10.609152	,	7
5,28	,	111108	,	-24957	,	-22018	,	9.121967	,	5
5,28	,	111124	,	-24951	,	-22010	,	7.578828	,	3
5,28	,	111156	,	-24945	,	-22007	,	5.9144616	,	1
5,28	,	111172	,	-24935	,	-22014	,	4.306694	,	0
5,28	,	111203	,	-24943	,	-22014	,	3.0897965	,	0
5,28	,	111220	,	-24963	,	-22029	,	2.2860165	,	0
5,28	,	111236	,	-24953	,	-22002	,	1.5242717	,	0
5,28	,	111268	,	-24949	,	-22016	,	0.5565561	,	0
5,29	,	111284	,	-24960	,	-22018	,	-0.5173825	,	0
5,29	,	111300	,	-24968	,	-22018	,	-1.6238811	,	0
5,29	,	111332	,	-24966	,	-22019	,	-2.847029	,	0
5,29	,	111348	,	-24964	,	-22025	,	-4.168405	,	0
5,29	,	111363	,	-24972	,	-22018	,	-5.41177	,	0
5,29	,	111395	,	-24984	,	-22023	,	-6.5044003	,	0
5,29	,	111411	,	-24975	,	-22021	,	-7.530682	,	0
5,29	,	111443	,	-24960	,	-22024	,	-8.378889	,	0
5,29	,	111460	,	-24953	,	-22023	,	-8.591559	,	0
5,29	,	111476	,	-24939	,	-22003	,	-7.674005	,	0
5,29	,	111508	,	-24947	,	-22007	,	-5.447198	,	0
5,29	,	111524	,	-24911	,	-21999	,	-2.056045	,	2
5,29	,	111540	,	-24902	,	-21998	,	2.3743153	,	5
5,29	,	111571	,	-24899	,	-21990	,	7.7339606	,	9
5,29	,	111587	,	-24905	,	-21994	,	13.515091	,	14
5,29	,	111619	,	-24901	,	-21986	,	18.831371	,	19
5,29	,	111635	,	-24892	,	-21993	,	22.906273	,	24
5,29	,	111652	,	-24894	,	-21987	,	25.391796	,	28
5,29	,	111684	,	-24884	,	-21982	,	26.302832	,	30
5,29	,	111700	,	-24876	,	-21997	,	25.914753	,	30
5,29	,	111715	,	-24892	,	-21964	,	24.594872	,	28
5,29	,	111747	,	-24884	,	-21988	,	22.528767	,	25
5,29	,	111763	,	-24877	,	-21982	,	19.84972	,	21
5,29	,	111795	,	-24882	,	-21979	,	16.864805	,	16
5,29	,	111811	,	-24892	,	-21971	,	13.829072	,	11
5,29	,	111827	,	-24897	,	-21975	,	10.738672	,	6
5,29	,	111859	,	-24888	,	-21973	,	7.5475936	,	2
5,29	,	111876	,	-24880	,	-21974	,	4.4784894	,	0
5,29	,	111891	,	-24874	,	-21975	,	2.001975	,	0
5,29	,	111923	,	-24885	,	-21978	,	0.46866322	,	0
5,29	,	111939	,	-24885	,	-21982	,	-0.18305326	,	0
5,29	,	111956	,	-24891	,	-21956	,	-0.31642324	,	0
5,29	,	111988	,	-24907	,	-21966	,	-0.39099425	,	0
5,29	,	112003	,	-24898	,	-21970	,	-0.82463413	,	0
5,29	,	112035	,	-24893	,	-21975	,	-1.7032478	,	0
5,29	,	112051	,	-24920	,	-21979	,	-2.8451927	,	0
5,29	,	112067	,	-24903	,	-21982	,	-4.1828594	,	0
5,29	,	112099	,	-24909	,	-21972	,	-5.6222863	,	0
5,29	,	112115	,	-24915	,	-21969	,	-6.9092355	,	0
5,29	,	112131	,	-24934	,	-21981	,	-7.9887195	,	0
5,29	,	112163	,	-24942	,	-21976	,	-9.141352	,	0
5,29	,	112179	,	-24891	,	-21983	,	-10.411163	,	0
5,29	,	112211	,	-24910	,	-21967	,	-11.1360035	,	0
5,29	,	112228	,	-24896	,	-21969	,	-10.599348	,	0
5,29	,	112243	,	-24887	,	-21965	,	-8.644564	,	0
5,29	,	112276	,	-24873	,	-21966	,	-5.385826	,	1
5,30	,	112291	,	-24875	,	-21964	,	-1.0542102	,	4
5,30	,	112307	,	-24878	,	-21959	,	3.8220377	,	8
5,30	,	112339	,	-24860	,	-21957	,	8.550799	,	12
5,30	,	112355	,	-24851	,	-21951	,	12.71174	,	16
5,30	,	112371	,	-24860	,	-21950	,	16.17532	,	20
5,30	,	112403	,	-24871	,	-21952	,	18.670025	,	23
5,30	,	112419	,	-24852	,	-21958	,	19.820297	,	25
5,30	,	112451	,	-24881	,	-21940	,	19.49942	,	26
5,30	,	112467	,	-24849	,	-21944	,	17.849846	,	25
5,30	,	112483	,	-24851	,	-21947	,	15.350399	,	22
5,30	,	112515	,	-24848	,	-21948	,	12.720242	,	18
5,30	,	112531	,	-24855	,	-21953	,	10.425257	,	14
5,30	,	112547	,	-24863	,	-21945	,	8.48113	,	10
5,30	,	112579	,	-24861	,	-21946	,	6.667657	,	6
5,30	,	112595	,	-24854	,	-21942	,	4.8649855	,	3
5,30	,	112627	,	-24852	,	-21954	,	3.2120428	,	1
5,30	,	112643	,	-24850	,	-21946	,	1.94332	,	0
5,30	,	112659	,	-24859	,	-21953	,	1.1523054	,	0
5,30	,	112691	,	-24849	,	-21931	,	0.75085473	,	0
5,30	,	112707	,	-24882	,	-21949	,	0.49384594	,	0
5,30	,	112723	,	-24862	,	-21951	,	-0.0017738938	,	0
5,30	,	112755	,	-24865	,	-21957	,	-0.9009571	,	0
5,30	,	112771	,	-24870	,	-21953	,	-1.9894599	,	0
5,30	,	112787	,	-24903	,	-21966	,	-3.201173	,	0
5,30	,	112819	,	-24868	,	-21959	,	-4.73099	,	0
5,30	,	112835	,	-24884	,	-21964	,	-6.450623	,	0
5,30	,	112867	,	-24861	,	-21971	,	-7.8383455	,	0
5,30	,	112883	,	-24874	,	-21959	,	-8.417608	,	0
5,30	,	112899	,	-24896	,	-21978	,	-8.152218	,	0
5,30	,	112931	,	-24887	,	-21951	,	-7.534114	,	0
5,30	,	112947	,	-24876	,	-21961	,	-6.9857187	,	0
5,30	,	112963	,	-24871	,	-21956	,	-6.3991313	,	0
5,30	,	112995	,	-24866	,	-21952	,	-5.4377937	,	0
5,30	,	113011	,	-24862	,	-21961	,	-3.9047577	,	0
5,30	,	113043	,	-24889	,	-21955	,	-1.9604671	,	1
5,30	,	113059	,	-24864	,	-21951	,	-0.09394932	,	2
5,30	,	113075	,	-24852	,	-21956	,	1.4520708	,	3
5,30	,	113107	,	-24864	,	-21950	,	2.8807302	,	4
5,30	,	113123	,	-24848	,	-21949	,	4.336517	,	5
5,30	,	113139	,	-24831	,	-21957	,	5.884786	,	6
5,30	,	113171	,	-24849	,	-21935	,	7.6507444	,	7
5,30	,	113187	,	-24848	,	-21957	,	9.444191	,	8
5,30	,	113203	,	-24843	,	-21947	,	10.7936535	,	9
5,30	,	113235	,	-24852	,	-21947	,	11.386665	,	9
5,30	,	113251	,	-24835	,	-21946	,	11.191275	,	8
5,31	,	113283	,	-24849	,	-21952	,	10.389215	,	7
5,31	,	113299	,	-24839	,	-21951	,	9.210193	,	6
5,31	,	113315	,	-24855	,	-21946	,	7.774411	,	5
5,31	,	113347	,	-24879	,	-21940	,	5.9564886	,	4
5,31	,	113363	,	-24845	,	-21952	,	3.5466518	,	3
5,31	,	113379	,	-24857	,	-21961	,	0.8059008	,	2
5,31	,	113411	,	-24839	,	-21945	,	-1.588958	,	1
5,31	,	113427	,	-24864	,	-21944	,	-3.172701	,	0
5,31	,	113459	,	-24868	,	-21946	,	-4.033145	,	0
5,31	,	113475	,	-24862	,	-21957	,	-4.575056	,	0
5,31	,	113491	,	-24872	,	-21954	,	-5.0498943	,	0
5,31	,	113523	,	-24878	,	-21961	,	-5.55996	,	0
5,31	,	113539	,	-24902	,	-21960	,	-6.3327303	,	0
5,31	,	113555	,	-24876	,	-21963	,	-7.5878277	,	0
5,31	,	113587	,	-24924	,	-21960	,	-9.314191	,	0
5,31	,	113603	,	-24879	,	-21967	,	-11.345316	,	0
5,31	,	113619	,	-24887	,	-21975	,	-13.203427	,	0
5,31	,	113651	,	-24915	,	-21961	,	-14.322754	,	0
5,31	,	113666	,	-24922	,	-21972	,	-14.803438	,	0
5,31	,	113699	,	-24893	,	-21969	,	-15.045795	,	0
5,31	,	113715	,	-24918	,	-21970	,	-15.001127	,	0
5,31	,	113731	,	-24914	,	-21970	,	-14.523353	,	0
5,31	,	113763	,	-24897	,	-21967	,	-13.633657	,	0
5,31	,	113779	,	-24914	,	-21966	,	-12.275204	,	0
5,31	,	113795	,	-24908	,	-21965	,	-10.485365	,	1
5,31	,	113827	,	-24873	,	-21961	,	-8.330294	,	2
5,31	,	113843	,	-24883	,	-21969	,	-5.565777	,	4
5,31	,	113875	,	-24886	,	-21974	,	-2.0825224	,	6
5,31	,	113891	,	-24876	,	-21962	,	1.7194703	,	9
5,31	,	113907	,	-24876	,	-21968	,	5.335769	,	12
5,31	,	113939	,	-24897	,	-21976	,	8.32509	,	15
5,31	,	113955	,	-24902	,	-21963	,	10.122868	,	17
5,31	,	113971	,	-24920	,	-21963	,	10.181517	,	18
5,31	,	114003	,	-24875	,	-21964	,	8.485266	,	17
5,31	,	114019	,	-24888	,	-21972	,	5.8595176	,	16
5,31	,	114035	,	-24894	,	-21970	,	3.319684	,	14
5,31	,	114067	,	-24893	,	-21969	,	1.3002143	,	12
5,31	,	114083	,	-24931	,	-21970	,	-0.3528688	,	9
5,31	,	114114	,	-24901	,	-21982	,	-2.0664783	,	6
5,31	,	114130	,	-24906	,	-21963	,	-3.945514	,	3
5,31	,	114146	,	-24902	,	-21970	,	-5.591087	,	1
5,31	,	114178	,	-24910	,	-21971	,	-6.6518354	,	0
5,31	,	114194	,	-24905	,	-21977	,	-7.075895	,	0
5,31	,	114211	,	-24937	,	-21978	,	-7.0862923	,	0
5,31	,	114243	,	-24949	,	-21987	,	-7.267119	,	0
5,31	,	114259	,	-24925	,	-21982	,	-8.148522	,	0
5,32	,	114290	,	-24943	,	-21982	,	-9.606133	,	0
5,32	,	114307	,	-24955	,	-21986	,	-11.227386	,	0
5,32	,	114323	,	-24943	,	-21986	,	-12.816781	,	0
5,32	,	114355	,	-24929	,	-21989	,	-14.066107	,	0
5,32	,	114371	,	-24950	,	-21984	,	-14.502636	,	0
5,32	,	114387	,	-24968	,	-21977	,	-14.125269	,	0
5,32	,	114418	,	-24959	,	-21988	,	-13.4699955	,	0
5,32	,	114434	,	-24945	,	-21999	,	-12.853498	,	0
5,32	,	114466	,	-24963	,	-21993	,	-12.127022	,	0
5,32	,	114482	,	-24936	,	-21986	,	-11.085625	,	0
5,32	,	114499	,	-24931	,	-21990	,	-9.495556	,	1
5,32	,	114531	,	-24948	,	-21988	,	-7.169643	,	2
5,32	,	114547	,	-24942	,	-21991	,	-4.3687167	,	4
5,32	,	114562	,	-24963	,	-21983	,	-1.7222567	,	6
5,32	,	114594	,	-24950	,	-21986	,	0.17812061	,	8
5,32	,	114610	,	-24965	,	-21987	,	1.0457907	,	9
5,32	,	114626	,	-24941	,	-21988	,	0.9904496	,	9
5,32	,	114658	,	-24938	,	-21993	,	0.5041978	,	9
5,32	,	114674	,	-24987	,	-21993	,	-0.021886498	,	9
5,32	,	114707	,	-24967	,	-21993	,	-0.8473922	,	8
5,32	,	114723	,	-24955	,	-21993	,	-2.2321599	,	7
5,32	,	114739	,	-24948	,	-21996	,	-3.7122722	,	5
5,32	,	114770	,	-24967	,	-21996	,	-4.6773515	,	3
5,32	,	114786	,	-24980	,	-22000	,	-5.116794	,	1
5,32	,	114802	,	-24959	,	-21999	,	-5.3981557	,	0
5,32	,	114834	,	-24964	,	-22005	,	-5.6026573	,	0
5,32	,	114850	,	-24968	,	-21989	,	-5.5508127	,	0
5,32	,	114882	,	-24943	,	-21995	,	-5.1049323	,	0
5,32	,	114898	,	-24987	,	-21999	,	-4.2521844	,	0
5,32	,	114914	,	-24966	,	-22009	,	-3.3202822	,	0
5,32	,	114946	,	-24989	,	-22003	,	-2.7982697	,	0
5,32	,	114963	,	-24970	,	-21998	,	-2.8905404	,	0
5,32	,	114978	,	-24984	,	-21992	,	-3.468512	,	0
5,32	,	115010	,	-24987	,	-22007	,	-4.3107843	,	0
5,32	,	115026	,	-24959	,	-22006	,	-5.165441	,	0
5,32	,	115042	,	-25006	,	-22002	,	-5.7533	,	0
5,32	,	115074	,	-25004	,	-22014	,	-6.216861	,	0
5,32	,	115090	,	-24986	,	-22001	,	-6.949937	,	0
5,32	,	115122	,	-24979	,	-22007	,	-7.780828	,	0
5,32	,	115138	,	-24979	,	-22009	,	-8.112528	,	0
5,32	,	115154	,	-25000	,	-22013	,	-7.6903076	,	0
5,32	,	115186	,	-24992	,	-22010	,	-6.813079	,	0
5,32	,	115202	,	-24996	,	-22006	,	-5.893648	,	0
5,32	,	115218	,	-24984	,	-22012	,	-5.0680766	,	0
5,32	,	115250	,	-25009	,	-22015	,	-4.3339405	,	0
5,32	,	115266	,	-24992	,	-22006	,	-3.7962246	,	0
5,33	,	115298	,	-24984	,	-22007	,	-3.4503314	,	0
5,33	,	115314	,	-24964	,	-22017	,	-2.901186	,	0
5,33	,	115330	,	-24992	,	-22005	,	-1.7404686	,	0
5,33	,	115362	,	-24990	,	-22006	,	-0.13587558	,	1
5,33	,	115378	,	-24995	,	-22002	,	1.3122001	,	2
5,33	,	115394	,	-24986	,	-22004	,	2.1805716	,	3
5,33	,	115426	,	-24986	,	-22006	,	2.4570248	,	3
5,33	,	115442	,	-24992	,	-22001	,	2.3269985	,	3
5,33	,	115474	,	-24995	,	-22006	,	1.8986222	,	3
5,33	,	115490	,	-24990	,	-22008	,	1.2021742	,	3
5,33	,	115506	,	-24994	,	-22002	,	0.3406055	,	3
5,33	,	115538	,	-24990	,	-22010	,	-0.52287763	,	3
5,33	,	115554	,	-24995	,	-22023	,	-1.2547882	,	2
5,33	,	115570	,	-24996	,	-21998	,	-1.8029109	,	1
5,33	,	115602	,	-24984	,	-22015	,	-2.1354833	,	0
5,33	,	115618	,	-25004	,	-22019	,	-2.2170358	,	0
5,33	,	115634	,	-24996	,	-22020	,	-2.1584923	,	0
5,33	,	115666	,	-25007	,	-22015	,	-2.172669	,	0
5,33	,	115682	,	-25005	,	-22022	,	-2.3985844	,	0
5,33	,	115714	,	-25017	,	-22023	,	-2.9165006	,	0
5,33	,	115730	,	-25015	,	-22025	,	-3.777605	,	0
5,33	,	115746	,	-25016	,	-22019	,	-4.920604	,	0
5,33	,	115778	,	-25003	,	-22021	,	-6.074663	,	0
5,33	,	115794	,	-25034	,	-22038	,	-6.9583025	,	0
5,33	,	115810	,	-25027	,	-22017	,	-7.6306562	,	0
5,33	,	115842	,	-25031	,	-22035	,	-8.31264	,	0
5,33	,	115858	,	-25034	,	-22030	,	-9.033461	,	0
5,33	,	115890	,	-25030	,	-22029	,	-9.676306	,	0
5,33	,	115906	,	-25042	,	-22038	,	-10.119295	,	0
5,33	,	115922	,	-25014	,	-22035	,	-10.218632	,	0
5,33	,	115954	,	-25033	,	-22035	,	-9.751127	,	0
5,33	,	115970	,	-25003	,	-22030	,	-8.521771	,	0
5,33	,	115986	,	-25013	,	-22024	,	-6.446442	,	1
5,33	,	116018	,	-25019	,	-22032	,	-3.6751528	,	3
5,33	,	116034	,	-24991	,	-22041	,	-0.58797574	,	5
5,33	,	116050	,	-25023	,	-22016	,	2.475265	,	8
5,33	,	116082	,	-24979	,	-22027	,	5.26374	,	11
5,33	,	116098	,	-24984	,	-22022	,	7.770736	,	13
5,33	,	116130	,	-24994	,	-22036	,	10.127866	,	15
5,33	,	116146	,	-25012	,	-22028	,	12.015799	,	17
5,33	,	116162	,	-24998	,	-22029	,	12.821199	,	18
5,33	,	116194	,	-25006	,	-22029	,	12.30611	,	17
5,33	,	116210	,	-24976	,	-22021	,	10.817223	,	15
5,33	,	116226	,	-25013	,	-22035	,	8.943548	,	13
5,33	,	116258	,	-25006	,	-22028	,	6.934758	,	10
5,33	,	116274	,	-25016	,	-22031	,	4.6707563	,	7
5,34	,	116306	,	-25026	,	-22010	,	2.049323	,	5
5,34	,	116322	,	-25018	,	-22025	,	-0.88878703	,	3
5,34	,	116338	,	-25005	,	-22033	,	-3.812575	,	1
5,34	,	116370	,	-25020	,	-22026	,	-6.163711	,	0
5,34	,	116386	,	-25014	,	-22032	,	-7.617578	,	0
5,34	,	116402	,	-25019	,	-22032	,	-8.1998	,	0
5,34	,	116434	,	-25018	,	-22033	,	-8.07682	,	0
5,34	,	116450	,	-25024	,	-22021	,	-7.472536	,	0
5,34	,	116466	,	-25032	,	-22034	,	-6.6828914	,	0
5,34	,	116497	,	-25017	,	-22032	,	-5.966386	,	0
5,34	,	116513	,	-25018	,	-22037	,	-5.3249226	,	0
5,34	,	116546	,	-25033	,	-22037	,	-4.6517463	,	0
5,34	,	116562	,	-25040	,	-22034	,	-4.104059	,	0
5,34	,	116578	,	-25020	,	-22038	,	-3.910277	,	0
5,34	,	116610	,	-25037	,	-22045	,	-3.9885569	,	0
5,34	,	116626	,	-25040	,	-22043	,	-4.1819725	,	0
5,34	,	116642	,	-25038	,	-22036	,	-4.5071373	,	0
5,34	,	116674	,	-25040	,	-22047	,	-4.950634	,	0
5,34	,	116690	,	-25032	,	-22040	,	-5.3581038	,	0
5,34	,	116722	,	-25030	,	-22030	,	-5.5050673	,	0
5,34	,	116738	,	-25023	,	-22030	,	-5.1702604	,	0
5,34	,	116754	,	-25028	,	-22037	,	-4.249502	,	0
5,34	,	116785	,	-25014	,	-22024	,	-2.7959826	,	0
5,34	,	116801	,	-25034	,	-22025	,	-1.0007474	,	1
5,34	,	116817	,	-24996	,	-22028	,	0.9132402	,	2
5,34	,	116850	,	-25014	,	-22022	,	2.9090357	,	3
5,34	,	116865	,	-25013	,	-22030	,	4.9446564	,	4
5,34	,	116881	,	-25015	,	-22029	,	6.6931114	,	6
5,34	,	116914	,	-24989	,	-22022	,	7.9245763	,	7
5,34	,	116930	,	-25035	,	-22027	,	8.64749	,	8
5,34	,	116962	,	-25017	,	-22033	,	8.654274	,	8
5,34	,	116977	,	-25005	,	-22035	,	7.7728095	,	8
5,34	,	116993	,	-25012	,	-22030	,	6.352249	,	7
5,34	,	117025	,	-25013	,	-22025	,	4.846329	,	6
5,34	,	117041	,	-25008	,	-22030	,	3.4596412	,	5
5,34	,	117057	,	-25021	,	-22023	,	2.261204	,	4
5,34	,	117090	,	-25002	,	-22024	,	1.2670574	,	2
5,34	,	117106	,	-25010	,	-22022	,	0.5616772	,	1
5,34	,	117138	,	-25022	,	-22024	,	0.1728921	,	0
5,34	,	117154	,	-25020	,	-22019	,	-0.13264239	,	0
5,34	,	117170	,	-25004	,	-22023	,	-0.52939284	,	0
5,34	,	117201	,	-25020	,	-22023	,	-0.89214826	,	0
5,34	,	117217	,	-25028	,	-22024	,	-1.1737134	,	0
5,34	,	117233	,	-25020	,	-22018	,	-1.559918	,	0
5,34	,	117265	,	-25034	,	-22021	,	-2.172054	,	0
5,35	,	117281	,	-25024	,	-22029	,	-2.9883487	,	0
5,35	,	117298	,	-25025	,	-22030	,	-3.863697	,	0
5,35	,	117330	,	-25033	,	-22029	,	-4.5868416	,	0
5,35	,	117346	,	-25034	,	-22024	,	-5.0963974	,	0
5,35	,	117377	,	-25033	,	-22026	,	-5.458944	,	0
5,35	,	117394	,	-25031	,	-22033	,	-5.6755743	,	0
5,35	,	117409	,	-25042	,	-22033	,	-5.7127633	,	0
5,35	,	117441	,	-25041	,	-22031	,	-5.652233	,	0
5,35	,	117458	,	-25034	,	-22031	,	-5.589863	,	0
5,35	,	117474	,	-25019	,	-22025	,	-5.3729553	,	0
5,35	,	117505	,	-25020	,	-22025	,	-4.6467924	,	0
5,35	,	117521	,	-25037	,	-22030	,	-3.2982223	,	0
5,35	,	117553	,	-25017	,	-22021	,	-1.6223586	,	1
5,35	,	117569	,	-25033	,	-22021	,	0.04283619	,	2
5,35	,	117585	,	-25013	,	-22018	,	1.5302389	,	3
5,35	,	117617	,	-25019	,	-22014	,	2.8185022	,	4
5,35	,	117633	,	-25011	,	-22013	,	3.9699602	,	5
5,35	,	117649	,	-25003	,	-22012	,	5.0575004	,	6
5,35	,	117681	,	-25008	,	-22017	,	6.1467476	,	7
5,35	,	117698	,	-25006	,	-22016	,	7.1888347	,	8
5,35	,	117713	,	-25004	,	-22017	,	8.020276	,	9
5,35	,	117745	,	-25009	,	-22025	,	8.498876	,	8
5,35	,	117761	,	-25005	,	-22004	,	8.532038	,	7
5,35	,	117793	,	-25018	,	-22015	,	8.050108	,	6
5,35	,	117809	,	-25032	,	-22008	,	6.9069996	,	5
5,35	,	117825	,	-25029	,	-22013	,	4.916083	,	4
5,35	,	117857	,	-25024	,	-22014	,	2.1800888	,	3
5,35	,	117873	,	-24998	,	-22017	,	-0.68524265	,	2
5,35	,	117889	,	-25013	,	-22005	,	-2.8307705	,	1
5,35	,	117921	,	-25019	,	-22008	,	-3.8354206	,	0
5,35	,	117937	,	-25012	,	-22010	,	-3.8971136	,	0
5,35	,	117969	,	-25013	,	-22010	,	-3.362712	,	0
5,35	,	117985	,	-25022	,	-22025	,	-2.5132754	,	0
5,35	,	118001	,	-25012	,	-22012	,	-1.6260718	,	0
5,35	,	118033	,	-25028	,	-22015	,	-0.9149654	,	0
5,35	,	118049	,	-25015	,	-22013	,	-0.5132978	,	0
5,35	,	118065	,	-25031	,	-22022	,	-0.48131567	,	0
5,35	,	118097	,	-25021	,	-22028	,	-0.81053036	,	0
5,35	,	118113	,	-25033	,	-22026	,	-1.4430687	,	0
5,35	,	118129	,	-25035	,	-22025	,	-2.3165333	,	0
5,35	,	118161	,	-25033	,	-22032	,	-3.3816967	,	0
5,35	,	118177	,	-25017	,	-22028	,	-4.425885	,	0
5,35	,	118209	,	-25045	,	-22037	,	-5.1430044	,	0
5,35	,	118225	,	-25038	,	-22026	,	-5.535197	,	0
5,35	,	118241	,	-25010	,	-22017	,	-5.683715	,	0
5,35	,	118273	,	-25023	,	-22024	,	-5.3090763	,	0
5,36	,	118289	,	-25012	,	-22017	,	-4.149808	,	0
5,36	,	118305	,	-25022	,	-22017	,	-2.3351047	,	1
5,36	,	118337	,	-25032	,	-22020	,	-0.29943728	,	2
5,36	,	118353	,	-25009	,	-22019	,	1.4756591	,	4
5,36	,	118385	,	-25015	,	-22012	,	2.8434825	,	5
5,36	,	118401	,	-25027	,	-22004	,	3.851345	,	6
5,36	,	118417	,	-25011	,	-22014	,	4.4254694	,	7
5,36	,	118449	,	-24996	,	-22013	,	4.6782494	,	7
5,36	,	118465	,	-25010	,	-22021	,	4.981219	,	7
5,36	,	118481	,	-25013	,	-22007	,	5.43111	,	7
5,36	,	118513	,	-25012	,	-22010	,	5.7536516	,	6
5,36	,	118529	,	-24990	,	-22016	,	5.8167934	,	5
5,36	,	118545	,	-25023	,	-22014	,	5.7351413	,	3
5,36	,	118577	,	-25017	,	-22014	,	5.410861	,	2
5,36	,	118593	,	-25014	,	-22013	,	4.592881	,	1
5,36	,	118625	,	-25005	,	-22013	,	3.3684716	,	0
5,36	,	118641	,	-25008	,	-22013	,	2.1129673	,	0
5,36	,	118657	,	-25030	,	-22009	,	1.0167501	,	0
5,36	,	118689	,	-24983	,	-22015	,	0.083828926	,	0
5,36	,	118705	,	-25015	,	-22030	,	-0.46969384	,	0
5,36	,	118721	,	-25013	,	-22006	,	-0.5142511	,	0
5,36	,	118753	,	-25028	,	-22021	,	-0.41158912	,	0
5,36	,	118769	,	-25022	,	-22022	,	-0.6294437	,	0
5,36	,	118801	,	-25027	,	-22016	,	-1.3398199	,	0
5,36	,	118817	,	-25027	,	-22015	,	-2.4316206	,	0
5,36	,	118833	,	-25036	,	-22017	,	-3.7185981	,	0
5,36	,	118865	,	-25034	,	-22025	,	-5.0722566	,	0
5,36	,	118881	,	-25007	,	-22024	,	-6.2344656	,	0
5,36	,	118897	,	-24993	,	-22019	,	-6.5836782	,	0
5,36	,	118929	,	-25032	,	-22021	,	-5.6440554	,	0
5,36	,	118945	,	-25025	,	-22041	,	-3.8264167	,	0
5,36	,	118961	,	-25021	,	-21995	,	-1.983738	,	1
5,36	,	118993	,	-25018	,	-22018	,	-0.5486016	,	2
5,36	,	119009	,	-25000	,	-22018	,	0.55371773	,	3
5,36	,	119041	,	-24999	,	-22028	,	1.6670996	,	4
5,36	,	119057	,	-25009	,	-22017	,	3.0317805	,	5
5,36	,	119073	,	-25010	,	-22021	,	4.463521	,	6
5,36	,	119105	,	-25008	,	-22022	,	5.575852	,	7
5,36	,	119121	,	-24998	,	-22025	,	6.1933775	,	8
5,36	,	119137	,	-24998	,	-22020	,	6.4377594	,	8
5,36	,	119169	,	-25004	,	-22018	,	6.4809256	,	7
5,36	,	119185	,	-25007	,	-22028	,	6.3143086	,	6
5,36	,	119217	,	-25008	,	-22000	,	5.815831	,	5
5,36	,	119233	,	-25015	,	-22017	,	4.9017673	,	4
5,36	,	119249	,	-24999	,	-22019	,	3.6287303	,	3
5,37	,	119281	,	-24987	,	-22013	,	2.3510954	,	2
5,37	,	119297	,	-25004	,	-22012	,	1.5406954	,	1
5,37	,	119313	,	-25017	,	-22019	,	1.222289	,	0
5,37	,	119345	,	-24995	,	-22018	,	1.0222131	,	0
5,37	,	119360	,	-25015	,	-22020	,	0.73126066	,	0
5,37	,	119377	,	-25003	,	-22025	,	0.3361925	,	0
5,37	,	119409	,	-24991	,	-22018	,	-0.06271705	,	0
5,37	,	119425	,	-25006	,	-22038	,	-0.22285879	,	0
5,37	,	119457	,	-25020	,	-22009	,	-0.15805934	,	0
5,37	,	119473	,	-25004	,	-22028	,	-0.21229053	,	0
5,37	,	119489	,	-25006	,	-22031	,	-0.5238242	,	0
5,37	,	119520	,	-25015	,	-22026	,	-0.95690894	,	0
5,37	,	119536	,	-25002	,	-22033	,	-1.3989116	,	0
5,37	,	119553	,	-25035	,	-22040	,	-1.8609828	,	0
5,37	,	119585	,	-25030	,	-22033	,	-2.5843692	,	0
5,37	,	119601	,	-25025	,	-22032	,	-3.7925692	,	0
5,37	,	119633	,	-25017	,	-22037	,	-5.252872	,	0
5,37	,	119649	,	-25014	,	-22036	,	-6.421179	,	0
5,37	,	119665	,	-25014	,	-22044	,	-6.86001	,	0
5,37	,	119696	,	-25002	,	-22016	,	-6.38807	,	0
5,37	,	119712	,	-25004	,	-22024	,	-5.007312	,	0
5,37	,	119728	,	-24981	,	-22029	,	-2.7912886	,	1
5,37	,	119761	,	-24987	,	-22029	,	0.17183113	,	3
5,37	,	119777	,	-24988	,	-22024	,	3.6217325	,	5
5,37	,	119809	,	-24995	,	-22026	,	6.989295	,	8
5,37	,	119825	,	-24986	,	-22016	,	9.66587	,	11
5,37	,	119840	,	-24982	,	-22024	,	11.365231	,	13
5,37	,	119872	,	-24978	,	-22026	,	12.159958	,	14
5,37	,	119888	,	-24985	,	-22020	,	12.235857	,	14
5,37	,	119904	,	-24989	,	-22038	,	11.668289	,	14
5,37	,	119937	,	-24984	,	-22006	,	10.472966	,	13
5,37	,	119953	,	-24975	,	-22020	,	8.83479	,	11
5,37	,	119969	,	-24991	,	-22021	,	7.067501	,	9
5,37	,	120001	,	-24962	,	-22031	,	5.438248	,	6
5,37	,	120017	,	-24972	,	-22020	,	4.2518754	,	3
5,37	,	120048	,	-24986	,	-22016	,	3.6582167	,	1
5,37	,	120064	,	-24990	,	-22018	,	3.3295906	,	0
5,37	,	120080	,	-24979	,	-22012	,	2.8292727	,	0
5,37	,	120112	,	-24956	,	-22028	,	2.2078958	,	0
5,37	,	120128	,	-24979	,	-22017	,	1.8862989	,	0
5,37	,	120144	,	-24956	,	-22028	,	2.0829616	,	0
5,37	,	120176	,	-24982	,	-22009	,	2.6703339	,	0
5,37	,	120193	,	-24975	,	-22022	,	3.304658	,	0
5,37	,	120224	,	-24983	,	-22024	,	3.583187	,	0
5,37	,	120240	,	-24973	,	-22023	,	3.3225446	,	0
5,37	,	120256	,	-24988	,	-22024	,	2.5819182	,	0
5,38	,	120289	,	-24989	,	-22026	,	1.4367636	,	0
5,38	,	120305	,	-24995	,	-22024	,	-0.089571595	,	0
5,38	,	120321	,	-25010	,	-22022	,	-1.9842644	,	0
5,38	,	120353	,	-24987	,	-22019	,	-4.1495337	,	0
5,38	,	120369	,	-24981	,	-22025	,	-6.14635	,	0
5,38	,	120385	,	-24984	,	-22027	,	-7.333292	,	0
5,38	,	120417	,	-24963	,	-21997	,	-7.309017	,	0
5,38	,	120432	,	-24961	,	-22018	,	-5.9236603	,	0
5,38	,	120464	,	-24959	,	-22003	,	-3.247951	,	1
5,38	,	120481	,	-24946	,	-22003	,	0.36598969	,	3
5,38	,	120496	,	-24967	,	-22006	,	4.3647637	,	6
5,38	,	120528	,	-24941	,	-22007	,	8.106615	,	9
5,38	,	120544	,	-24936	,	-22008	,	11.214416	,	12
5,38	,	120560	,	-24966	,	-22009	,	13.562816	,	15
5,38	,	120592	,	-24935	,	-22004	,	14.904419	,	17
5,38	,	120608	,	-24920	,	-22003	,	15.277912	,	18
5,38	,	120640	,	-24941	,	-22001	,	15.178873	,	18
5,38	,	120656	,	-24924	,	-21990	,	14.887096	,	17
5,38	,	120672	,	-24949	,	-22003	,	14.297527	,	15
5,38	,	120704	,	-24918	,	-21997	,	13.275135	,	12
5,38	,	120721	,	-24927	,	-22001	,	11.94983	,	9
5,38	,	120736	,	-24931	,	-22002	,	10.591097	,	6
5,38	,	120768	,	-24926	,	-21998	,	9.26969	,	3
5,38	,	120784	,	-24928	,	-21994	,	7.95673	,	1
5,38	,	120800	,	-24920	,	-22006	,	6.7109647	,	0
5,38	,	120832	,	-24948	,	-22004	,	5.532336	,	0
5,38	,	120848	,	-24914	,	-22004	,	4.306907	,	0
5,38	,	120880	,	-24947	,	-22014	,	3.0258205	,	0
5,38	,	120896	,	-24939	,	-22000	,	1.6954398	,	0
5,38	,	120912	,	-24951	,	-22006	,	0.18368268	,	0
5,38	,	120944	,	-24949	,	-22013	,	-1.5822743	,	0
5,38	,	120960	,	-24929	,	-22013	,	-3.408021	,	0
5,38	,	120976	,	-24966	,	-22024	,	-4.952462	,	0
5,38	,	121008	,	-24969	,	-22021	,	-6.247666	,	0
5,38	,	121024	,	-24953	,	-22033	,	-7.5936446	,	0
5,38	,	121056	,	-24938	,	-22034	,	-8.804497	,	0
5,38	,	121072	,	-24963	,	-22026	,	-9.357601	,	0
5,38	,	121088	,	-24929	,	-22022	,	-9.022723	,	0
5,38	,	121120	,	-24954	,	-22030	,	-7.8271847	,	0
5,38	,	121136	,	-24950	,	-22010	,	-6.0041018	,	1
5,38	,	121152	,	-24919	,	-22019	,	-3.8666024	,	2
5,38	,	121184	,	-24919	,	-22020	,	-1.3621078	,	4
5,38	,	121200	,	-24933	,	-22017	,	1.610601	,	6
5,38	,	121216	,	-24900	,	-22017	,	4.789289	,	8
5,38	,	121248	,	-24941	,	-22021	,	7.7959437	,	11
5,38	,	121264	,	-24896	,	-22021	,	10.266391	,	14
5,39	,	121296	,	-24910	,	-22021	,	12.061733	,	16
5,39	,	121312	,	-24887	,	-22027	,	13.388657	,	17
5,39	,	121328	,	-24894	,	-22022	,	14.493437	,	17
5,39	,	121360	,	-24918	,	-22028	,	15.316153	,	17
5,39	,	121376	,	-24900	,	-22012	,	15.435008	,	15
5,39	,	121392	,	-24895	,	-22021	,	14.626595	,	13
5,39	,	121424	,	-24900	,	-22024	,	13.1593075	,	11
5,39	,	121440	,	-24907	,	-22021	,	11.32902	,	8
5,39	,	121472	,	-24901	,	-22026	,	9.242754	,	5
5,39	,	121488	,	-24903	,	-22024	,	7.028032	,	3
5,39	,	121504	,	-24890	,	-22023	,	4.947381	,	2
5,39	,	121536	,	-24904	,	-22029	,	3.2736478	,	1
5,39	,	121552	,	-24921	,	-22035	,	1.9717817	,	0
5,39	,	121568	,	-24927	,	-22036	,	0.60782933	,	0
5,39	,	121600	,	-24927	,	-22037	,	-1.2257116	,	0
5,39	,	121616	,	-24931	,	-22028	,	-3.5515797	,	0
5,39	,	121632	,	-24931	,	-22034	,	-6.0935235	,	0
5,39	,	121664	,	-24937	,	-22039	,	-8.500743	,	0
5,39	,	121680	,	-24947	,	-22040	,	-10.546762	,	0
5,39	,	121712	,	-24934	,	-22047	,	-12.140661	,	0
5,39	,	121728	,	-24944	,	-22046	,	-13.151566	,	0
5,39	,	121744	,	-24939	,	-22046	,	-13.451328	,	0
5,39	,	121776	,	-24929	,	-22048	,	-12.986095	,	0
5,39	,	121792	,	-24929	,	-22053	,	-11.691177	,	0
5,39	,	121808	,	-24932	,	-22060	,	-9.615694	,	1
5,39	,	121840	,	-24945	,	-22056	,	-7.1166763	,	3
5,39	,	121856	,	-24918	,	-22037	,	-4.646106	,	5
5,39	,	121888	,	-24928	,	-22040	,	-2.3573017	,	7
5,39	,	121904	,	-24904	,	-22049	,	-0.123283625	,	9
5,39	,	121920	,	-24892	,	-22043	,	2.317993	,	11
5,39	,	121952	,	-24909	,	-22046	,	5.1579266	,	13
5,39	,	121968	,	-24889	,	-22047	,	8.193394	,	15
5,39	,	121984	,	-24914	,	-22037	,	10.939488	,	18
5,39	,	122016	,	-24892	,	-22050	,	12.930923	,	19
5,39	,	122032	,	-24904	,	-22036	,	13.924418	,	18
5,39	,	122048	,	-24886	,	-22041	,	14.000122	,	16
5,39	,	122080	,	-24880	,	-22053	,	13.501877	,	14
5,39	,	122095	,	-24880	,	-22038	,	12.869661	,	12
5,39	,	122128	,	-24880	,	-22041	,	12.348583	,	10
5,39	,	122144	,	-24884	,	-22039	,	11.886202	,	8
5,39	,	122160	,	-24869	,	-22046	,	11.360353	,	6
5,39	,	122192	,	-24875	,	-22039	,	10.787646	,	3
5,39	,	122208	,	-24901	,	-22041	,	10.090565	,	1
5,39	,	122240	,	-24900	,	-22046	,	8.84391	,	0
5,39	,	122256	,	-24897	,	-22041	,	6.704067	,	0
5,39	,	122271	,	-24910	,	-22046	,	3.7892885	,	0
5,40	,	122303	,	-24895	,	-22042	,	0.4920578	,	0
5,40	,	122320	,	-24904	,	-22054	,	-2.6905124	,	0
5,40	,	122336	,	-24901	,	-22048	,	-5.3063483	,	0
5,40	,	122368	,	-24888	,	-22059	,	-7.0500674	,	0
5,40	,	122384	,	-24926	,	-22066	,	-7.847352	,	0
5,40	,	122415	,	-24923	,	-22050	,	-8.1081505	,	0
5,40	,	122432	,	-24936	,	-22065	,	-8.487606	,	0
5,40	,	122447	,	-24926	,	-22060	,	-9.30512	,	0
5,40	,	122479	,	-24945	,	-22070	,	-10.481266	,	0
5,40	,	122496	,	-24929	,	-22072	,	-11.783227	,	0
5,40	,	122512	,	-24933	,	-22075	,	-12.872028	,	0
5,40	,	122544	,	-24943	,	-22085	,	-13.424767	,	0
5,40	,	122560	,	-24928	,	-22066	,	-13.34062	,	0
5,40	,	122576	,	-24942	,	-22062	,	-12.648039	,	0
5,40	,	122607	,	-24899	,	-22060	,	-11.280604	,	0
5,40	,	122623	,	-24894	,	-22058	,	-8.889384	,	1
5,40	,	122655	,	-24899	,	-22067	,	-5.1535263	,	3
5,40	,	122671	,	-24906	,	-22061	,	-0.4203415	,	6
5,40	,	122688	,	-24924	,	-22060	,	4.3009443	,	10
5,40	,	122720	,	-24907	,	-22057	,	7.950746	,	14
5,40	,	122736	,	-24888	,	-22060	,	10.139849	,	17
5,40	,	122751	,	-24895	,	-22057	,	11.251015	,	19
5,40	,	122783	,	-24902	,	-22059	,	11.716012	,	20
5,40	,	122799	,	-24893	,	-22060	,	11.626907	,	20
5,40	,	122831	,	-24895	,	-22051	,	11.02935	,	19
5,40	,	122848	,	-24904	,	-22051	,	10.025049	,	17
5,40	,	122863	,	-24889	,	-22054	,	8.688093	,	14
5,40	,	122895	,	-24888	,	-22053	,	7.2209263	,	10
5,40	,	122912	,	-24919	,	-22054	,	5.7913694	,	6
5,40	,	122928	,	-24889	,	-22054	,	4.279459	,	3
5,40	,	122959	,	-24894	,	-22049	,	2.70571	,	1
5,40	,	122975	,	-24910	,	-22047	,	1.3158743	,	0
5,40	,	122991	,	-24889	,	-22050	,	0.1800108	,	0
5,40	,	123023	,	-24926	,	-22050	,	-0.78767526	,	0
5,40	,	123039	,	-24925	,	-22056	,	-1.868995	,	0
5,40	,	123071	,	-24895	,	-22049	,	-3.2801533	,	0
5,40	,	123087	,	-24907	,	-22055	,	-4.644138	,	0
5,40	,	123103	,	-24908	,	-22053	,	-5.430963	,	0
5,40	,	123135	,	-24932	,	-22052	,	-5.6520414	,	0
5,40	,	123151	,	-24895	,	-22051	,	-5.6198645	,	0
5,40	,	123167	,	-24932	,	-22059	,	-5.448031	,	0
5,40	,	123200	,	-24941	,	-22059	,	-5.3271356	,	0
5,40	,	123215	,	-24945	,	-22062	,	-5.745449	,	0
5,40	,	123247	,	-24938	,	-22058	,	-6.9291663	,	0
5,40	,	123263	,	-24944	,	-22053	,	-8.582207	,	0
5,41	,	123279	,	-24925	,	-22062	,	-10.155527	,	0
5,41	,	123311	,	-24945	,	-22044	,	-11.132391	,	0
5,41	,	123327	,	-24899	,	-22048	,	-11.134671	,	0
5,41	,	123343	,	-24917	,	-22042	,	-9.813127	,	0
5,41	,	123375	,	-24893	,	-22037	,	-7.011778	,	1
5,41	,	123391	,	-24909	,	-22043	,	-3.029893	,	3
5,41	,	123407	,	-24913	,	-22045	,	1.4127383	,	6
5,41	,	123439	,	-24897	,	-22037	,	5.48529	,	10
5,41	,	123455	,	-24930	,	-22037	,	8.570318	,	14
5,41	,	123487	,	-24885	,	-22037	,	10.350396	,	17
5,41	,	123503	,	-24895	,	-22031	,	11.025379	,	18
5,41	,	123519	,	-24891	,	-22049	,	11.147149	,	18
5,41	,	123551	,	-24888	,	-22032	,	11.056615	,	18
5,41	,	123567	,	-24898	,	-22036	,	10.815823	,	17
5,41	,	123583	,	-24877	,	-22035	,	10.409753	,	15
5,41	,	123615	,	-24914	,	-22032	,	9.789385	,	12
5,41	,	123631	,	-24922	,	-22030	,	8.626455	,	8
5,41	,	123663	,	-24875	,	-22033	,	6.6495	,	4
5,41	,	123679	,	-24884	,	-22036	,	4.4088016	,	1
5,41	,	123695	,	-24885	,	-22032	,	2.7712326	,	0
5,41	,	123727	,	-24882	,	-22034	,	2.0408924	,	0
5,41	,	123743	,	-24895	,	-22037	,	2.0231605	,	0
5,41	,	123759	,	-24884	,	-22046	,	2.337358	,	0
5,41	,	123791	,	-24912	,	-22030	,	2.56096	,	0
5,41	,	123807	,	-24890	,	-22039	,	2.337526	,	0
5,41	,	123823	,	-24938	,	-22036	,	1.4115819	,	0
5,41	,	123855	,	-24898	,	-22032	,	-0.359833	,	0
5,41	,	123871	,	-24900	,	-22037	,	-2.6658993	,	0
5,41	,	123903	,	-24902	,	-22047	,	-4.7402854	,	0
5,41	,	123919	,	-24922	,	-22039	,	-6.1335406	,	0
5,41	,	123935	,	-24910	,	-22046	,	-6.9666824	,	0
5,41	,	123967	,	-24928	,	-22036	,	-7.4950566	,	0
5,41	,	123983	,	-24912	,	-22047	,	-7.8682814	,	0
5,41	,	123999	,	-24907	,	-22064	,	-8.0217	,	0
5,41	,	124031	,	-24940	,	-22039	,	-7.850912	,	0
5,41	,	124047	,	-24935	,	-22047	,	-7.6329393	,	0
5,41	,	124079	,	-24904	,	-22032	,	-7.617895	,	0
5,41	,	124095	,	-24892	,	-22036	,	-7.3349133	,	0
5,41	,	124111	,	-24888	,	-22037	,	-6.0025225	,	0
5,41	,	124143	,	-24892	,	-22033	,	-3.3554938	,	1
5,41	,	124159	,	-24880	,	-22035	,	0.2503941	,	3
5,41	,	124175	,	-24892	,	-22040	,	4.2045197	,	6
5,41	,	124207	,	-24900	,	-22030	,	7.788019	,	9
5,41	,	124223	,	-24892	,	-22026	,	10.309462	,	12
5,41	,	124239	,	-24888	,	-22039	,	11.48292	,	14
5,41	,	124271	,	-24894	,	-22026	,	11.472408	,	15
5,42	,	124287	,	-24916	,	-22035	,	10.448885	,	15
5,42	,	124319	,	-24903	,	-22028	,	8.40955	,	15
5,42	,	124335	,	-24874	,	-22026	,	5.6906347	,	14
5,42	,	124351	,	-24898	,	-22029	,	3.121677	,	12
5,42	,	124383	,	-24886	,	-22020	,	1.2915468	,	9
5,42	,	124399	,	-24897	,	-22025	,	0.23182034	,	6
5,42	,	124415	,	-24891	,	-22025	,	-0.2564726	,	3
5,42	,	124447	,	-24929	,	-22024	,	-0.55672675	,	1
5,42	,	124463	,	-24900	,	-22032	,	-1.1894609	,	0
5,42	,	124495	,	-24925	,	-22046	,	-2.3865771	,	0
5,42	,	124511	,	-24894	,	-22011	,	-3.9140832	,	0
5,42	,	124527	,	-24935	,	-22028	,	-5.402019	,	0
5,42	,	124559	,	-24932	,	-22032	,	-6.8045206	,	0
5,42	,	124575	,	-24929	,	-22034	,	-8.31331	,	0
5,42	,	124591	,	-24900	,	-22035	,	-9.708584	,	0
5,42	,	124623	,	-24901	,	-22030	,	-10.263643	,	0
5,42	,	124638	,	-24911	,	-22028	,	-9.463591	,	0
5,42	,	124655	,	-24906	,	-22033	,	-7.4836903	,	0
5,42	,	124687	,	-24935	,	-22034	,	-5.004964	,	1
5,42	,	124703	,	-24945	,	-22034	,	-2.9647145	,	3
5,42	,	124735	,	-24935	,	-22056	,	-2.147598	,	5
5,42	,	124751	,	-24909	,	-22017	,	-2.5125105	,	5
5,42	,	124767	,	-24954	,	-22048	,	-3.4051342	,	5
5,42	,	124799	,	-24938	,	-22042	,	-4.4982386	,	5
5,42	,	124815	,	-24905	,	-22031	,	-5.6208167	,	5
5,42	,	124831	,	-24902	,	-22029	,	-6.065117	,	5
5,42	,	124863	,	-24946	,	-22032	,	-5.310342	,	5
5,42	,	124879	,	-24908	,	-22027	,	-3.7646577	,	4
5,42	,	124910	,	-24895	,	-22037	,	-1.8823657	,	3
5,42	,	124927	,	-24888	,	-22025	,	0.49520063	,	2
5,42	,	124942	,	-24897	,	-22029	,	3.497249	,	4
5,42	,	124974	,	-24894	,	-22038	,	6.752977	,	7
5,42	,	124991	,	-24877	,	-22006	,	9.757707	,	10
5,42	,	125006	,	-24897	,	-22021	,	12.214248	,	13
5,42	,	125038	,	-24922	,	-22021	,	13.706862	,	15
5,42	,	125054	,	-24926	,	-22023	,	13.52924	,	16
5,42	,	125070	,	-24906	,	-22019	,	11.372339	,	16
5,42	,	125103	,	-24895	,	-22012	,	7.891866	,	15
5,42	,	125119	,	-24924	,	-22015	,	4.146055	,	14
5,42	,	125150	,	-24890	,	-22017	,	0.8180313	,	12
5,42	,	125166	,	-24875	,	-22018	,	-1.5298183	,	9
5,42	,	125183	,	-24901	,	-22022	,	-2.3519366	,	6
5,42	,	125214	,	-24887	,	-22029	,	-1.7348356	,	3
5,42	,	125231	,	-24897	,	-22001	,	-0.2879259	,	1
5,42	,	125247	,	-24903	,	-22015	,	1.3497914	,	1
5,42	,	125279	,	-24918	,	-22021	,	2.539455	,	2
5,43	,	125295	,	-24926	,	-22014	,	2.692818	,	3
5,43	,	125326	,	-24898	,	-22022	,	1.649518	,	3
5,43	,	125342	,	-24923	,	-22022	,	-0.14465821	,	3
5,43	,	125358	,	-24921	,	-22021	,	-2.1676624	,	3
5,43	,	125390	,	-24919	,	-22017	,	-4.1700096	,	3
5,43	,	125406	,	-24902	,	-22022	,	-5.8436995	,	3
5,43	,	125423	,	-24910	,	-22013	,	-6.7495193	,	3
5,43	,	125455	,	-24911	,	-22039	,	-6.6950345	,	2
5,43	,	125471	,	-24939	,	-22010	,	-5.9991455	,	1
5,43	,	125487	,	-24898	,	-22029	,	-5.1808186	,	0
5,43	,	125518	,	-24909	,	-22026	,	-4.322344	,	0
5,43	,	125534	,	-24919	,	-22028	,	-3.241216	,	0
5,43	,	125566	,	-24918	,	-22027	,	-2.0887728	,	1
5,43	,	125582	,	-24913	,	-22024	,	-1.1597295	,	2
5,43	,	125598	,	-24920	,	-22026	,	-0.5448481	,	2
5,43	,	125631	,	-24930	,	-22023	,	-0.29168606	,	2
5,43	,	125646	,	-24898	,	-22025	,	-0.3846529	,	2
5,43	,	125662	,	-24922	,	-22022	,	-0.5420425	,	2
5,43	,	125694	,	-24904	,	-22043	,	-0.48524204	,	2
5,43	,	125710	,	-24928	,	-22002	,	-0.22913252	,	2
5,43	,	125742	,	-24910	,	-22013	,	0.03516957	,	2
5,43	,	125758	,	-24914	,	-22015	,	0.20234455	,	1
5,43	,	125774	,	-24899	,	-22007	,	0.40062085	,	0
5,43	,	125806	,	-24878	,	-22007	,	0.9737088	,	0
5,43	,	125822	,	-24913	,	-22014	,	2.1870496	,	0
5,43	,	125838	,	-24890	,	-22002	,	3.8093686	,	1
5,43	,	125870	,	-24912	,	-22014	,	5.3059134	,	2
5,43	,	125886	,	-24879	,	-21997	,	6.358455	,	3
5,43	,	125918	,	-24887	,	-22008	,	7.05378	,	4
5,43	,	125934	,	-24914	,	-22030	,	7.5067787	,	4
5,43	,	125950	,	-24891	,	-21991	,	7.475708	,	4
5,43	,	125982	,	-24927	,	-22016	,	6.671871	,	4
5,43	,	125998	,	-24879	,	-22009	,	5.130768	,	4
5,43	,	126015	,	-24886	,	-22012	,	3.3897398	,	4
5,43	,	126046	,	-24884	,	-22006	,	2.1922102	,	3
5,43	,	126062	,	-24903	,	-22014	,	1.7587919	,	2
5,43	,	126078	,	-24894	,	-22017	,	1.7329748	,	1
5,43	,	126110	,	-24891	,	-22005	,	1.7419364	,	0
5,43	,	126126	,	-24884	,	-22008	,	1.7326765	,	0
5,43	,	126159	,	-24900	,	-22018	,	1.7791102	,	0
5,43	,	126174	,	-24885	,	-22028	,	1.8284519	,	0
5,43	,	126190	,	-24926	,	-22000	,	1.6616825	,	0
5,43	,	126222	,	-24927	,	-22017	,	0.811316	,	0
5,43	,	126238	,	-24936	,	-22020	,	-1.1811728	,	0
5,43	,	126254	,	-24916	,	-22019	,	-4.1970863	,	0
5,44	,	126286	,	-24926	,	-22020	,	-7.5100126	,	0
5,44	,	126302	,	-24924	,	-22021	,	-10.33806	,	0
5,44	,	126334	,	-24949	,	-22020	,	-12.352079	,	0
5,44	,	126350	,	-24928	,	-22027	,	-13.648584	,	0
5,44	,	126366	,	-24917	,	-22027	,	-14.209301	,	0
5,44	,	126398	,	-24931	,	-22022	,	-13.771252	,	0
5,44	,	126414	,	-24912	,	-22027	,	-12.258509	,	0
5,44	,	126430	,	-24943	,	-22004	,	-9.949458	,	1
5,44	,	126462	,	-24888	,	-22012	,	-7.209007	,	3
5,44	,	126478	,	-24919	,	-22028	,	-4.1380177	,	5
5,44	,	126494	,	-24920	,	-22024	,	-0.8705845	,	8
5,44	,	126526	,	-24883	,	-22015	,	2.2359338	,	11
5,44	,	126542	,	-24888	,	-22012	,	5.1758356	,	14
5,44	,	126574	,	-24878	,	-22021	,	8.184258	,	16
5,44	,	126590	,	-24914	,	-22016	,	11.04905	,	19
5,44	,	126606	,	-24893	,	-22009	,	13.09248	,	21
5,44	,	126638	,	-24902	,	-22015	,	13.809924	,	22
5,44	,	126654	,	-24915	,	-22027	,	13.146349	,	20
5,44	,	126670	,	-24898	,	-22001	,	11.261057	,	18
5,44	,	126702	,	-24879	,	-22007	,	8.682743	,	15
5,44	,	126718	,	-24890	,	-22009	,	6.2812524	,	12
5,44	,	126750	,	-24885	,	-22005	,	4.6242285	,	9
5,44	,	126766	,	-24882	,	-22011	,	3.7782135	,	7
5,44	,	126782	,	-24888	,	-22009	,	3.587974	,	4
5,44	,	126814	,	-24885	,	-22008	,	3.784273	,	2
5,44	,	126830	,	-24913	,	-22021	,	3.9485114	,	0
5,44	,	126846	,	-24896	,	-22017	,	3.5986967	,	0
5,44	,	126878	,	-24899	,	-22017	,	2.562637	,	0
5,44	,	126894	,	-24897	,	-22025	,	1.117327	,	0
5,44	,	126910	,	-24899	,	-22009	,	-0.35894883	,	0
5,44	,	126942	,	-24938	,	-22014	,	-1.8050606	,	0
5,44	,	126958	,	-24909	,	-22011	,	-3.5084643	,	0
5,44	,	126990	,	-24928	,	-22019	,	-5.5600824	,	0
5,44	,	127006	,	-24931	,	-22025	,	-7.7199845	,	0
5,44	,	127022	,	-24921	,	-22023	,	-9.739021	,	0
5,44	,	127054	,	-24951	,	-22026	,	-11.431676	,	0
5,44	,	127070	,	-24945	,	-22022	,	-12.824163	,	0
5,44	,	127086	,	-24932	,	-22027	,	-13.976536	,	0
5,44	,	127118	,	-24927	,	-22026	,	-14.578796	,	0
5,44	,	127134	,	-24892	,	-22037	,	-14.031319	,	0
5,44	,	127166	,	-24893	,	-22012	,	-11.732983	,	0
5,44	,	127182	,	-24883	,	-22016	,	-7.490325	,	2
5,44	,	127198	,	-24887	,	-22028	,	-1.7808352	,	6
5,44	,	127229	,	-24900	,	-22021	,	4.4035935	,	11
5,44	,	127246	,	-24898	,	-22009	,	9.877565	,	17
5,44	,	127262	,	-24894	,	-22017	,	13.738771	,	22
5,45	,	127294	,	-24891	,	-22011	,	15.7080555	,	25
5,45	,	127310	,	-24893	,	-22012	,	15.992178	,	26
5,45	,	127325	,	-24887	,	-22013	,	14.995434	,	26
5,45	,	127357	,	-24871	,	-22017	,	13.266945	,	26
5,45	,	127374	,	-24907	,	-22027	,	11.312309	,	24
5,45	,	127406	,	-24891	,	-21998	,	9.212526	,	20
5,45	,	127422	,	-24870	,	-22008	,	6.988675	,	15
5,45	,	127438	,	-24867	,	-22002	,	5.1420903	,	9
5,45	,	127470	,	-24877	,	-22005	,	4.181634	,	4
5,45	,	127486	,	-24863	,	-22007	,	4.109123	,	1
5,45	,	127502	,	-24869	,	-22005	,	4.662857	,	0
5,45	,	127533	,	-24872	,	-22009	,	5.5284886	,	0
5,45	,	127549	,	-24921	,	-21997	,	6.087212	,	0
5,45	,	127582	,	-24876	,	-22006	,	5.5606136	,	0
5,45	,	127598	,	-24885	,	-22016	,	3.8754485	,	0
5,45	,	127614	,	-24880	,	-22021	,	1.7359259	,	0
5,45	,	127646	,	-24902	,	-22002	,	-0.29229546	,	0
5,45	,	127662	,	-24886	,	-22016	,	-2.1015015	,	0
5,45	,	127678	,	-24903	,	-22009	,	-3.6981661	,	0
5,45	,	127709	,	-24923	,	-22008	,	-5.1881475	,	0
5,45	,	127726	,	-24889	,	-22016	,	-6.738824	,	0
5,45	,	127741	,	-24910	,	-22012	,	-8.169416	,	0
5,45	,	127773	,	-24903	,	-22011	,	-9.124343	,	0
5,45	,	127789	,	-24898	,	-22012	,	-9.4516115	,	0
5,45	,	127821	,	-24890	,	-22012	,	-9.047814	,	0
5,45	,	127837	,	-24877	,	-22006	,	-7.7535057	,	0
5,45	,	127854	,	-24880	,	-22023	,	-5.484571	,	1
5,45	,	127885	,	-24867	,	-21996	,	-2.3723664	,	3
5,45	,	127902	,	-24845	,	-21996	,	1.3761723	,	6
5,45	,	127917	,	-24865	,	-21995	,	5.5725245	,	9
5,45	,	127949	,	-24865	,	-21993	,	9.70735	,	13
5,45	,	127965	,	-24863	,	-21987	,	13.005786	,	17
5,45	,	127997	,	-24860	,	-21994	,	14.976843	,	20
5,45	,	128013	,	-24856	,	-21989	,	15.597784	,	21
5,45	,	128030	,	-24849	,	-21992	,	15.158856	,	21
5,45	,	128062	,	-24850	,	-21994	,	14.079846	,	20
5,45	,	128078	,	-24849	,	-21997	,	12.713687	,	18
5,45	,	128093	,	-24851	,	-22002	,	11.243517	,	15
5,45	,	128125	,	-24835	,	-21986	,	9.796707	,	12
5,45	,	128141	,	-24854	,	-21992	,	8.520975	,	8
5,45	,	128173	,	-24826	,	-21990	,	7.5087495	,	4
5,45	,	128189	,	-24844	,	-21994	,	6.836895	,	1
5,45	,	128205	,	-24835	,	-21993	,	6.505101	,	0
5,45	,	128237	,	-24850	,	-21995	,	6.2981524	,	0
5,45	,	128254	,	-24857	,	-21991	,	5.8518305	,	0
5,45	,	128269	,	-24851	,	-21990	,	4.8560677	,	0
5,46	,	128301	,	-24850	,	-21993	,	3.3211071	,	0
5,46	,	128317	,	-24838	,	-21985	,	1.6124382	,	0
5,46	,	128333	,	-24852	,	-21994	,	0.15455127	,	0
5,46	,	128365	,	-24847	,	-21982	,	-0.87665606	,	0
5,46	,	128381	,	-24849	,	-21996	,	-1.5315127	,	0
5,46	,	128413	,	-24847	,	-21996	,	-1.8770217	,	0
5,46	,	128429	,	-24848	,	-22000	,	-1.9583753	,	0
5,46	,	128445	,	-24866	,	-21992	,	-1.9181464	,	0
5,46	,	128477	,	-24847	,	-21992	,	-1.9839399	,	0
5,46	,	128493	,	-24872	,	-21988	,	-2.279738	,	0
5,46	,	128509	,	-24859	,	-21996	,	-2.8347142	,	0
5,46	,	128541	,	-24878	,	-22001	,	-3.670837	,	0
5,46	,	128557	,	-24868	,	-21998	,	-4.7639585	,	0
5,46	,	128589	,	-24857	,	-22001	,	-5.909021	,	0
5,46	,	128605	,	-24876	,	-21988	,	-6.748724	,	0
5,46	,	128621	,	-24834	,	-21996	,	-6.974761	,	0
5,46	,	128653	,	-24858	,	-21990	,	-6.3023453	,	0
5,46	,	128669	,	-24835	,	-21986	,	-4.604364	,	0
5,46	,	128685	,	-24836	,	-21987	,	-2.0360208	,	1
5,46	,	128717	,	-24820	,	-21980	,	1.1892662	,	3
5,46	,	128733	,	-24814	,	-21981	,	4.8886104	,	6
5,46	,	128749	,	-24807	,	-21981	,	8.854966	,	9
5,46	,	128781	,	-24833	,	-21981	,	12.6631365	,	12
5,46	,	128797	,	-24812	,	-21971	,	15.626697	,	15
5,46	,	128830	,	-24803	,	-21979	,	17.344776	,	17
5,46	,	128845	,	-24817	,	-21966	,	17.939594	,	18
5,46	,	128861	,	-24809	,	-21976	,	17.591997	,	18
5,46	,	128893	,	-24807	,	-21979	,	16.422106	,	17
5,46	,	128909	,	-24802	,	-21967	,	14.7021055	,	15
5,46	,	128925	,	-24796	,	-21972	,	12.814854	,	12
5,46	,	128957	,	-24811	,	-21974	,	11.0408945	,	9
5,46	,	128973	,	-24813	,	-21982	,	9.353703	,	6
5,46	,	129005	,	-24800	,	-21970	,	7.599234	,	3
5,46	,	129021	,	-24804	,	-21968	,	5.854844	,	1
5,46	,	129037	,	-24797	,	-21971	,	4.359629	,	0
5,46	,	129069	,	-24815	,	-21972	,	3.2086744	,	0
5,46	,	129085	,	-24804	,	-21961	,	2.266409	,	0
5,46	,	129101	,	-24800	,	-21964	,	1.4249451	,	0
5,46	,	129133	,	-24804	,	-21972	,	0.77067053	,	0
5,46	,	129149	,	-24802	,	-21973	,	0.38337147	,	0
5,46	,	129165	,	-24793	,	-21979	,	0.2769202	,	0
5,46	,	129197	,	-24802	,	-21986	,	0.4774495	,	0
5,46	,	129213	,	-24805	,	-21975	,	0.88655937	,	0
5,46	,	129245	,	-24813	,	-21984	,	1.2144367	,	0
5,46	,	129261	,	-24810	,	-21986	,	1.1748406	,	0
5,47	,	129277	,	-24804	,	-21982	,	0.71584785	,	0
5,47	,	129309	,	-24816	,	-21979	,	-0.008640051	,	0
5,47	,	129325	,	-24797	,	-21964	,	-0.80737823	,	0
5,47	,	129341	,	-24790	,	-21965	,	-1.3703748	,	0
5,47	,	129373	,	-24781	,	-21962	,	-1.2544471	,	0
5,47	,	129389	,	-24770	,	-21966	,	-0.13960013	,	0
5,47	,	129421	,	-24773	,	-21957	,	2.0015502	,	1
5,47	,	129437	,	-24767	,	-21964	,	4.8728237	,	3
5,47	,	129453	,	-24754	,	-21961	,	8.042843	,	5
5,47	,	129485	,	-24751	,	-21967	,	11.2063	,	8
5,47	,	129501	,	-24752	,	-21958	,	14.120088	,	11
5,47	,	129517	,	-24758	,	-21952	,	16.428228	,	13
5,47	,	129549	,	-24750	,	-21957	,	17.766243	,	15
5,47	,	129565	,	-24756	,	-21956	,	17.982018	,	16
5,47	,	129581	,	-24761	,	-21955	,	17.102545	,	16
5,47	,	129613	,	-24759	,	-21954	,	15.223849	,	15
5,47	,	129629	,	-24749	,	-21959	,	12.628049	,	13
5,47	,	129661	,	-24743	,	-21957	,	9.851426	,	11
5,47	,	129677	,	-24749	,	-21950	,	7.426017	,	8
5,47	,	129693	,	-24756	,	-21964	,	5.5393505	,	5
5,47	,	129725	,	-24761	,	-21957	,	4.01076	,	3
5,47	,	129741	,	-24755	,	-21965	,	2.5965993	,	1
5,47	,	129757	,	-24749	,	-21969	,	1.2825873	,	0
5,47	,	129789	,	-24760	,	-21969	,	0.22212148	,	0
5,47	,	129804	,	-24774	,	-21973	,	-0.62335324	,	0
5,47	,	129837	,	-24759	,	-21976	,	-1.5017055	,	0
5,47	,	129853	,	-24761	,	-21979	,	-2.4520104	,	0
5,47	,	129869	,	-24792	,	-21984	,	-3.392489	,	0
5,47	,	129901	,	-24773	,	-21986	,	-4.482877	,	0
5,47	,	129917	,	-24775	,	-21981	,	-5.782029	,	0
5,47	,	129933	,	-24786	,	-21983	,	-7.0364213	,	0
5,47	,	129965	,	-24786	,	-21983	,	-8.077126	,	0
5,47	,	129980	,	-24792	,	-21986	,	-8.914693	,	0
5,47	,	129996	,	-24803	,	-21985	,	-9.621343	,	0
5,47	,	130029	,	-24803	,	-21990	,	-10.322636	,	0
5,47	,	130045	,	-24783	,	-21979	,	-10.969986	,	0
5,47	,	130077	,	-24778	,	-21980	,	-11.135063	,	0
5,47	,	130093	,	-24781	,	-21970	,	-10.345212	,	0
5,47	,	130109	,	-24763	,	-21965	,	-8.465481	,	0
5,47	,	130140	,	-24748	,	-21958	,	-5.518997	,	1
5,47	,	130157	,	-24751	,	-21966	,	-1.5544877	,	3
5,47	,	130172	,	-24749	,	-21962	,	3.085829	,	6
5,47	,	130205	,	-24752	,	-21967	,	7.724379	,	10
5,47	,	130221	,	-24753	,	-21960	,	11.638607	,	14
5,47	,	130253	,	-24749	,	-21964	,	14.319323	,	17
5,47	,	130269	,	-24746	,	-21969	,	15.605385	,	19
5,48	,	130285	,	-24738	,	-21965	,	15.681078	,	20
5,48	,	130316	,	-24759	,	-21964	,	14.842435	,	20
5,48	,	130332	,	-24736	,	-21976	,	13.292116	,	19
5,48	,	130348	,	-24745	,	-21972	,	11.292885	,	17
5,48	,	130380	,	-24746	,	-21968	,	9.176256	,	14
5,48	,	130397	,	-24746	,	-21975	,	7.118867	,	10
5,48	,	130413	,	-24745	,	-21976	,	5.1990438	,	6
5,48	,	130444	,	-24736	,	-21977	,	3.5495305	,	3
5,48	,	130460	,	-24758	,	-21977	,	2.2599635	,	1
5,48	,	130492	,	-24751	,	-21976	,	1.1900604	,	0
5,48	,	130508	,	-24749	,	-21974	,	0.15639985	,	0
5,48	,	130524	,	-24753	,	-21975	,	-0.81406593	,	0
5,48	,	130557	,	-24750	,	-21972	,	-1.6207249	,	0
5,48	,	130573	,	-24753	,	-21976	,	-2.2153256	,	0
5,48	,	130588	,	-24749	,	-21970	,	-2.5765898	,	0
5,48	,	130621	,	-24747	,	-21982	,	-2.6797724	,	0
5,48	,	130637	,	-24767	,	-21978	,	-2.5804706	,	0
5,48	,	130668	,	-24763	,	-21980	,	-2.539981	,	0
5,48	,	130684	,	-24757	,	-21984	,	-2.7809098	,	0
5,48	,	130701	,	-24766	,	-21977	,	-3.2389367	,	0
5,48	,	130733	,	-24758	,	-21979	,	-3.7410145	,	0
5,48	,	130748	,	-24755	,	-21984	,	-4.1119876	,	0
5,48	,	130764	,	-24754	,	-21983	,	-4.15096	,	0
5,48	,	130796	,	-24754	,	-21969	,	-3.7551968	,	0
5,48	,	130812	,	-24724	,	-21971	,	-2.8449655	,	0
5,48	,	130844	,	-24730	,	-21967	,	-1.1866233	,	0
5,48	,	130860	,	-24720	,	-21967	,	1.3508174	,	1
5,48	,	130876	,	-24728	,	-21965	,	4.502862	,	3
5,48	,	130908	,	-24715	,	-21955	,	7.762418	,	6
5,48	,	130924	,	-24727	,	-21954	,	10.633976	,	9
5,48	,	130940	,	-24714	,	-21958	,	12.741387	,	11
5,48	,	130972	,	-24714	,	-21957	,	13.937718	,	13
5,48	,	130988	,	-24711	,	-21971	,	14.319977	,	14
5,48	,	131004	,	-24726	,	-21976	,	13.98936	,	14
5,48	,	131036	,	-24705	,	-21950	,	12.982383	,	14
5,48	,	131052	,	-24716	,	-21953	,	11.490091	,	13
5,48	,	131084	,	-24712	,	-21959	,	9.793314	,	11
5,48	,	131101	,	-24719	,	-21969	,	8.030087	,	8
5,48	,	131116	,	-24710	,	-21958	,	6.258032	,	5
5,48	,	131148	,	-24723	,	-21967	,	4.5536604	,	3
5,48	,	131164	,	-24724	,	-21960	,	2.9193742	,	1
5,48	,	131180	,	-24723	,	-21973	,	1.2917705	,	0
5,48	,	131212	,	-24732	,	-21966	,	-0.33699703	,	0
5,48	,	131228	,	-24733	,	-21961	,	-1.9512995	,	0
5,48	,	131260	,	-24723	,	-21980	,	-3.484581	,	0
5,48	,	131276	,	-24716	,	-21956	,	-4.666609	,	0
5,49	,	131292	,	-24725	,	-21968	,	-5.175011	,	0
5,49	,	131324	,	-24724	,	-21957	,	-4.965189	,	0
5,49	,	131340	,	-24738	,	-21965	,	-4.320755	,	0
5,49	,	131356	,	-24733	,	-21974	,	-3.658531	,	0
5,49	,	131388	,	-24740	,	-21964	,	-3.2879848	,	0
5,49	,	131404	,	-24730	,	-21956	,	-3.2679603	,	0
5,49	,	131420	,	-24718	,	-21959	,	-3.3675108	,	0
5,49	,	131452	,	-24731	,	-21952	,	-3.2250538	,	0
5,49	,	131468	,	-24723	,	-21962	,	-2.6957836	,	0
5,49	,	131500	,	-24717	,	-21982	,	-1.8441033	,	0
5,49	,	131516	,	-24724	,	-21947	,	-0.73903537	,	0
5,49	,	131532	,	-24716	,	-21949	,	0.4999442	,	1
5,49	,	131564	,	-24715	,	-21956	,	1.7314725	,	2
5,49	,	131580	,	-24722	,	-21950	,	2.8480937	,	3
5,49	,	131596	,	-24721	,	-21958	,	3.692261	,	4
5,49	,	131628	,	-24715	,	-21947	,	4.140613	,	4
5,49	,	131644	,	-24712	,	-21951	,	4.256169	,	4
5,49	,	131676	,	-24708	,	-21950	,	4.2290177	,	4
5,49	,	131692	,	-24714	,	-21951	,	4.2034273	,	4
5,49	,	131708	,	-24710	,	-21948	,	4.185849	,	4
5,49	,	131740	,	-24726	,	-21977	,	4.049329	,	3
5,49	,	131756	,	-24720	,	-21950	,	3.5847337	,	2
5,49	,	131772	,	-24726	,	-21958	,	2.6660004	,	1
5,49	,	131804	,	-24738	,	-21955	,	1.2975416	,	0
5,49	,	131820	,	-24732	,	-21957	,	-0.48493373	,	0
5,49	,	131836	,	-24732	,	-21956	,	-2.5081635	,	0
5,49	,	131868	,	-24733	,	-21952	,	-4.428042	,	0
5,49	,	131884	,	-24728	,	-21964	,	-5.918893	,	0
5,49	,	131916	,	-24735	,	-21966	,	-6.7870603	,	0
5,49	,	131932	,	-24739	,	-21968	,	-7.0449724	,	0
5,49	,	131948	,	-24761	,	-21964	,	-6.994517	,	0
5,49	,	131980	,	-24748	,	-21982	,	-7.0819516	,	0
5,49	,	131996	,	-24753	,	-21952	,	-7.4977903	,	0
5,49	,	132012	,	-24741	,	-21965	,	-8.02767	,	0
5,49	,	132044	,	-24728	,	-21961	,	-8.219617	,	0
5,49	,	132060	,	-24736	,	-21957	,	-7.6348753	,	0
5,49	,	132092	,	-24728	,	-21952	,	-6.1579537	,	0
5,49	,	132108	,	-24744	,	-21955	,	-4.071063	,	1
5,49	,	132124	,	-24733	,	-21956	,	-1.85288	,	3
5,49	,	132156	,	-24726	,	-21953	,	0.15058017	,	5
5,49	,	132172	,	-24727	,	-21953	,	1.89164	,	7
5,49	,	132188	,	-24732	,	-21948	,	3.3769958	,	8
5,49	,	132220	,	-24727	,	-21968	,	4.499618	,	9
5,49	,	132236	,	-24718	,	-21938	,	5.22269	,	10
5,49	,	132252	,	-24712	,	-21952	,	5.725893	,	10
5,50	,	132284	,	-24724	,	-21951	,	6.204069	,	10
5,50	,	132300	,	-24730	,	-21964	,	6.558502	,	9
5,50	,	132332	,	-24735	,	-21942	,	6.4466944	,	7
5,50	,	132348	,	-24727	,	-21939	,	5.64382	,	5
5,50	,	132364	,	-24724	,	-21947	,	4.2853312	,	3
5,50	,	132396	,	-24726	,	-21951	,	2.743506	,	2
5,50	,	132412	,	-24740	,	-21954	,	1.2699077	,	1
5,50	,	132428	,	-24743	,	-21956	,	-0.1835537	,	0
5,50	,	132460	,	-24732	,	-21967	,	-1.7065961	,	0
5,50	,	132476	,	-24725	,	-21931	,	-3.0899205	,	0
5,50	,	132508	,	-24744	,	-21955	,	-4.018123	,	0
5,50	,	132524	,	-24736	,	-21964	,	-4.4799414	,	0
5,50	,	132540	,	-24744	,	-21965	,	-4.6700945	,	0
5,50	,	132571	,	-24757	,	-21960	,	-4.803597	,	0
5,50	,	132587	,	-24755	,	-21955	,	-5.1476755	,	0
5,50	,	132603	,	-24761	,	-21961	,	-5.8625517	,	0
5,50	,	132636	,	-24761	,	-21962	,	-6.8770747	,	0
5,50	,	132652	,	-24762	,	-21967	,	-7.9887757	,	0
5,50	,	132668	,	-24756	,	-21967	,	-8.933284	,	0
5,50	,	132699	,	-24764	,	-21985	,	-9.46673	,	0
5,50	,	132715	,	-24761	,	-21951	,	-9.495111	,	0
5,50	,	132748	,	-24740	,	-21964	,	-8.958542	,	0
5,50	,	132764	,	-24750	,	-21959	,	-7.68977	,	0
5,50	,	132779	,	-24750	,	-21954	,	-5.699929	,	1
5,50	,	132812	,	-24744	,	-21956	,	-3.3180833	,	2
5,50	,	132828	,	-24743	,	-21961	,	-0.883883	,	4
5,50	,	132843	,	-24751	,	-21962	,	1.3508794	,	6
5,50	,	132875	,	-24739	,	-21953	,	3.1579075	,	8
5,50	,	132891	,	-24741	,	-21950	,	4.4528008	,	9
5,50	,	132924	,	-24737	,	-21949	,	5.3104143	,	10
5,50	,	132940	,	-24735	,	-21966	,	5.8410125	,	10
5,50	,	132956	,	-24738	,	-21933	,	6.125097	,	10
5,50	,	132987	,	-24736	,	-21955	,	6.1721926	,	9
5,50	,	133003	,	-24737	,	-21958	,	5.960877	,	8
5,50	,	133019	,	-24733	,	-21956	,	5.521312	,	6
5,50	,	133052	,	-24729	,	-21955	,	4.9637575	,	4
5,50	,	133068	,	-24746	,	-21950	,	4.372096	,	2
5,50	,	133084	,	-24735	,	-21953	,	3.6765397	,	1
5,50	,	133116	,	-24739	,	-21960	,	2.8132591	,	0
5,50	,	133131	,	-24735	,	-21958	,	1.8768923	,	0
5,50	,	133163	,	-24743	,	-21954	,	0.9845104	,	0
5,50	,	133179	,	-24742	,	-21964	,	0.15492272	,	0
5,50	,	133195	,	-24746	,	-21939	,	-0.6495538	,	0
5,50	,	133227	,	-24747	,	-21952	,	-1.4541209	,	0
5,50	,	133243	,	-24749	,	-21952	,	-2.2541907	,	0
5,50	,	133259	,	-24766	,	-21952	,	-3.0949225	,	0
5,51	,	133291	,	-24767	,	-21941	,	-4.1533895	,	0
5,51	,	133307	,	-24757	,	-21947	,	-5.5088563	,	0
5,51	,	133340	,	-24755	,	-21950	,	-6.8746166	,	0
5,51	,	133356	,	-24754	,	-21957	,	-7.805051	,	0
5,51	,	133372	,	-24760	,	-21954	,	-8.062764	,	0
5,51	,	133403	,	-24766	,	-21953	,	-7.733918	,	0
5,51	,	133419	,	-24774	,	-21969	,	-7.1440554	,	0
5,51	,	133436	,	-24771	,	-21946	,	-6.648478	,	0
5,51	,	133467	,	-24769	,	-21950	,	-6.391614	,	0
5,51	,	133483	,	-24766	,	-21956	,	-6.260145	,	0
5,51	,	133499	,	-24763	,	-21970	,	-6.035304	,	0
5,51	,	133531	,	-24756	,	-21957	,	-5.5062103	,	0
5,51	,	133547	,	-24772	,	-21960	,	-4.5923424	,	0
5,51	,	133579	,	-24763	,	-21964	,	-3.4644547	,	0
5,51	,	133595	,	-24764	,	-21954	,	-2.3648372	,	1
5,51	,	133611	,	-24751	,	-21954	,	-1.3389456	,	2
5,51	,	133643	,	-24756	,	-21956	,	-0.26686537	,	3
5,51	,	133659	,	-24752	,	-21954	,	0.92049706	,	4
5,51	,	133675	,	-24751	,	-21940	,	2.1566045	,	5
5,51	,	133707	,	-24760	,	-21942	,	3.2824416	,	6
5,51	,	133723	,	-24744	,	-21945	,	4.13453	,	7
5,51	,	133755	,	-24754	,	-21943	,	4.681363	,	7
5,51	,	133771	,	-24756	,	-21940	,	4.937314	,	7
5,51	,	133787	,	-24755	,	-21947	,	4.8380036	,	6
5,51	,	133819	,	-24757	,	-21936	,	4.3633757	,	5
5,51	,	133835	,	-24758	,	-21947	,	3.5849056	,	4
5,51	,	133851	,	-24759	,	-21947	,	2.5965998	,	3
5,51	,	133883	,	-24754	,	-21947	,	1.5179496	,	2
5,51	,	133899	,	-24758	,	-21954	,	0.5049815	,	1
5,51	,	133915	,	-24772	,	-21931	,	-0.38598025	,	0
5,51	,	133947	,	-24757	,	-21951	,	-1.2445879	,	0
5,51	,	133963	,	-24770	,	-21943	,	-2.0961282	,	0
5,51	,	133995	,	-24772	,	-21931	,	-2.9122586	,	0
5,51	,	134011	,	-24770	,	-21937	,	-3.7257733	,	0
5,51	,	134027	,	-24782	,	-21944	,	-4.5557876	,	0
5,51	,	134059	,	-24770	,	-21943	,	-5.3809395	,	0
5,51	,	134075	,	-24781	,	-21944	,	-6.113246	,	0
5,51	,	134091	,	-24784	,	-21949	,	-6.667407	,	0
5,51	,	134123	,	-24802	,	-21954	,	-7.152721	,	0
5,51	,	134139	,	-24799	,	-21966	,	-7.8288374	,	0
5,51	,	134171	,	-24769	,	-21941	,	-8.670373	,	0
5,51	,	134187	,	-24801	,	-21957	,	-9.238354	,	0
5,51	,	134203	,	-24789	,	-21952	,	-9.2777195	,	0
5,51	,	134235	,	-24779	,	-21958	,	-8.832886	,	0
5,51	,	134251	,	-24777	,	-21944	,	-7.82511	,	0
5,52	,	134283	,	-24772	,	-21941	,	-6.1420546	,	1
5,52	,	134299	,	-24771	,	-21943	,	-3.8593535	,	2
5,52	,	134315	,	-24782	,	-21944	,	-1.2696254	,	4
5,52	,	134347	,	-24774	,	-21942	,	1.1746602	,	6
5,52	,	134363	,	-24770	,	-21945	,	3.1377378	,	8
5,52	,	134379	,	-24774	,	-21960	,	4.5453854	,	9
5,52	,	134411	,	-24771	,	-21939	,	5.414542	,	10
5,52	,	134427	,	-24772	,	-21949	,	5.764749	,	10
5,52	,	134443	,	-24769	,	-21950	,	5.6709623	,	10
5,52	,	134475	,	-24781	,	-21953	,	5.213357	,	9
5,52	,	134491	,	-24768	,	-21948	,	4.431828	,	8
5,52	,	134523	,	-24774	,	-21944	,	3.4425273	,	6
5,52	,	134539	,	-24763	,	-21951	,	2.4796827	,	4
5,52	,	134555	,	-24766	,	-21943	,	1.7852039	,	2
5,52	,	134587	,	-24781	,	-21938	,	1.4115082	,	1
5,52	,	134603	,	-24780	,	-21952	,	1.1017379	,	0
5,52	,	134619	,	-24786	,	-21940	,	0.53055847	,	0
5,52	,	134651	,	-24787	,	-21946	,	-0.4336735	,	0
5,52	,	134667	,	-24777	,	-21947	,	-1.6826377	,	0
5,52	,	134699	,	-24779	,	-21949	,	-2.9002383	,	0
5,52	,	134715	,	-24780	,	-21947	,	-3.7690306	,	0
5,52	,	134731	,	-24798	,	-21960	,	-4.246696	,	0
5,52	,	134763	,	-24802	,	-21953	,	-4.627947	,	0
5,52	,	134779	,	-24782	,	-21946	,	-5.1672826	,	0
5,52	,	134795	,	-24788	,	-21948	,	-5.6879034	,	0
5,52	,	134827	,	-24794	,	-21955	,	-5.8810043	,	0
5,52	,	134843	,	-24799	,	-21965	,	-5.753052	,	0
5,52	,	134859	,	-24796	,	-21940	,	-5.5080914	,	0
5,52	,	134891	,	-24789	,	-21953	,	-5.224369	,	0
5,52	,	134907	,	-24803	,	-21958	,	-4.8519955	,	0
5,52	,	134939	,	-24813	,	-21966	,	-4.502632	,	0
5,52	,	134955	,	-24823	,	-21963	,	-4.5283995	,	0
5,52	,	134971	,	-24812	,	-21960	,	-5.1780176	,	0
5,52	,	135003	,	-24800	,	-21961	,	-6.2209587	,	0
5,52	,	135019	,	-24806	,	-21956	,	-7.072158	,	0
5,52	,	135035	,	-24802	,	-21945	,	-7.297036	,	0
5,52	,	135067	,	-24791	,	-21950	,	-6.752795	,	0
5,52	,	135083	,	-24796	,	-21966	,	-5.427541	,	0
5,52	,	135114	,	-24793	,	-21946	,	-3.4780028	,	1
5,52	,	135131	,	-24791	,	-21961	,	-1.2210557	,	2
5,52	,	135146	,	-24790	,	-21943	,	1.0343494	,	4
5,52	,	135179	,	-24801	,	-21956	,	2.9958029	,	6
5,52	,	135195	,	-24793	,	-21952	,	4.362104	,	7
5,52	,	135211	,	-24801	,	-21954	,	4.9662275	,	8
5,52	,	135243	,	-24795	,	-21957	,	4.8441434	,	8
5,52	,	135259	,	-24794	,	-21958	,	4.181898	,	8
5,52	,	135274	,	-24806	,	-21955	,	3.1980197	,	8
5,53	,	135307	,	-24806	,	-21956	,	1.9760907	,	7
5,53	,	135323	,	-24804	,	-21961	,	0.53988254	,	6
5,53	,	135355	,	-24794	,	-21943	,	-0.91578317	,	4
5,53	,	135371	,	-24805	,	-21950	,	-2.0838501	,	2
5,53	,	135387	,	-24800	,	-21959	,	-2.8085625	,	1
5,53	,	135419	,	-24798	,	-21955	,	-3.102333	,	0
5,53	,	135435	,	-24814	,	-21957	,	-3.071767	,	0
5,53	,	135450	,	-24810	,	-21960	,	-2.968895	,	0
5,53	,	135482	,	-24807	,	-21969	,	-3.0047812	,	0
5,53	,	135498	,	-24820	,	-21959	,	-3.2003994	,	0
5,53	,	135531	,	-24807	,	-21967	,	-3.5237541	,	0
5,53	,	135547	,	-24826	,	-21964	,	-3.939356	,	0
5,53	,	135563	,	-24819	,	-21982	,	-4.4410706	,	0
5,53	,	135595	,	-24819	,	-21960	,	-5.0099416	,	0
5,53	,	135611	,	-24826	,	-21969	,	-5.5374737	,	0
5,53	,	135627	,	-24822	,	-21967	,	-5.940562	,	0
5,53	,	135658	,	-24829	,	-21977	,	-6.1970944	,	0
5,53	,	135674	,	-24830	,	-21973	,	-6.323077	,	0
5,53	,	135707	,	-24835	,	-21974	,	-6.3922434	,	0
5,53	,	135723	,	-24817	,	-21970	,	-6.393833	,	0
5,53	,	135738	,	-24832	,	-21978	,	-6.159125	,	0
5,53	,	135770	,	-24804	,	-21973	,	-5.502405	,	0
5,53	,	135787	,	-24817	,	-21972	,	-4.275607	,	0
5,53	,	135803	,	-24805	,	-21977	,	-2.449338	,	1
5,53	,	135834	,	-24822	,	-21956	,	-0.26325512	,	2
5,53	,	135850	,	-24814	,	-21962	,	1.8362999	,	4
5,53	,	135866	,	-24811	,	-21959	,	3.4812145	,	6
5,53	,	135898	,	-24802	,	-21954	,	4.622921	,	7
5,53	,	135915	,	-24814	,	-21959	,	5.390668	,	8
5,53	,	135947	,	-24810	,	-21960	,	5.797596	,	8
5,53	,	135962	,	-24802	,	-21960	,	5.8141146	,	8
5,53	,	135979	,	-24806	,	-21962	,	5.5620904	,	8
5,53	,	136011	,	-24807	,	-21953	,	5.180462	,	7
5,53	,	136027	,	-24804	,	-21960	,	4.696251	,	6
5,53	,	136043	,	-24824	,	-21964	,	4.0436974	,	4
5,53	,	136074	,	-24808	,	-21949	,	3.090439	,	2
5,53	,	136090	,	-24820	,	-21957	,	1.8217013	,	1
5,53	,	136122	,	-24813	,	-21957	,	0.39722645	,	0
5,53	,	136138	,	-24814	,	-21956	,	-0.9728843	,	0
5,53	,	136155	,	-24807	,	-21951	,	-2.0480728	,	0
5,53	,	136187	,	-24806	,	-21953	,	-2.6037734	,	0
5,53	,	136203	,	-24810	,	-21953	,	-2.559817	,	0
5,53	,	136218	,	-24801	,	-21958	,	-2.0069895	,	0
5,53	,	136250	,	-24822	,	-21958	,	-1.1680113	,	0
5,53	,	136266	,	-24820	,	-21960	,	-0.42602825	,	0
5,54	,	136282	,	-24820	,	-21966	,	-0.14718425	,	0
5,54	,	136314	,	-24826	,	-21955	,	-0.430983	,	0
5,54	,	136330	,	-24822	,	-21965	,	-1.1780494	,	0
5,54	,	136362	,	-24822	,	-21968	,	-2.1821768	,	0
5,54	,	136378	,	-24823	,	-21962	,	-3.1719189	,	0
5,54	,	136394	,	-24801	,	-21956	,	-3.8316395	,	0
5,54	,	136426	,	-24817	,	-21955	,	-3.8293266	,	0
5,54	,	136442	,	-24813	,	-21953	,	-3.1001854	,	0
5,54	,	136458	,	-24802	,	-21964	,	-1.8763542	,	0
5,54	,	136490	,	-24794	,	-21956	,	-0.2930925	,	1
5,54	,	136506	,	-24798	,	-21961	,	1.6422242	,	2
5,54	,	136539	,	-24816	,	-21959	,	3.6744597	,	3
5,54	,	136554	,	-24802	,	-21951	,	5.2803435	,	5
5,54	,	136570	,	-24791	,	-21948	,	6.1972322	,	6
5,54	,	136602	,	-24789	,	-21957	,	6.6624455	,	6
5,54	,	136618	,	-24792	,	-21960	,	6.998934	,	6
5,54	,	136634	,	-24801	,	-21953	,	7.2348456	,	6
5,54	,	136666	,	-24803	,	-21955	,	7.1398215	,	6
5,54	,	136682	,	-24796	,	-21949	,	6.531029	,	5
5,54	,	136698	,	-24781	,	-21950	,	5.572164	,	4
5,54	,	136730	,	-24796	,	-21949	,	4.6628046	,	3
5,54	,	136746	,	-24784	,	-21951	,	4.035409	,	1
5,54	,	136778	,	-24799	,	-21956	,	3.6430683	,	0
5,54	,	136794	,	-24799	,	-21952	,	3.273766	,	0
5,54	,	136810	,	-24785	,	-21956	,	2.7626977	,	0
5,54	,	136842	,	-24791	,	-21954	,	2.2102523	,	0
5,54	,	136858	,	-24786	,	-21954	,	1.811291	,	0
5,54	,	136874	,	-24790	,	-21967	,	1.6210703	,	0
5,54	,	136906	,	-24797	,	-21957	,	1.5487797	,	0
5,54	,	136922	,	-24792	,	-21965	,	1.4240888	,	0
5,54	,	136954	,	-24801	,	-21957	,	1.1190126	,	0
5,54	,	136970	,	-24798	,	-21964	,	0.5843143	,	0
5,54	,	136986	,	-24813	,	-21960	,	-0.2226674	,	0
5,54	,	137018	,	-24805	,	-21968	,	-1.34688	,	0
5,54	,	137034	,	-24810	,	-21968	,	-2.714187	,	0
5,54	,	137050	,	-24814	,	-21967	,	-4.1279073	,	0
5,54	,	137082	,	-24817	,	-21974	,	-5.44295	,	0
5,54	,	137098	,	-24822	,	-21974	,	-6.6117783	,	0
5,54	,	137114	,	-24805	,	-21977	,	-7.5410643	,	0
5,54	,	137146	,	-24812	,	-21974	,	-7.990253	,	0
5,54	,	137162	,	-24800	,	-21962	,	-7.7156367	,	0
5,54	,	137194	,	-24800	,	-21960	,	-6.629055	,	0
5,54	,	137210	,	-24799	,	-21962	,	-4.819927	,	1
5,54	,	137226	,	-24802	,	-21962	,	-2.5717785	,	2
5,54	,	137258	,	-24792	,	-21963	,	-0.23892474	,	4
5,54	,	137274	,	-24776	,	-21963	,	2.0330951	,	6
5,55	,	137290	,	-24777	,	-21949	,	4.3529506	,	8
5,55	,	137322	,	-24767	,	-21949	,	6.8039565	,	10
5,55	,	137338	,	-24768	,	-21945	,	9.289458	,	12
5,55	,	137370	,	-24768	,	-21953	,	11.577325	,	14
5,55	,	137387	,	-24764	,	-21945	,	13.3790245	,	16
5,55	,	137402	,	-24761	,	-21950	,	14.502081	,	16
5,55	,	137434	,	-24760	,	-21951	,	14.921473	,	16
5,55	,	137450	,	-24766	,	-21949	,	14.674147	,	14
5,55	,	137466	,	-24752	,	-21942	,	13.826345	,	12
5,55	,	137498	,	-24768	,	-21944	,	12.520214	,	10
5,55	,	137514	,	-24767	,	-21954	,	10.84474	,	8
5,55	,	137530	,	-24784	,	-21939	,	8.728624	,	6
5,55	,	137562	,	-24775	,	-21937	,	6.093191	,	4
5,55	,	137578	,	-24778	,	-21947	,	3.0858254	,	2
5,55	,	137610	,	-24781	,	-21949	,	0.061150074	,	1
5,55	,	137626	,	-24778	,	-21951	,	-2.6436083	,	0
5,55	,	137642	,	-24778	,	-21955	,	-4.7729945	,	0
5,55	,	137674	,	-24781	,	-21947	,	-6.1635447	,	0
5,55	,	137690	,	-24793	,	-21956	,	-6.871606	,	0
5,55	,	137706	,	-24793	,	-21947	,	-7.1815424	,	0
5,55	,	137738	,	-24790	,	-21951	,	-7.3578863	,	0
5,55	,	137754	,	-24788	,	-21962	,	-7.427692	,	0
5,55	,	137786	,	-24780	,	-21949	,	-7.224374	,	0
5,55	,	137802	,	-24790	,	-21957	,	-6.5935636	,	0
5,55	,	137818	,	-24790	,	-21952	,	-5.597175	,	0
5,55	,	137850	,	-24793	,	-21944	,	-4.486943	,	0
5,55	,	137866	,	-24783	,	-21946	,	-3.4577572	,	1
5,55	,	137882	,	-24780	,	-21949	,	-2.48709	,	2
5,55	,	137914	,	-24780	,	-21947	,	-1.4383316	,	2
5,55	,	137930	,	-24761	,	-21947	,	-0.18133247	,	3
5,55	,	137946	,	-24769	,	-21936	,	1.4068651	,	4
5,55	,	137977	,	-24753	,	-21931	,	3.3500085	,	5
5,55	,	137993	,	-24757	,	-21948	,	5.540718	,	6
5,55	,	138026	,	-24762	,	-21924	,	7.742849	,	8
5,55	,	138042	,	-24743	,	-21923	,	9.641975	,	10
5,55	,	138058	,	-24750	,	-21922	,	11.091587	,	10
5,55	,	138090	,	-24737	,	-21924	,	12.130089	,	10
5,55	,	138106	,	-24744	,	-21924	,	12.805485	,	11
5,55	,	138122	,	-24730	,	-21917	,	13.1514225	,	10
5,55	,	138154	,	-24738	,	-21913	,	13.215481	,	9
5,55	,	138170	,	-24720	,	-21927	,	13.073202	,	8
5,55	,	138201	,	-24719	,	-21920	,	12.879051	,	7
5,55	,	138217	,	-24728	,	-21922	,	12.74979	,	5
5,55	,	138234	,	-24733	,	-21935	,	12.519217	,	3
5,55	,	138266	,	-24733	,	-21903	,	11.855114	,	2
5,56	,	138282	,	-24743	,	-21923	,	10.542464	,	1
5,56	,	138298	,	-24740	,	-21918	,	8.537724	,	0
5,56	,	138329	,	-24751	,	-21922	,	5.940098	,	0
5,56	,	138345	,	-24734	,	-21919	,	3.0114913	,	0
5,56	,	138361	,	-24739	,	-21918	,	0.20278502	,	0
5,56	,	138393	,	-24740	,	-21915	,	-2.037549	,	0
5,56	,	138410	,	-24743	,	-21918	,	-3.5304787	,	0
5,56	,	138442	,	-24750	,	-21922	,	-4.3706145	,	0
5,56	,	138458	,	-24738	,	-21922	,	-4.73997	,	0
5,56	,	138474	,	-24755	,	-21935	,	-4.7761817	,	0
5,56	,	138505	,	-24745	,	-21914	,	-4.6259613	,	0
5,56	,	138521	,	-24746	,	-21935	,	-4.401618	,	0
5,56	,	138537	,	-24751	,	-21933	,	-4.102128	,	0
5,56	,	138569	,	-24753	,	-21928	,	-3.7610338	,	0
5,56	,	138586	,	-24756	,	-21933	,	-3.4956026	,	0
5,56	,	138618	,	-24763	,	-21931	,	-3.4290023	,	0
5,56	,	138634	,	-24746	,	-21927	,	-3.5802133	,	0
5,56	,	138650	,	-24744	,	-21927	,	-3.7082293	,	0
5,56	,	138681	,	-24748	,	-21920	,	-3.480601	,	0
5,56	,	138697	,	-24747	,	-21921	,	-2.81848	,	0
5,56	,	138714	,	-24730	,	-21932	,	-1.7973982	,	0
5,56	,	138745	,	-24727	,	-21903	,	-0.36111236	,	1
5,56	,	138761	,	-24715	,	-21913	,	1.616417	,	2
5,56	,	138777	,	-24719	,	-21907	,	4.117036	,	3
5,56	,	138809	,	-24714	,	-21911	,	6.8904586	,	5
5,56	,	138826	,	-24720	,	-21915	,	9.512326	,	7
5,56	,	138857	,	-24726	,	-21908	,	11.50129	,	9
5,56	,	138873	,	-24716	,	-21912	,	12.494407	,	10
5,56	,	138889	,	-24712	,	-21903	,	12.482218	,	10
5,56	,	138921	,	-24716	,	-21904	,	11.751118	,	10
5,56	,	138937	,	-24718	,	-21913	,	10.559454	,	9
5,56	,	138953	,	-24720	,	-21932	,	9.027786	,	8
5,56	,	138985	,	-24717	,	-21893	,	7.2556443	,	7
5,56	,	139001	,	-24715	,	-21910	,	5.4146123	,	5
5,56	,	139033	,	-24717	,	-21915	,	3.7149172	,	3
5,56	,	139049	,	-24709	,	-21923	,	2.332627	,	1
5,56	,	139065	,	-24713	,	-21916	,	1.3930268	,	0
5,56	,	139097	,	-24713	,	-21915	,	0.910619	,	0
5,56	,	139113	,	-24723	,	-21918	,	0.7184408	,	0
5,56	,	139129	,	-24722	,	-21916	,	0.5359068	,	0
5,56	,	139161	,	-24727	,	-21908	,	0.13661739	,	0
5,56	,	139177	,	-24726	,	-21917	,	-0.55051804	,	0
5,56	,	139193	,	-24727	,	-21931	,	-1.4568102	,	0
5,56	,	139225	,	-24731	,	-21901	,	-2.4477608	,	0
5,56	,	139241	,	-24724	,	-21919	,	-3.3832722	,	0
5,57	,	139273	,	-24722	,	-21918	,	-4.0862775	,	0
5,57	,	139289	,	-24728	,	-21924	,	-4.38924	,	0
5,57	,	139305	,	-24727	,	-21921	,	-4.283477	,	0
5,57	,	139337	,	-24731	,	-21925	,	-3.9093933	,	0
5,57	,	139353	,	-24740	,	-21920	,	-3.486308	,	0
5,57	,	139369	,	-24744	,	-21932	,	-3.2895355	,	0
5,57	,	139401	,	-24747	,	-21925	,	-3.529201	,	0
5,57	,	139417	,	-24732	,	-21925	,	-4.1536527	,	0
5,57	,	139449	,	-24720	,	-21939	,	-4.740235	,	0
5,57	,	139465	,	-24727	,	-21910	,	-4.7422514	,	0
5,57	,	139481	,	-24719	,	-21925	,	-3.9223466	,	0
5,57	,	139513	,	-24704	,	-21921	,	-2.3193326	,	0
5,57	,	139529	,	-24708	,	-21912	,	-0.0016167164	,	1
5,57	,	139545	,	-24704	,	-21920	,	2.829803	,	3
5,57	,	139577	,	-24716	,	-21922	,	5.718436	,	5
5,57	,	139593	,	-24692	,	-21913	,	8.183128	,	7
5,57	,	139609	,	-24699	,	-21919	,	10.047592	,	9
5,57	,	139641	,	-24713	,	-21916	,	11.275083	,	10
5,57	,	139657	,	-24709	,	-21922	,	11.650631	,	11
5,57	,	139689	,	-24702	,	-21921	,	11.050518	,	11
5,57	,	139705	,	-24709	,	-21887	,	9.690922	,	11
5,57	,	139721	,	-24710	,	-21904	,	7.8761034	,	10
5,57	,	139753	,	-24708	,	-21915	,	5.828341	,	8
5,57	,	139769	,	-24701	,	-21914	,	3.795321	,	6
5,57	,	139785	,	-24708	,	-21921	,	2.053132	,	4
5,57	,	139817	,	-24714	,	-21910	,	0.70666265	,	2
5,57	,	139833	,	-24708	,	-21914	,	-0.33861077	,	1
5,57	,	139865	,	-24704	,	-21912	,	-1.1321084	,	0
5,57	,	139881	,	-24709	,	-21918	,	-1.6028911	,	0
5,57	,	139897	,	-24717	,	-21928	,	-1.7771013	,	0
5,57	,	139929	,	-24714	,	-21930	,	-1.8517036	,	0
5,57	,	139945	,	-24714	,	-21901	,	-1.9818513	,	0
5,57	,	139961	,	-24736	,	-21928	,	-2.2643478	,	0
5,57	,	139993	,	-24735	,	-21923	,	-2.9251382	,	0
5,57	,	140009	,	-24732	,	-21926	,	-4.119454	,	0
5,57	,	140041	,	-24736	,	-21926	,	-5.6600637	,	0
5,57	,	140057	,	-24732	,	-21932	,	-7.180543	,	0
5,57	,	140073	,	-24746	,	-21930	,	-8.407642	,	0
5,57	,	140105	,	-24747	,	-21934	,	-9.300639	,	0
5,57	,	140121	,	-24744	,	-21936	,	-9.942532	,	0
5,57	,	140137	,	-24743	,	-21935	,	-10.298045	,	0
5,57	,	140169	,	-24738	,	-21950	,	-10.207357	,	0
5,57	,	140185	,	-24720	,	-21917	,	-9.449875	,	0
5,57	,	140201	,	-24730	,	-21928	,	-7.8190365	,	0
5,57	,	140233	,	-24731	,	-21923	,	-5.413559	,	1
5,57	,	140249	,	-24731	,	-21927	,	-2.700769	,	3
5,57	,	140281	,	-24728	,	-21926	,	-0.16807985	,	5
5,58	,	140297	,	-24715	,	-21923	,	1.9642642	,	7
5,58	,	140313	,	-24710	,	-21919	,	3.7892365	,	9
5,58	,	140345	,	-24717	,	-21924	,	5.474316	,	10
5,58	,	140361	,	-24719	,	-21919	,	6.9402084	,	11
5,58	,	140377	,	-24703	,	-21921	,	7.9863734	,	12
5,58	,	140409	,	-24716	,	-21929	,	8.587179	,	13
5,58	,	140424	,	-24716	,	-21903	,	8.759346	,	12
5,58	,	140457	,	-24708	,	-21917	,	8.463001	,	10
5,58	,	140473	,	-24713	,	-21918	,	7.77436	,	8
5,58	,	140489	,	-24710	,	-21915	,	6.8451743	,	6
5,58	,	140521	,	-24718	,	-21918	,	5.7631626	,	4
5,58	,	140537	,	-24712	,	-21922	,	4.56176	,	3
5,58	,	140553	,	-24708	,	-21925	,	3.3287928	,	2
5,58	,	140585	,	-24713	,	-21924	,	2.2337313	,	1
5,58	,	140601	,	-24714	,	-21934	,	1.3728988	,	0
5,58	,	140617	,	-24716	,	-21928	,	0.70570767	,	0
5,58	,	140649	,	-24725	,	-21934	,	0.10780966	,	0
5,58	,	140665	,	-24722	,	-21916	,	-0.57819384	,	0
5,58	,	140697	,	-24719	,	-21922	,	-1.388768	,	0
5,58	,	140713	,	-24740	,	-21925	,	-2.2696397	,	0
5,58	,	140729	,	-24729	,	-21932	,	-3.272352	,	0
5,58	,	140761	,	-24725	,	-21936	,	-4.3654833	,	0
5,58	,	140777	,	-24740	,	-21935	,	-5.334687	,	0
5,58	,	140793	,	-24739	,	-21941	,	-6.107187	,	0
5,58	,	140825	,	-24744	,	-21937	,	-6.778892	,	0
5,58	,	140841	,	-24754	,	-21939	,	-7.4452553	,	0
5,58	,	140873	,	-24742	,	-21935	,	-8.144918	,	0
5,58	,	140889	,	-24748	,	-21945	,	-8.749289	,	0
5,58	,	140905	,	-24733	,	-21919	,	-8.987052	,	0
5,58	,	140936	,	-24738	,	-21932	,	-8.601981	,	0
5,58	,	140953	,	-24717	,	-21927	,	-7.4193506	,	0
5,58	,	140968	,	-24723	,	-21930	,	-5.3599973	,	1
5,58	,	141001	,	-24714	,	-21929	,	-2.53259	,	3
5,58	,	141017	,	-24712	,	-21925	,	0.75243664	,	5
5,58	,	141033	,	-24725	,	-21926	,	4.0604115	,	8
5,58	,	141064	,	-24721	,	-21928	,	6.84854	,	11
5,58	,	141080	,	-24714	,	-21926	,	8.697959	,	13
5,58	,	141112	,	-24727	,	-21917	,	9.510391	,	14
5,58	,	141128	,	-24707	,	-21925	,	9.401407	,	14
5,58	,	141144	,	-24720	,	-21907	,	8.647408	,	14
5,58	,	141176	,	-24712	,	-21925	,	7.5654144	,	13
5,58	,	141192	,	-24709	,	-21919	,	6.395311	,	11
5,58	,	141208	,	-24729	,	-21921	,	5.260875	,	9
5,58	,	141241	,	-24711	,	-21923	,	4.109955	,	6
5,58	,	141257	,	-24719	,	-21925	,	2.9264321	,	3
5,59	,	141288	,	-24715	,	-21926	,	1.8436074	,	1
5,59	,	141304	,	-24723	,	-21919	,	0.93780684	,	0
5,59	,	141320	,	-24720	,	-21931	,	0.17089546	,	0
5,59	,	141352	,	-24734	,	-21926	,	-0.5617708	,	0
5,59	,	141368	,	-24733	,	-21933	,	-1.4258263	,	0
5,59	,	141385	,	-24731	,	-21919	,	-2.508727	,	0
5,59	,	141417	,	-24730	,	-21935	,	-3.6711423	,	0
5,59	,	141433	,	-24731	,	-21932	,	-4.6604238	,	0
5,59	,	141449	,	-24735	,	-21934	,	-5.3136616	,	0
5,59	,	141480	,	-24737	,	-21933	,	-5.6283975	,	0
5,59	,	141496	,	-24742	,	-21937	,	-5.7241178	,	0
5,59	,	141528	,	-24741	,	-21940	,	-5.7450075	,	0
5,59	,	141544	,	-24743	,	-21936	,	-5.761779	,	0
5,59	,	141560	,	-24749	,	-21939	,	-5.7888513	,	0
5,59	,	141592	,	-24750	,	-21944	,	-5.8727922	,	0
5,59	,	141608	,	-24759	,	-21947	,	-6.093672	,	0
5,59	,	141624	,	-24748	,	-21940	,	-6.4699183	,	0
5,59	,	141656	,	-24737	,	-21935	,	-6.791066	,	0
5,59	,	141672	,	-24728	,	-21935	,	-6.5987787	,	0
5,59	,	141704	,	-24727	,	-21940	,	-5.491945	,	0
5,59	,	141720	,	-24724	,	-21935	,	-3.4224868	,	1
5,59	,	141736	,	-24735	,	-21933	,	-0.7298939	,	3
5,59	,	141768	,	-24718	,	-21934	,	2.0696437	,	5
5,59	,	141784	,	-24722	,	-21932	,	4.60844	,	7
5,59	,	141800	,	-24728	,	-21930	,	6.678419	,	9
5,59	,	141832	,	-24709	,	-21933	,	8.131961	,	11
5,59	,	141848	,	-24733	,	-21942	,	8.94498	,	12
5,59	,	141864	,	-24728	,	-21933	,	9.057325	,	12
5,59	,	141896	,	-24736	,	-21932	,	8.329622	,	12
5,59	,	141912	,	-24730	,	-21939	,	6.793931	,	11
5,59	,	141944	,	-24736	,	-21932	,	4.7027206	,	9
5,59	,	141960	,	-24726	,	-21926	,	2.4253938	,	7
5,59	,	141976	,	-24731	,	-21931	,	0.35521817	,	5
5,59	,	142008	,	-24721	,	-21935	,	-1.1868012	,	3
5,59	,	142024	,	-24727	,	-21932	,	-2.0201144	,	1
5,59	,	142040	,	-24730	,	-21935	,	-2.180313	,	0
5,59	,	142072	,	-24735	,	-21936	,	-1.9277728	,	0
5,59	,	142088	,	-24734	,	-21936	,	-1.582999	,	0
5,59	,	142120	,	-24731	,	-21933	,	-1.3353064	,	0
5,59	,	142136	,	-24743	,	-21939	,	-1.2514696	,	0
5,59	,	142152	,	-24736	,	-21934	,	-1.388418	,	0
5,59	,	142184	,	-24730	,	-21931	,	-1.6989217	,	0
5,59	,	142200	,	-24739	,	-21938	,	-1.9897894	,	0
5,59	,	142216	,	-24740	,	-21941	,	-2.167435	,	0
5,59	,	142248	,	-24742	,	-21940	,	-2.3063836	,	0
5,59	,	142264	,	-24753	,	-21946	,	-2.534429	,	0
6,0	,	142280	,	-24752	,	-21946	,	-3.0008965	,	0
6,0	,	142312	,	-24744	,	-21938	,	-3.7290254	,	0
6,0	,	142328	,	-24760	,	-21947	,	-4.555578	,	0
6,0	,	142360	,	-24749	,	-21953	,	-5.335266	,	0
6,0	,	142376	,	-24782	,	-21946	,	-6.0987673	,	0
6,0	,	142392	,	-24754	,	-21950	,	-6.9861517	,	0
6,0	,	142424	,	-24741	,	-21936	,	-7.8154693	,	0
6,0	,	142440	,	-24742	,	-21946	,	-7.976463	,	0
6,0	,	142456	,	-24745	,	-21944	,	-7.077362	,	0
6,0	,	142488	,	-24731	,	-21940	,	-5.216297	,	0
6,0	,	142504	,	-24741	,	-21945	,	-2.6887887	,	1
6,0	,	142536	,	-24745	,	-21943	,	0.06453276	,	3
6,0	,	142552	,	-24739	,	-21944	,	2.5115018	,	5
6,0	,	142568	,	-24740	,	-21941	,	4.316825	,	7
6,0	,	142600	,	-24745	,	-21946	,	5.379806	,	8
6,0	,	142616	,	-24737	,	-21944	,	5.7137656	,	9
6,0	,	142632	,	-24748	,	-21946	,	5.4288216	,	9
6,0	,	142664	,	-24748	,	-21945	,	4.6320963	,	9
6,0	,	142680	,	-24734	,	-21943	,	3.4636536	,	9
6,0	,	142696	,	-24741	,	-21942	,	2.23797	,	8
6,0	,	142728	,	-24742	,	-21939	,	1.2403061	,	6
6,0	,	142744	,	-24750	,	-21951	,	0.4916711	,	4
6,0	,	142776	,	-24735	,	-21938	,	-0.095323205	,	2
6,0	,	142792	,	-24751	,	-21946	,	-0.5261224	,	1
6,0	,	142808	,	-24739	,	-21942	,	-0.8005528	,	0
6,0	,	142840	,	-24744	,	-21950	,	-0.9406823	,	0
6,0	,	142856	,	-24748	,	-21935	,	-0.9621213	,	0
6,0	,	142872	,	-24755	,	-21942	,	-0.98305357	,	0
6,0	,	142904	,	-24742	,	-21946	,	-1.1436203	,	0
6,0	,	142920	,	-24748	,	-21942	,	-1.3974861	,	0
6,0	,	142952	,	-24758	,	-21941	,	-1.6540927	,	0
6,0	,	142968	,	-24755	,	-21933	,	-1.9839865	,	0
6,0	,	142984	,	-24768	,	-21944	,	-2.514262	,	0
6,0	,	143016	,	-24766	,	-21938	,	-3.329278	,	0
6,0	,	143032	,	-24775	,	-21949	,	-4.4529595	,	0
6,0	,	143048	,	-24782	,	-21945	,	-5.8510895	,	0
6,0	,	143080	,	-24775	,	-21960	,	-7.4282594	,	0
6,0	,	143096	,	-24791	,	-21935	,	-9.000593	,	0
6,0	,	143112	,	-24791	,	-21953	,	-10.432505	,	0
6,0	,	143144	,	-24788	,	-21954	,	-11.654592	,	0
6,0	,	143160	,	-24789	,	-21958	,	-12.502222	,	0
6,0	,	143192	,	-24781	,	-21948	,	-12.751965	,	0
6,0	,	143208	,	-24784	,	-21950	,	-12.2495365	,	0
6,0	,	143224	,	-24776	,	-21944	,	-10.967422	,	0
6,0	,	143256	,	-24769	,	-21952	,	-8.962353	,	1
6,0	,	143272	,	-24779	,	-21950	,	-6.3725686	,	3
6,1	,	143287	,	-24770	,	-21945	,	-3.5041838	,	5
6,1	,	143320	,	-24773	,	-21962	,	-0.7217541	,	7
6,1	,	143336	,	-24779	,	-21941	,	1.6654558	,	9
6,1	,	143367	,	-24763	,	-21947	,	3.4463215	,	11
6,1	,	143384	,	-24771	,	-21952	,	4.6344633	,	12
6,1	,	143400	,	-24776	,	-21951	,	5.3166194	,	13
6,1	,	143431	,	-24770	,	-21954	,	5.470766	,	13
6,1	,	143448	,	-24769	,	-21949	,	5.14688	,	12
6,1	,	143464	,	-24764	,	-21953	,	4.562114	,	10
6,1	,	143496	,	-24789	,	-21948	,	3.8533921	,	8
6,1	,	143512	,	-24790	,	-21952	,	2.843505	,	6
6,1	,	143528	,	-24773	,	-21952	,	1.3570099	,	4
6,1	,	143560	,	-24775	,	-21965	,	-0.3323804	,	2
6,1	,	143576	,	-24766	,	-21937	,	-1.704528	,	1
6,1	,	143608	,	-24778	,	-21948	,	-2.4348774	,	0
6,1	,	143623	,	-24774	,	-21948	,	-2.5451384	,	0
6,1	,	143639	,	-24777	,	-21947	,	-2.2672274	,	0
6,1	,	143671	,	-24780	,	-21943	,	-1.83846	,	0
6,1	,	143688	,	-24778	,	-21952	,	-1.4370489	,	0
6,1	,	143703	,	-24793	,	-21950	,	-1.2192751	,	0
6,1	,	143735	,	-24806	,	-21954	,	-1.4436091	,	0
6,1	,	143751	,	-24790	,	-21952	,	-2.3422	,	0
6,1	,	143783	,	-24807	,	-21964	,	-3.8024154	,	0
6,1	,	143800	,	-24800	,	-21976	,	-5.500317	,	0
6,1	,	143816	,	-24800	,	-21947	,	-7.1235533	,	0
6,1	,	143848	,	-24803	,	-21967	,	-8.368619	,	0
6,1	,	143863	,	-24808	,	-21965	,	-9.071018	,	0
6,1	,	143879	,	-24822	,	-21965	,	-9.3443165	,	0
6,1	,	143912	,	-24803	,	-21964	,	-9.417536	,	0
6,1	,	143928	,	-24794	,	-21967	,	-9.235597	,	0
6,1	,	143944	,	-24802	,	-21962	,	-8.4832	,	0
6,1	,	143975	,	-24811	,	-21957	,	-7.124479	,	0
6,1	,	143992	,	-24789	,	-21964	,	-5.435925	,	1
6,1	,	144024	,	-24788	,	-21953	,	-3.518623	,	2
6,1	,	144040	,	-24792	,	-21975	,	-1.3247883	,	3
6,1	,	144055	,	-24788	,	-21943	,	0.9927597	,	5
6,1	,	144087	,	-24784	,	-21957	,	3.1709952	,	7
6,1	,	144103	,	-24784	,	-21945	,	5.0477743	,	9
6,1	,	144119	,	-24784	,	-21949	,	6.52067	,	10
6,1	,	144151	,	-24773	,	-21958	,	7.5446258	,	11
6,1	,	144167	,	-24777	,	-21956	,	8.1973295	,	12
6,1	,	144199	,	-24797	,	-21957	,	8.4659605	,	11
6,1	,	144215	,	-24789	,	-21959	,	8.094416	,	10
6,1	,	144231	,	-24784	,	-21958	,	6.9586396	,	9
6,1	,	144263	,	-24782	,	-21950	,	5.333312	,	7
6,1	,	144279	,	-24790	,	-21969	,	3.602045	,	5
6,2	,	144295	,	-24785	,	-21938	,	1.9820635	,	3
6,2	,	144328	,	-24793	,	-21956	,	0.554399	,	2
6,2	,	144344	,	-24789	,	-21949	,	-0.6568054	,	1
6,2	,	144375	,	-24788	,	-21955	,	-1.6187238	,	0
6,2	,	144391	,	-24792	,	-21949	,	-2.2770524	,	0
6,2	,	144407	,	-24792	,	-21952	,	-2.6405506	,	0
6,2	,	144439	,	-24795	,	-21954	,	-2.790836	,	0
6,2	,	144455	,	-24784	,	-21960	,	-2.7747407	,	0
6,2	,	144471	,	-24790	,	-21961	,	-2.5448895	,	0
6,2	,	144503	,	-24813	,	-21962	,	-2.1891494	,	0
6,2	,	144519	,	-24791	,	-21973	,	-2.0266716	,	0
6,2	,	144535	,	-24798	,	-21949	,	-2.1787634	,	0
6,2	,	144567	,	-24811	,	-21963	,	-2.5217679	,	0
6,2	,	144583	,	-24806	,	-21958	,	-3.0539398	,	0
6,2	,	144615	,	-24816	,	-21964	,	-3.8255517	,	0
6,2	,	144631	,	-24813	,	-21969	,	-4.783078	,	0
6,2	,	144647	,	-24808	,	-21964	,	-5.7690644	,	0
6,2	,	144679	,	-24809	,	-21957	,	-6.519679	,	0
6,2	,	144695	,	-24799	,	-21956	,	-6.762661	,	0
6,2	,	144711	,	-24798	,	-21959	,	-6.304851	,	0
6,2	,	144743	,	-24801	,	-21959	,	-5.1233726	,	0
6,2	,	144759	,	-24790	,	-21970	,	-3.3917143	,	1
6,2	,	144791	,	-24795	,	-21944	,	-1.3373666	,	2
6,2	,	144807	,	-24789	,	-21958	,	0.81122327	,	4
6,2	,	144823	,	-24783	,	-21956	,	2.8584442	,	6
6,2	,	144855	,	-24786	,	-21951	,	4.7050633	,	8
6,2	,	144871	,	-24778	,	-21953	,	6.280487	,	9
6,2	,	144887	,	-24781	,	-21943	,	7.51676	,	10
6,2	,	144919	,	-24785	,	-21944	,	8.3385935	,	11
6,2	,	144935	,	-24795	,	-21946	,	8.5776825	,	11
6,2	,	144951	,	-24782	,	-21956	,	8.079836	,	10
6,2	,	144983	,	-24773	,	-21950	,	7.010459	,	9
6,2	,	144999	,	-24772	,	-21955	,	5.8571386	,	7
6,2	,	145031	,	-24785	,	-21935	,	4.978664	,	5
6,2	,	145047	,	-24783	,	-21941	,	4.3223104	,	3
6,2	,	145063	,	-24784	,	-21946	,	3.6623042	,	2
6,2	,	145095	,	-24793	,	-21942	,	2.8511527	,	1
6,2	,	145111	,	-24782	,	-21951	,	1.8402452	,	0
6,2	,	145127	,	-24787	,	-21944	,	0.72872853	,	0
6,2	,	145159	,	-24776	,	-21951	,	-0.2478	,	0
6,2	,	145175	,	-24781	,	-21945	,	-0.85642666	,	0
6,2	,	145207	,	-24783	,	-21948	,	-1.0171461	,	0
6,2	,	145223	,	-24798	,	-21943	,	-0.9149972	,	0
6,2	,	145239	,	-24779	,	-21948	,	-0.84468436	,	0
6,2	,	145271	,	-24779	,	-21934	,	-0.84595263	,	0
6,3	,	145287	,	-24795	,	-21954	,	-0.79206747	,	0
6,3	,	145304	,	-24789	,	-21949	,	-0.76326555	,	0
6,3	,	145335	,	-24812	,	-21947	,	-1.013796	,	0
6,3	,	145351	,	-24797	,	-21944	,	-1.7504679	,	0
6,3	,	145367	,	-24802	,	-21947	,	-2.9257338	,	0
6,3	,	145399	,	-24786	,	-21953	,	-4.160232	,	0
6,3	,	145415	,	-24776	,	-21948	,	-4.898423	,	0
6,3	,	145447	,	-24769	,	-21944	,	-4.6222305	,	0
6,3	,	145463	,	-24777	,	-21934	,	-3.1535265	,	0
6,3	,	145479	,	-24770	,	-21953	,	-0.7983959	,	1
6,3	,	145511	,	-24763	,	-21924	,	1.9506929	,	3
6,3	,	145527	,	-24757	,	-21935	,	4.75876	,	5
6,3	,	145543	,	-24760	,	-21927	,	7.4229994	,	7
6,3	,	145575	,	-24767	,	-21932	,	9.663313	,	9
6,3	,	145591	,	-24759	,	-21938	,	11.144691	,	11
6,3	,	145623	,	-24783	,	-21930	,	11.618017	,	12
6,3	,	145639	,	-24774	,	-21926	,	10.911194	,	12
6,3	,	145655	,	-24760	,	-21924	,	9.136248	,	12
6,3	,	145687	,	-24761	,	-21931	,	6.8762665	,	11
6,3	,	145703	,	-24766	,	-21922	,	4.7589927	,	9
6,3	,	145719	,	-24763	,	-21928	,	3.0574393	,	7
6,3	,	145751	,	-24756	,	-21905	,	1.8368044	,	5
6,3	,	145767	,	-24766	,	-21922	,	1.1201434	,	3
6,3	,	145783	,	-24758	,	-21922	,	0.8311703	,	1
6,3	,	145815	,	-24755	,	-21929	,	0.858772	,	0
6,3	,	145831	,	-24756	,	-21921	,	1.1543183	,	0
6,3	,	145863	,	-24763	,	-21919	,	1.6117215	,	0
6,3	,	145879	,	-24761	,	-21917	,	2.010953	,	0
6,3	,	145895	,	-24774	,	-21917	,	2.1150846	,	0
6,3	,	145927	,	-24775	,	-21923	,	1.7144831	,	0
6,3	,	145943	,	-24781	,	-21921	,	0.68845296	,	0
6,3	,	145959	,	-24771	,	-21935	,	-0.8630362	,	0
6,3	,	145991	,	-24769	,	-21905	,	-2.5725238	,	0
6,3	,	146007	,	-24769	,	-21919	,	-3.979196	,	0
6,3	,	146039	,	-24775	,	-21918	,	-4.815668	,	0
6,3	,	146055	,	-24775	,	-21921	,	-5.099087	,	0
6,3	,	146071	,	-24777	,	-21924	,	-4.9931736	,	0
6,3	,	146103	,	-24778	,	-21926	,	-4.672781	,	0
6,3	,	146118	,	-24769	,	-21925	,	-4.232117	,	0
6,3	,	146134	,	-24781	,	-21931	,	-3.6779172	,	0
6,3	,	146167	,	-24771	,	-21920	,	-3.0449548	,	0
6,3	,	146183	,	-24771	,	-21915	,	-2.3731594	,	0
6,3	,	146215	,	-24762	,	-21934	,	-1.5947561	,	0
6,3	,	146231	,	-24758	,	-21903	,	-0.5738958	,	0
6,3	,	146247	,	-24746	,	-21910	,	0.82335615	,	1
6,4	,	146278	,	-24753	,	-21905	,	2.6435	,	2
6,4	,	146295	,	-24757	,	-21905	,	4.676941	,	3
6,4	,	146310	,	-24749	,	-21910	,	6.514919	,	5
6,4	,	146342	,	-24740	,	-21904	,	7.91689	,	6
6,4	,	146359	,	-24744	,	-21902	,	8.9237	,	7
6,4	,	146391	,	-24745	,	-21898	,	9.578029	,	8
6,4	,	146407	,	-24742	,	-21896	,	9.810115	,	8
6,4	,	146422	,	-24739	,	-21897	,	9.601858	,	8
6,4	,	146455	,	-24733	,	-21903	,	9.079746	,	7
6,4	,	146470	,	-24724	,	-21885	,	8.489308	,	6
6,4	,	146486	,	-24726	,	-21887	,	8.094475	,	5
6,4	,	146519	,	-24726	,	-21890	,	7.989101	,	3
6,4	,	146534	,	-24735	,	-21897	,	8.006783	,	2
6,4	,	146566	,	-24730	,	-21895	,	7.851245	,	1
6,4	,	146582	,	-24727	,	-21892	,	7.349369	,	0
6,4	,	146598	,	-24721	,	-21895	,	6.5919647	,	0
6,4	,	146630	,	-24719	,	-21886	,	5.8299856	,	0
6,4	,	146647	,	-24730	,	-21888	,	5.2199326	,	0
6,4	,	146663	,	-24717	,	-21902	,	4.7219	,	0
6,4	,	146695	,	-24734	,	-21869	,	4.2342396	,	0
6,4	,	146711	,	-24731	,	-21887	,	3.6209118	,	0
6,4	,	146727	,	-24724	,	-21892	,	2.7790606	,	0
6,4	,	146758	,	-24731	,	-21886	,	1.7947888	,	0
6,4	,	146774	,	-24730	,	-21894	,	0.814685	,	0
6,4	,	146807	,	-24737	,	-21892	,	-0.11331034	,	0
6,4	,	146822	,	-24735	,	-21887	,	-1.0076727	,	0
6,4	,	146839	,	-24729	,	-21896	,	-1.8345292	,	0
6,4	,	146870	,	-24741	,	-21893	,	-2.492661	,	0
6,4	,	146886	,	-24735	,	-21892	,	-2.9586623	,	0
6,4	,	146902	,	-24737	,	-21907	,	-3.2621858	,	0
6,4	,	146935	,	-24735	,	-21871	,	-3.382763	,	0
6,4	,	146950	,	-24745	,	-21899	,	-3.3391933	,	0
6,4	,	146982	,	-24734	,	-21900	,	-3.2188158	,	0
6,4	,	146998	,	-24724	,	-21896	,	-2.9757457	,	0
6,4	,	147014	,	-24723	,	-21893	,	-2.372341	,	0
6,4	,	147046	,	-24719	,	-21890	,	-1.232176	,	0
6,4	,	147062	,	-24715	,	-21886	,	0.41141903	,	1
6,4	,	147079	,	-24719	,	-21881	,	2.3607607	,	2
6,4	,	147110	,	-24713	,	-21876	,	4.3180027	,	3
6,4	,	147126	,	-24705	,	-21876	,	6.0537653	,	4
6,4	,	147142	,	-24703	,	-21892	,	7.52958	,	5
6,4	,	147174	,	-24705	,	-21862	,	8.756293	,	6
6,4	,	147190	,	-24701	,	-21872	,	9.661257	,	7
6,4	,	147222	,	-24707	,	-21866	,	10.138342	,	7
6,4	,	147238	,	-24692	,	-21871	,	10.154224	,	7
6,4	,	147254	,	-24696	,	-21871	,	9.832802	,	6
6,5	,	147289	,	-24710	,	-21869	,	9.280493	,	5
6,5	,	147302	,	-24705	,	-21867	,	8.386428	,	4
6,5	,	147319	,	-24703	,	-21857	,	7.060544	,	3
6,5	,	147350	,	-24705	,	-21865	,	5.4407625	,	2
6,5	,	147366	,	-24694	,	-21863	,	3.7973843	,	1
6,5	,	147398	,	-24705	,	-21875	,	2.409091	,	0
6,5	,	147414	,	-24696	,	-21849	,	1.4229789	,	0
6,5	,	147430	,	-24698	,	-21866	,	0.84933233	,	0
6,5	,	147462	,	-24708	,	-21866	,	0.60153997	,	0
6,5	,	147478	,	-24705	,	-21862	,	0.4615388	,	0
6,5	,	147494	,	-24711	,	-21865	,	0.20790595	,	0
6,5	,	147526	,	-24717	,	-21869	,	-0.2953364	,	0
6,5	,	147542	,	-24711	,	-21869	,	-1.1044638	,	0
6,5	,	147574	,	-24716	,	-21878	,	-2.1221626	,	0
6,5	,	147591	,	-24717	,	-21875	,	-3.1647034	,	0
6,5	,	147606	,	-24724	,	-21863	,	-4.125653	,	0
6,5	,	147638	,	-24722	,	-21887	,	-4.985754	,	0
6,5	,	147654	,	-24724	,	-21853	,	-5.7166786	,	0
6,5	,	147670	,	-24729	,	-21871	,	-6.2723627	,	0
6,5	,	147702	,	-24725	,	-21886	,	-6.6412964	,	0
6,5	,	147718	,	-24736	,	-21879	,	-6.8428235	,	0
6,5	,	147734	,	-24730	,	-21877	,	-6.922611	,	0
6,5	,	147766	,	-24723	,	-21873	,	-6.858551	,	0
6,5	,	147782	,	-24721	,	-21869	,	-6.4830446	,	0
6,5	,	147814	,	-24725	,	-21868	,	-5.663898	,	0
6,5	,	147830	,	-24719	,	-21863	,	-4.4546757	,	0
6,5	,	147846	,	-24703	,	-21862	,	-2.9199047	,	1
6,5	,	147878	,	-24709	,	-21873	,	-1.0023882	,	2
6,5	,	147894	,	-24704	,	-21843	,	1.2593222	,	3
6,5	,	147910	,	-24704	,	-21870	,	3.6138039	,	5
6,5	,	147942	,	-24691	,	-21863	,	5.818028	,	7
6,5	,	147958	,	-24701	,	-21868	,	7.7487	,	9
6,5	,	147990	,	-24705	,	-21864	,	9.218908	,	10
6,5	,	148006	,	-24695	,	-21859	,	9.983031	,	11
6,5	,	148022	,	-24710	,	-21864	,	9.951644	,	11
6,5	,	148054	,	-24696	,	-21860	,	9.184912	,	10
6,5	,	148070	,	-24695	,	-21858	,	7.901557	,	9
6,5	,	148086	,	-24692	,	-21861	,	6.4835687	,	8
6,5	,	148118	,	-24693	,	-21868	,	5.2503767	,	6
6,5	,	148134	,	-24686	,	-21843	,	4.355731	,	4
6,5	,	148150	,	-24685	,	-21862	,	3.868424	,	2
6,5	,	148182	,	-24690	,	-21859	,	3.7606857	,	1
6,5	,	148198	,	-24695	,	-21870	,	3.8313076	,	0
6,5	,	148230	,	-24690	,	-21868	,	3.8083396	,	0
6,5	,	148246	,	-24694	,	-21868	,	3.548465	,	0
6,5	,	148262	,	-24702	,	-21865	,	3.0129342	,	0
6,6	,	148294	,	-24694	,	-21858	,	2.1826243	,	0
6,6	,	148310	,	-24707	,	-21860	,	1.0993512	,	0
6,6	,	148326	,	-24722	,	-21866	,	-0.25985432	,	0
6,6	,	148358	,	-24702	,	-21879	,	-1.9747757	,	0
6,6	,	148374	,	-24711	,	-21859	,	-3.8446078	,	0
6,6	,	148406	,	-24722	,	-21870	,	-5.5292454	,	0
6,6	,	148422	,	-24713	,	-21871	,	-6.904173	,	0
6,6	,	148438	,	-24718	,	-21867	,	-7.9103417	,	0
6,6	,	148470	,	-24720	,	-21872	,	-8.462814	,	0
6,6	,	148486	,	-24724	,	-21873	,	-8.596477	,	0
6,6	,	148502	,	-24721	,	-21880	,	-8.421858	,	0
6,6	,	148534	,	-24715	,	-21862	,	-7.9717064	,	0
6,6	,	148550	,	-24714	,	-21868	,	-7.180415	,	0
6,6	,	148566	,	-24716	,	-21868	,	-6.0229015	,	0
6,6	,	148598	,	-24697	,	-21884	,	-4.525099	,	1
6,6	,	148614	,	-24704	,	-21851	,	-2.650989	,	2
6,6	,	148646	,	-24700	,	-21862	,	-0.4417312	,	3
6,6	,	148662	,	-24694	,	-21865	,	1.8921537	,	5
6,6	,	148678	,	-24679	,	-21861	,	4.2171335	,	7
6,6	,	148710	,	-24688	,	-21865	,	6.5312304	,	9
6,6	,	148726	,	-24697	,	-21865	,	8.6472435	,	11
6,6	,	148742	,	-24693	,	-21867	,	10.132992	,	13
6,6	,	148774	,	-24688	,	-21864	,	10.6998	,	14
6,6	,	148790	,	-24690	,	-21862	,	10.408536	,	13
6,6	,	148822	,	-24692	,	-21866	,	9.4773	,	12
6,6	,	148838	,	-24690	,	-21877	,	8.111434	,	11
6,6	,	148856	,	-24690	,	-21854	,	6.5086255	,	9
6,6	,	148886	,	-24689	,	-21868	,	4.8697543	,	7
6,6	,	148901	,	-24691	,	-21869	,	3.3576686	,	5
6,6	,	148917	,	-24684	,	-21866	,	2.0977435	,	3
6,6	,	148950	,	-24687	,	-21863	,	1.1986294	,	1
6,6	,	148965	,	-24686	,	-21862	,	0.6946554	,	0
6,6	,	148982	,	-24675	,	-21861	,	0.56944484	,	0
6,6	,	149014	,	-24688	,	-21859	,	0.80833316	,	0
6,6	,	149030	,	-24689	,	-21865	,	1.2487646	,	0
6,6	,	149061	,	-24696	,	-21867	,	1.5567601	,	0
6,6	,	149077	,	-24704	,	-21873	,	1.4157779	,	0
6,6	,	149094	,	-24703	,	-21860	,	0.64484483	,	0
6,6	,	149125	,	-24700	,	-21868	,	-0.6931763	,	0
6,6	,	149141	,	-24707	,	-21871	,	-2.3113127	,	0
6,6	,	149158	,	-24718	,	-21875	,	-3.9776087	,	0
6,6	,	149190	,	-24708	,	-21872	,	-5.6108418	,	0
6,6	,	149206	,	-24715	,	-21876	,	-7.0743704	,	0
6,6	,	149237	,	-24724	,	-21875	,	-8.222471	,	0
6,6	,	149253	,	-24701	,	-21872	,	-8.984413	,	0
6,6	,	149269	,	-24693	,	-21861	,	-9.091307	,	0
6,7	,	149301	,	-24689	,	-21864	,	-8.126308	,	0
6,7	,	149317	,	-24685	,	-21878	,	-5.9515347	,	0
6,7	,	149334	,	-24683	,	-21860	,	-2.8125587	,	2
6,7	,	149366	,	-24682	,	-21865	,	0.82048726	,	5
6,7	,	149382	,	-24685	,	-21862	,	4.3857527	,	8
6,7	,	149397	,	-24676	,	-21867	,	7.3921556	,	11
6,7	,	149429	,	-24682	,	-21861	,	9.567187	,	14
6,7	,	149445	,	-24676	,	-21863	,	10.831292	,	16
6,7	,	149477	,	-24679	,	-21856	,	11.220526	,	17
6,7	,	149494	,	-24673	,	-21866	,	10.875435	,	17
6,7	,	149510	,	-24665	,	-21872	,	10.06008	,	17
6,7	,	149542	,	-24666	,	-21866	,	9.123142	,	15
6,7	,	149558	,	-24671	,	-21866	,	8.285324	,	12
6,7	,	149573	,	-24682	,	-21847	,	7.458854	,	9
6,7	,	149605	,	-24666	,	-21857	,	6.4369907	,	6
6,7	,	149621	,	-24668	,	-21861	,	5.2537575	,	3
6,7	,	149653	,	-24679	,	-21861	,	4.0937304	,	1
6,7	,	149670	,	-24679	,	-21864	,	2.9552464	,	0
6,7	,	149685	,	-24671	,	-21860	,	1.7722063	,	0
6,7	,	149717	,	-24670	,	-21864	,	0.6758406	,	0
6,7	,	149733	,	-24680	,	-21870	,	-0.16555214	,	0
6,7	,	149749	,	-24688	,	-21863	,	-0.83003104	,	0
6,7	,	149781	,	-24692	,	-21871	,	-1.5943809	,	0
6,7	,	149798	,	-24691	,	-21871	,	-2.6509776	,	0
6,7	,	149813	,	-24692	,	-21853	,	-3.9447975	,	0
6,7	,	149845	,	-24679	,	-21867	,	-5.19086	,	0
6,7	,	149861	,	-24688	,	-21874	,	-6.0169635	,	0
6,7	,	149893	,	-24694	,	-21879	,	-6.2645917	,	0
6,7	,	149910	,	-24697	,	-21874	,	-6.115942	,	0
6,7	,	149925	,	-24695	,	-21869	,	-5.8384953	,	0
6,7	,	149957	,	-24683	,	-21870	,	-5.4956646	,	0
6,7	,	149973	,	-24691	,	-21867	,	-4.9468565	,	0
6,7	,	149989	,	-24673	,	-21865	,	-4.0405035	,	0
6,7	,	150021	,	-24672	,	-21871	,	-2.6611977	,	0
6,7	,	150037	,	-24681	,	-21863	,	-0.8122337	,	1
6,7	,	150069	,	-24678	,	-21853	,	1.212353	,	2
6,7	,	150085	,	-24670	,	-21853	,	3.0424836	,	4
6,7	,	150101	,	-24659	,	-21860	,	4.594146	,	5
6,7	,	150133	,	-24667	,	-21860	,	5.9904137	,	6
6,7	,	150149	,	-24667	,	-21856	,	7.211666	,	7
6,7	,	150165	,	-24661	,	-21861	,	8.081744	,	8
6,7	,	150197	,	-24660	,	-21853	,	8.528772	,	8
6,7	,	150213	,	-24646	,	-21849	,	8.674038	,	8
6,7	,	150229	,	-24645	,	-21855	,	8.770996	,	7
6,7	,	150261	,	-24658	,	-21846	,	8.966561	,	6
6,7	,	150277	,	-24655	,	-21852	,	9.076035	,	4
6,8	,	150309	,	-24660	,	-21849	,	8.785673	,	3
6,8	,	150325	,	-24650	,	-21849	,	7.9837356	,	2
6,8	,	150341	,	-24653	,	-21853	,	6.8167534	,	1
6,8	,	150373	,	-24649	,	-21849	,	5.5349746	,	0
6,8	,	150389	,	-24646	,	-21845	,	4.3634844	,	0
6,8	,	150405	,	-24650	,	-21854	,	3.451032	,	0
6,8	,	150437	,	-24659	,	-21851	,	2.7645717	,	0
6,8	,	150453	,	-24655	,	-21846	,	2.1121898	,	0
6,8	,	150485	,	-24659	,	-21847	,	1.3603624	,	0
6,8	,	150501	,	-24657	,	-21858	,	0.5167502	,	0
6,8	,	150517	,	-24662	,	-21854	,	-0.35686255	,	0
6,8	,	150549	,	-24676	,	-21858	,	-1.2840388	,	0
6,8	,	150565	,	-24670	,	-21855	,	-2.397228	,	0
6,8	,	150581	,	-24681	,	-21859	,	-3.7498353	,	0
6,8	,	150613	,	-24665	,	-21861	,	-5.1958284	,	0
6,8	,	150629	,	-24680	,	-21853	,	-6.466445	,	0
6,8	,	150661	,	-24686	,	-21859	,	-7.419542	,	0
6,8	,	150677	,	-24685	,	-21867	,	-8.146952	,	0
6,8	,	150693	,	-24663	,	-21860	,	-8.623409	,	0
6,8	,	150725	,	-24662	,	-21864	,	-8.478297	,	0
6,8	,	150741	,	-24660	,	-21852	,	-7.3503757	,	0
6,8	,	150757	,	-24656	,	-21852	,	-5.2467413	,	1
6,8	,	150789	,	-24648	,	-21855	,	-2.4359782	,	3
6,8	,	150805	,	-24636	,	-21851	,	0.8222008	,	5
6,8	,	150821	,	-24647	,	-21847	,	4.2917366	,	8
6,8	,	150853	,	-24643	,	-21843	,	7.577954	,	11
6,8	,	150869	,	-24644	,	-21840	,	10.199385	,	14
6,8	,	150901	,	-24632	,	-21837	,	11.902836	,	16
6,8	,	150917	,	-24629	,	-21838	,	12.784826	,	17
6,8	,	150933	,	-24622	,	-21841	,	13.133767	,	17
6,8	,	150965	,	-24634	,	-21842	,	13.157818	,	16
6,8	,	150981	,	-24640	,	-21833	,	12.787792	,	14
6,8	,	150997	,	-24625	,	-21841	,	11.852961	,	12
6,8	,	151029	,	-24633	,	-21847	,	10.428873	,	9
6,8	,	151045	,	-24629	,	-21845	,	8.764587	,	6
6,8	,	151077	,	-24616	,	-21846	,	7.1175675	,	3
6,8	,	151093	,	-24626	,	-21843	,	5.7623587	,	1
6,8	,	151109	,	-24628	,	-21843	,	4.7931437	,	0
6,8	,	151141	,	-24621	,	-21842	,	4.0837026	,	0
6,8	,	151157	,	-24626	,	-21832	,	3.5400739	,	0
6,8	,	151173	,	-24631	,	-21835	,	3.0945344	,	0
6,8	,	151205	,	-24627	,	-21839	,	2.614924	,	0
6,8	,	151221	,	-24631	,	-21848	,	2.0205166	,	0
6,8	,	151236	,	-24632	,	-21853	,	1.3213824	,	0
6,8	,	151269	,	-24638	,	-21851	,	0.5247761	,	0
6,9	,	151285	,	-24639	,	-21840	,	-0.3991695	,	0
6,9	,	151317	,	-24641	,	-21853	,	-1.4587847	,	0
6,9	,	151333	,	-24649	,	-21854	,	-2.6174574	,	0
6,9	,	151349	,	-24648	,	-21856	,	-3.8436625	,	0
6,9	,	151381	,	-24663	,	-21861	,	-5.1452713	,	0
6,9	,	151397	,	-24651	,	-21849	,	-6.5197206	,	0
6,9	,	151412	,	-24660	,	-21854	,	-7.833856	,	0
6,9	,	151445	,	-24654	,	-21859	,	-8.857653	,	0
6,9	,	151461	,	-24668	,	-21856	,	-9.463303	,	0
6,9	,	151493	,	-24643	,	-21855	,	-9.613991	,	0
6,9	,	151509	,	-24652	,	-21857	,	-9.173433	,	0
6,9	,	151525	,	-24632	,	-21853	,	-7.948293	,	0
6,9	,	151556	,	-24632	,	-21855	,	-5.839766	,	1
6,9	,	151573	,	-24628	,	-21853	,	-2.9173932	,	3
6,9	,	151589	,	-24638	,	-21850	,	0.46675277	,	5
6,9	,	151621	,	-24619	,	-21846	,	3.7933872	,	8
6,9	,	151637	,	-24615	,	-21849	,	6.7556815	,	11
6,9	,	151653	,	-24624	,	-21846	,	9.271733	,	13
6,9	,	151685	,	-24609	,	-21846	,	11.227091	,	15
6,9	,	151701	,	-24607	,	-21836	,	12.575688	,	16
6,9	,	151732	,	-24621	,	-21841	,	13.357744	,	17
6,9	,	151749	,	-24629	,	-21857	,	13.402567	,	16
6,9	,	151765	,	-24612	,	-21841	,	12.4949665	,	14
