Data recorded on Wed Jul 26 14-46-12 CAT 2017
Time: 14:46:19
Time		Millis		IR PPG		Red PPG		Filtered		SSF
46,28	,	19632	,	-17296	,	-13513	,	1.2629402	,	2
46,28	,	19663	,	-17296	,	-13522	,	0.067150354	,	0
46,28	,	19680	,	-17291	,	-13523	,	-0.9088162	,	0
46,28	,	19696	,	-17302	,	-13525	,	-1.9294353	,	0
46,28	,	19728	,	-17303	,	-13528	,	-3.1245308	,	0
46,28	,	19744	,	-17315	,	-13533	,	-4.5590453	,	0
46,28	,	19760	,	-17310	,	-13533	,	-6.232436	,	0
46,28	,	19792	,	-17325	,	-13529	,	-8.047615	,	0
46,28	,	19808	,	-17331	,	-13534	,	-9.917288	,	0
46,28	,	19840	,	-17331	,	-13530	,	-11.795405	,	0
46,28	,	19856	,	-17339	,	-13529	,	-13.564215	,	0
46,28	,	19872	,	-17353	,	-13533	,	-15.126055	,	0
46,28	,	19904	,	-17350	,	-13534	,	-16.503134	,	0
46,28	,	19920	,	-17341	,	-13535	,	-17.600721	,	0
46,28	,	19936	,	-17324	,	-13529	,	-17.99671	,	0
46,28	,	19968	,	-17310	,	-13524	,	-17.07981	,	0
46,28	,	19984	,	-17302	,	-13516	,	-14.396177	,	0
46,28	,	20000	,	-17282	,	-13516	,	-9.871421	,	2
46,28	,	20032	,	-17282	,	-13510	,	-3.798112	,	6
46,28	,	20048	,	-17273	,	-13512	,	3.2008014	,	12
46,28	,	20080	,	-17270	,	-13511	,	10.29144	,	18
46,28	,	20096	,	-17263	,	-13503	,	16.687326	,	25
46,28	,	20112	,	-17261	,	-13505	,	21.811604	,	31
46,28	,	20144	,	-17259	,	-13500	,	25.318645	,	36
46,28	,	20160	,	-17261	,	-13506	,	27.061558	,	39
46,28	,	20176	,	-17256	,	-13508	,	27.080112	,	40
46,28	,	20208	,	-17266	,	-13504	,	25.57376	,	38
46,28	,	20224	,	-17260	,	-13503	,	22.824932	,	34
46,28	,	20256	,	-17257	,	-13505	,	19.222843	,	28
46,28	,	20272	,	-17271	,	-13505	,	15.215701	,	22
46,28	,	20287	,	-17270	,	-13502	,	11.100762	,	15
46,28	,	20319	,	-17269	,	-13514	,	7.0644264	,	9
46,28	,	20335	,	-17276	,	-13500	,	3.322999	,	4
46,28	,	20352	,	-17281	,	-13505	,	0.019208908	,	1
46,28	,	20384	,	-17289	,	-13512	,	-2.8574224	,	0
46,28	,	20400	,	-17286	,	-13517	,	-5.360464	,	0
46,28	,	20432	,	-17294	,	-13517	,	-7.477908	,	0
46,28	,	20448	,	-17301	,	-13522	,	-9.198153	,	0
46,28	,	20464	,	-17314	,	-13517	,	-10.64117	,	0
46,28	,	20495	,	-17307	,	-13526	,	-11.972363	,	0
46,28	,	20511	,	-17314	,	-13526	,	-13.18656	,	0
46,28	,	20527	,	-17316	,	-13532	,	-14.137276	,	0
46,28	,	20560	,	-17327	,	-13530	,	-14.752765	,	0
46,28	,	20576	,	-17332	,	-13524	,	-15.122349	,	0
46,28	,	20592	,	-17342	,	-13529	,	-15.423024	,	0
46,28	,	20623	,	-17359	,	-13536	,	-15.872774	,	0
46,28	,	20640	,	-17347	,	-13533	,	-16.633827	,	0
46,29	,	20672	,	-17326	,	-13529	,	-17.443836	,	0
46,29	,	20688	,	-17316	,	-13525	,	-17.50654	,	0
46,29	,	20703	,	-17291	,	-13513	,	-15.955532	,	0
46,29	,	20736	,	-17287	,	-13516	,	-12.300505	,	1
46,29	,	20752	,	-17262	,	-13507	,	-6.5669804	,	4
46,29	,	20768	,	-17262	,	-13504	,	0.7790694	,	9
46,29	,	20799	,	-17251	,	-13509	,	8.944702	,	16
46,29	,	20815	,	-17246	,	-13492	,	16.967499	,	24
46,29	,	20847	,	-17230	,	-13495	,	24.031628	,	32
46,29	,	20863	,	-17226	,	-13486	,	29.673452	,	39
46,29	,	20879	,	-17213	,	-13495	,	33.72726	,	44
46,29	,	20911	,	-17228	,	-13497	,	36.123062	,	48
46,29	,	20928	,	-17225	,	-13490	,	36.701912	,	49
46,29	,	20944	,	-17229	,	-13491	,	35.327698	,	46
46,29	,	20976	,	-17224	,	-13495	,	32.154247	,	41
46,29	,	20991	,	-17221	,	-13491	,	27.674604	,	34
46,29	,	21007	,	-17228	,	-13489	,	22.529568	,	26
46,29	,	21039	,	-17231	,	-13497	,	17.239342	,	18
46,29	,	21056	,	-17230	,	-13489	,	12.136622	,	11
46,29	,	21087	,	-17236	,	-13496	,	7.47013	,	6
46,29	,	21103	,	-17243	,	-13493	,	3.3737593	,	2
46,29	,	21119	,	-17242	,	-13498	,	-0.15576029	,	0
46,29	,	21151	,	-17253	,	-13497	,	-3.159985	,	0
46,29	,	21167	,	-17255	,	-13507	,	-5.705673	,	0
46,29	,	21183	,	-17274	,	-13507	,	-7.94378	,	0
46,29	,	21215	,	-17273	,	-13511	,	-10.082175	,	0
46,29	,	21231	,	-17280	,	-13511	,	-12.221614	,	0
46,29	,	21263	,	-17267	,	-13513	,	-14.194191	,	0
46,29	,	21279	,	-17284	,	-13513	,	-15.662088	,	0
46,29	,	21295	,	-17289	,	-13507	,	-16.468971	,	0
46,29	,	21327	,	-17290	,	-13514	,	-16.748478	,	0
46,29	,	21343	,	-17308	,	-13522	,	-16.734406	,	0
46,29	,	21359	,	-17314	,	-13524	,	-16.723078	,	0
46,29	,	21391	,	-17319	,	-13528	,	-16.9912	,	0
46,29	,	21407	,	-17326	,	-13526	,	-17.603504	,	0
46,29	,	21423	,	-17333	,	-13532	,	-18.452518	,	0
46,29	,	21455	,	-17340	,	-13533	,	-19.403393	,	0
46,29	,	21471	,	-17330	,	-13536	,	-20.27119	,	0
46,29	,	21503	,	-17323	,	-13532	,	-20.684101	,	0
46,29	,	21519	,	-17302	,	-13523	,	-20.085583	,	0
46,29	,	21535	,	-17283	,	-13519	,	-17.875614	,	0
46,29	,	21567	,	-17268	,	-13517	,	-13.618063	,	2
46,29	,	21583	,	-17248	,	-13499	,	-7.2619514	,	6
46,29	,	21599	,	-17233	,	-13504	,	0.83570004	,	12
46,29	,	21631	,	-17225	,	-13494	,	10.000462	,	20
46,29	,	21647	,	-17215	,	-13489	,	19.318941	,	29
46,30	,	21679	,	-17207	,	-13486	,	27.838495	,	38
46,30	,	21695	,	-17204	,	-13485	,	34.77542	,	46
46,30	,	21711	,	-17192	,	-13487	,	39.6223	,	52
46,30	,	21743	,	-17212	,	-13490	,	42.118355	,	56
46,30	,	21759	,	-17202	,	-13485	,	42.11753	,	56
46,30	,	21775	,	-17199	,	-13490	,	39.734596	,	52
46,30	,	21807	,	-17193	,	-13478	,	35.54221	,	46
46,30	,	21823	,	-17200	,	-13488	,	30.312927	,	38
46,30	,	21839	,	-17207	,	-13483	,	24.63179	,	29
46,30	,	21871	,	-17206	,	-13482	,	18.836678	,	20
46,30	,	21887	,	-17205	,	-13494	,	13.226176	,	12
46,30	,	21919	,	-17215	,	-13493	,	8.109946	,	6
46,30	,	21935	,	-17217	,	-13492	,	3.6431503	,	2
46,30	,	21951	,	-17224	,	-13492	,	-0.18713808	,	0
46,30	,	21983	,	-17225	,	-13488	,	-3.4326203	,	0
46,30	,	21999	,	-17229	,	-13502	,	-6.113862	,	0
46,30	,	22015	,	-17236	,	-13508	,	-8.245283	,	0
46,30	,	22047	,	-17237	,	-13494	,	-9.88012	,	0
46,30	,	22063	,	-17261	,	-13509	,	-11.176265	,	0
46,30	,	22095	,	-17257	,	-13503	,	-12.424035	,	0
46,30	,	22111	,	-17271	,	-13509	,	-13.844789	,	0
46,30	,	22127	,	-17261	,	-13514	,	-15.385626	,	0
46,30	,	22159	,	-17277	,	-13513	,	-16.798584	,	0
46,30	,	22175	,	-17278	,	-13521	,	-17.889294	,	0
46,30	,	22191	,	-17285	,	-13511	,	-18.620953	,	0
46,30	,	22223	,	-17294	,	-13521	,	-19.037624	,	0
46,30	,	22239	,	-17289	,	-13518	,	-19.19077	,	0
46,30	,	22255	,	-17293	,	-13534	,	-19.046158	,	0
46,30	,	22287	,	-17304	,	-13511	,	-18.551912	,	0
46,30	,	22303	,	-17324	,	-13530	,	-17.899124	,	0
46,30	,	22335	,	-17330	,	-13526	,	-17.530853	,	0
46,30	,	22351	,	-17313	,	-13529	,	-17.68341	,	0
46,30	,	22367	,	-17308	,	-13517	,	-17.986809	,	0
46,30	,	22399	,	-17292	,	-13514	,	-17.694572	,	0
46,30	,	22415	,	-17275	,	-13511	,	-16.107166	,	0
46,30	,	22431	,	-17258	,	-13507	,	-12.742208	,	1
46,30	,	22463	,	-17244	,	-13500	,	-7.449582	,	4
46,30	,	22479	,	-17226	,	-13501	,	-0.46377802	,	9
46,30	,	22511	,	-17220	,	-13498	,	7.663523	,	15
46,30	,	22527	,	-17219	,	-13481	,	16.092432	,	23
46,30	,	22543	,	-17206	,	-13483	,	23.83608	,	31
46,30	,	22575	,	-17212	,	-13479	,	30.060547	,	38
46,30	,	22591	,	-17202	,	-13480	,	34.226433	,	44
46,30	,	22607	,	-17207	,	-13486	,	36.107685	,	48
46,30	,	22639	,	-17199	,	-13486	,	35.800045	,	48
46,31	,	22655	,	-17198	,	-13483	,	33.673485	,	45
46,31	,	22687	,	-17200	,	-13475	,	30.247337	,	40
46,31	,	22703	,	-17210	,	-13479	,	25.971685	,	34
46,31	,	22719	,	-17199	,	-13478	,	21.18246	,	26
46,31	,	22751	,	-17205	,	-13491	,	16.263412	,	18
46,31	,	22767	,	-17210	,	-13477	,	11.589771	,	11
46,31	,	22783	,	-17220	,	-13492	,	7.3134327	,	5
46,31	,	22814	,	-17219	,	-13492	,	3.4009366	,	1
46,31	,	22831	,	-17221	,	-13490	,	-0.14237547	,	0
46,31	,	22847	,	-17233	,	-13489	,	-3.246483	,	0
46,31	,	22879	,	-17240	,	-13493	,	-5.9492846	,	0
46,31	,	22895	,	-17230	,	-13491	,	-8.318636	,	0
46,31	,	22927	,	-17246	,	-13498	,	-10.271366	,	0
46,31	,	22943	,	-17243	,	-13500	,	-11.721497	,	0
46,31	,	22959	,	-17248	,	-13499	,	-12.68283	,	0
46,31	,	22991	,	-17261	,	-13505	,	-13.233278	,	0
46,31	,	23006	,	-17262	,	-13493	,	-13.562052	,	0
46,31	,	23023	,	-17266	,	-13504	,	-13.852013	,	0
46,31	,	23055	,	-17281	,	-13508	,	-14.194968	,	0
46,31	,	23071	,	-17286	,	-13514	,	-14.71113	,	0
46,31	,	23103	,	-17286	,	-13510	,	-15.47727	,	0
46,31	,	23119	,	-17292	,	-13512	,	-16.37928	,	0
46,31	,	23135	,	-17303	,	-13515	,	-17.247862	,	0
46,31	,	23166	,	-17307	,	-13520	,	-18.033653	,	0
46,31	,	23182	,	-17309	,	-13521	,	-18.727097	,	0
46,31	,	23198	,	-17317	,	-13519	,	-19.257103	,	0
46,31	,	23231	,	-17326	,	-13522	,	-19.585392	,	0
46,31	,	23247	,	-17327	,	-13518	,	-19.755709	,	0
46,31	,	23263	,	-17322	,	-13522	,	-19.734032	,	0
46,31	,	23294	,	-17296	,	-13502	,	-19.195858	,	0
46,31	,	23311	,	-17271	,	-13501	,	-17.458439	,	0
46,31	,	23343	,	-17265	,	-13495	,	-13.821472	,	1
46,31	,	23359	,	-17255	,	-13490	,	-8.136313	,	4
46,31	,	23375	,	-17251	,	-13485	,	-0.94667053	,	9
46,31	,	23406	,	-17235	,	-13485	,	6.8723216	,	16
46,31	,	23422	,	-17226	,	-13488	,	14.519308	,	23
46,31	,	23438	,	-17226	,	-13482	,	21.368423	,	30
46,31	,	23470	,	-17216	,	-13483	,	26.891285	,	36
46,31	,	23486	,	-17220	,	-13480	,	30.70227	,	41
46,31	,	23519	,	-17216	,	-13482	,	32.607758	,	44
46,31	,	23535	,	-17214	,	-13482	,	32.616436	,	44
46,31	,	23551	,	-17218	,	-13478	,	30.939743	,	41
46,31	,	23582	,	-17209	,	-13476	,	27.939526	,	36
46,31	,	23598	,	-17217	,	-13472	,	24.080036	,	29
46,31	,	23614	,	-17208	,	-13478	,	19.832588	,	22
46,31	,	23646	,	-17217	,	-13480	,	15.591912	,	15
46,32	,	23662	,	-17219	,	-13479	,	11.611783	,	9
46,32	,	23678	,	-17223	,	-13477	,	7.972538	,	4
46,32	,	23711	,	-17223	,	-13483	,	4.688265	,	1
46,32	,	23727	,	-17236	,	-13489	,	1.7496972	,	0
46,32	,	23758	,	-17241	,	-13482	,	-0.9555354	,	0
46,32	,	23774	,	-17245	,	-13488	,	-3.576504	,	0
46,32	,	23790	,	-17251	,	-13492	,	-6.1467056	,	0
46,32	,	23822	,	-17254	,	-13490	,	-8.583708	,	0
46,32	,	23839	,	-17254	,	-13498	,	-10.7420025	,	0
46,32	,	23855	,	-17259	,	-13496	,	-12.450256	,	0
46,32	,	23886	,	-17266	,	-13493	,	-13.620619	,	0
46,32	,	23902	,	-17271	,	-13499	,	-14.316702	,	0
46,32	,	23934	,	-17272	,	-13500	,	-14.665411	,	0
46,32	,	23950	,	-17273	,	-13504	,	-14.73262	,	0
46,32	,	23966	,	-17278	,	-13507	,	-14.521151	,	0
46,32	,	23998	,	-17286	,	-13504	,	-14.0858755	,	0
46,32	,	24014	,	-17298	,	-13511	,	-13.628666	,	0
46,32	,	24030	,	-17313	,	-13507	,	-13.484983	,	0
46,32	,	24062	,	-17314	,	-13512	,	-13.956185	,	0
46,32	,	24078	,	-17319	,	-13516	,	-15.069191	,	0
46,32	,	24094	,	-17316	,	-13521	,	-16.52606	,	0
46,32	,	24126	,	-17319	,	-13520	,	-17.869442	,	0
46,32	,	24142	,	-17309	,	-13512	,	-18.644361	,	0
46,32	,	24174	,	-17298	,	-13514	,	-18.428844	,	0
46,32	,	24190	,	-17269	,	-13505	,	-16.763042	,	0
46,32	,	24206	,	-17269	,	-13507	,	-13.246154	,	1
46,32	,	24238	,	-17267	,	-13494	,	-7.9382896	,	4
46,32	,	24254	,	-17244	,	-13489	,	-1.4335318	,	9
46,32	,	24270	,	-17255	,	-13489	,	5.525948	,	15
46,32	,	24302	,	-17241	,	-13492	,	12.189089	,	21
46,32	,	24318	,	-17240	,	-13492	,	17.871267	,	27
46,32	,	24350	,	-17248	,	-13494	,	22.08282	,	32
46,32	,	24366	,	-17247	,	-13496	,	24.456612	,	36
46,32	,	24382	,	-17249	,	-13493	,	24.818268	,	38
46,32	,	24414	,	-17250	,	-13491	,	23.320072	,	37
46,32	,	24430	,	-17244	,	-13489	,	20.392218	,	34
46,32	,	24446	,	-17244	,	-13500	,	16.643047	,	29
46,32	,	24478	,	-17241	,	-13480	,	12.705118	,	23
46,32	,	24494	,	-17251	,	-13489	,	9.034314	,	17
46,32	,	24526	,	-17247	,	-13491	,	5.8259788	,	11
46,32	,	24542	,	-17245	,	-13488	,	3.1482725	,	6
46,32	,	24558	,	-17255	,	-13490	,	1.0338483	,	2
46,32	,	24590	,	-17256	,	-13492	,	-0.60875773	,	0
46,32	,	24606	,	-17264	,	-13486	,	-1.9785808	,	0
46,32	,	24622	,	-17269	,	-13501	,	-3.2759311	,	0
46,33	,	24654	,	-17274	,	-13497	,	-4.6536746	,	0
46,33	,	24670	,	-17274	,	-13497	,	-6.149956	,	0
46,33	,	24686	,	-17287	,	-13511	,	-7.7048206	,	0
46,33	,	24718	,	-17285	,	-13498	,	-9.26795	,	0
46,33	,	24734	,	-17302	,	-13507	,	-10.826692	,	0
46,33	,	24766	,	-17303	,	-13510	,	-12.402578	,	0
46,33	,	24782	,	-17308	,	-13508	,	-13.99012	,	0
46,33	,	24798	,	-17310	,	-13509	,	-15.46742	,	0
46,33	,	24830	,	-17314	,	-13511	,	-16.650318	,	0
46,33	,	24846	,	-17323	,	-13516	,	-17.427475	,	0
46,33	,	24862	,	-17324	,	-13518	,	-17.818632	,	0
46,33	,	24894	,	-17328	,	-13519	,	-17.887732	,	0
46,33	,	24910	,	-17332	,	-13525	,	-17.667824	,	0
46,33	,	24942	,	-17341	,	-13526	,	-17.220522	,	0
46,33	,	24958	,	-17330	,	-13511	,	-16.613054	,	0
46,33	,	24974	,	-17311	,	-13512	,	-15.675549	,	0
46,33	,	25006	,	-17294	,	-13500	,	-13.889452	,	0
46,33	,	25022	,	-17278	,	-13500	,	-10.679016	,	1
46,33	,	25038	,	-17272	,	-13500	,	-5.814378	,	4
46,33	,	25070	,	-17271	,	-13494	,	0.37696266	,	8
46,33	,	25086	,	-17270	,	-13493	,	7.086193	,	14
46,33	,	25102	,	-17262	,	-13491	,	13.376471	,	20
46,33	,	25134	,	-17257	,	-13488	,	18.559435	,	26
46,33	,	25150	,	-17247	,	-13489	,	22.334312	,	31
46,33	,	25182	,	-17253	,	-13487	,	24.665443	,	34
46,33	,	25198	,	-17245	,	-13494	,	25.59821	,	36
46,33	,	25214	,	-17258	,	-13491	,	25.193607	,	35
46,33	,	25246	,	-17252	,	-13490	,	23.531368	,	32
46,33	,	25262	,	-17247	,	-13487	,	20.824518	,	28
46,33	,	25278	,	-17246	,	-13494	,	17.515718	,	22
46,33	,	25310	,	-17245	,	-13495	,	14.099074	,	16
46,33	,	25326	,	-17245	,	-13491	,	10.921939	,	10
46,33	,	25358	,	-17256	,	-13491	,	8.119248	,	5
46,33	,	25374	,	-17266	,	-13493	,	5.5689225	,	2
46,33	,	25390	,	-17258	,	-13496	,	3.055828	,	0
46,33	,	25422	,	-17262	,	-13493	,	0.57230663	,	0
46,33	,	25437	,	-17267	,	-13493	,	-1.715483	,	0
46,33	,	25454	,	-17277	,	-13493	,	-3.7398632	,	0
46,33	,	25486	,	-17285	,	-13502	,	-5.6114807	,	0
46,33	,	25502	,	-17281	,	-13504	,	-7.447957	,	0
46,33	,	25518	,	-17288	,	-13509	,	-9.193622	,	0
46,33	,	25550	,	-17292	,	-13500	,	-10.701033	,	0
46,33	,	25566	,	-17300	,	-13503	,	-11.915194	,	0
46,33	,	25597	,	-17301	,	-13505	,	-12.874255	,	0
46,33	,	25613	,	-17307	,	-13510	,	-13.61521	,	0
46,33	,	25629	,	-17312	,	-13503	,	-14.157127	,	0
46,34	,	25662	,	-17318	,	-13515	,	-14.53841	,	0
46,34	,	25678	,	-17331	,	-13518	,	-14.853802	,	0
46,34	,	25694	,	-17322	,	-13512	,	-15.199459	,	0
46,34	,	25726	,	-17325	,	-13518	,	-15.492222	,	0
46,34	,	25742	,	-17317	,	-13515	,	-15.4579525	,	0
46,34	,	25773	,	-17306	,	-13511	,	-14.770203	,	0
46,34	,	25789	,	-17282	,	-13496	,	-13.037992	,	0
46,34	,	25805	,	-17281	,	-13496	,	-9.888959	,	1
46,34	,	25838	,	-17262	,	-13490	,	-5.2560034	,	4
46,34	,	25854	,	-17251	,	-13487	,	0.5877433	,	8
46,34	,	25870	,	-17245	,	-13484	,	7.183326	,	13
46,34	,	25902	,	-17226	,	-13482	,	13.973302	,	19
46,34	,	25918	,	-17227	,	-13488	,	20.412668	,	25
46,34	,	25949	,	-17215	,	-13462	,	26.007484	,	31
46,34	,	25965	,	-17207	,	-13471	,	30.370926	,	36
46,34	,	25981	,	-17214	,	-13468	,	33.267326	,	40
46,34	,	26014	,	-17214	,	-13468	,	34.48322	,	41
46,34	,	26030	,	-17208	,	-13469	,	33.894062	,	39
46,34	,	26046	,	-17209	,	-13472	,	31.674088	,	35
46,34	,	26078	,	-17206	,	-13472	,	28.240126	,	30
46,34	,	26094	,	-17209	,	-13467	,	24.069824	,	24
46,34	,	26109	,	-17204	,	-13462	,	19.616026	,	18
46,34	,	26141	,	-17209	,	-13477	,	15.268034	,	12
46,34	,	26157	,	-17206	,	-13467	,	11.297015	,	7
46,34	,	26190	,	-17211	,	-13472	,	7.841424	,	3
46,34	,	26206	,	-17222	,	-13478	,	4.88953	,	1
46,34	,	26222	,	-17223	,	-13479	,	2.266746	,	0
46,34	,	26253	,	-17225	,	-13481	,	-0.19712663	,	0
46,34	,	26269	,	-17235	,	-13481	,	-2.5460002	,	0
46,34	,	26285	,	-17236	,	-13475	,	-4.7841043	,	0
46,34	,	26317	,	-17233	,	-13479	,	-6.852832	,	0
46,34	,	26334	,	-17241	,	-13485	,	-8.586548	,	0
46,34	,	26365	,	-17254	,	-13482	,	-9.926174	,	0
46,34	,	26381	,	-17255	,	-13490	,	-11.030552	,	0
46,34	,	26397	,	-17254	,	-13497	,	-12.026991	,	0
46,34	,	26429	,	-17259	,	-13489	,	-12.852198	,	0
46,34	,	26445	,	-17272	,	-13504	,	-13.447529	,	0
46,34	,	26461	,	-17274	,	-13499	,	-13.918425	,	0
46,34	,	26493	,	-17278	,	-13503	,	-14.390291	,	0
46,34	,	26510	,	-17291	,	-13504	,	-14.904348	,	0
46,34	,	26526	,	-17289	,	-13505	,	-15.485666	,	0
46,34	,	26557	,	-17295	,	-13504	,	-16.097471	,	0
46,34	,	26573	,	-17288	,	-13501	,	-16.564999	,	0
46,34	,	26605	,	-17278	,	-13495	,	-16.575645	,	0
46,34	,	26621	,	-17259	,	-13492	,	-15.678345	,	0
46,34	,	26637	,	-17247	,	-13492	,	-13.391869	,	0
46,35	,	26670	,	-17233	,	-13473	,	-9.43667	,	2
46,35	,	26685	,	-17202	,	-13467	,	-3.7979398	,	5
46,35	,	26701	,	-17186	,	-13468	,	3.409412	,	10
46,35	,	26733	,	-17186	,	-13468	,	11.813026	,	17
46,35	,	26749	,	-17180	,	-13462	,	20.542023	,	25
46,35	,	26781	,	-17173	,	-13461	,	28.46923	,	33
46,35	,	26797	,	-17162	,	-13459	,	34.714146	,	40
46,35	,	26813	,	-17157	,	-13450	,	38.867966	,	46
46,35	,	26845	,	-17166	,	-13455	,	40.833622	,	50
46,35	,	26861	,	-17159	,	-13455	,	40.613777	,	49
46,35	,	26877	,	-17164	,	-13465	,	38.35874	,	46
46,35	,	26909	,	-17157	,	-13445	,	34.45275	,	41
46,35	,	26925	,	-17154	,	-13457	,	29.483673	,	34
46,35	,	26957	,	-17162	,	-13454	,	24.096994	,	26
46,35	,	26973	,	-17161	,	-13458	,	18.76075	,	18
46,35	,	26989	,	-17158	,	-13454	,	13.759208	,	11
46,35	,	27021	,	-17161	,	-13458	,	9.335734	,	5
46,35	,	27037	,	-17171	,	-13457	,	5.620222	,	1
46,35	,	27053	,	-17179	,	-13462	,	2.4916148	,	0
46,35	,	27085	,	-17187	,	-13461	,	-0.33695126	,	0
46,35	,	27101	,	-17179	,	-13461	,	-3.046396	,	0
46,35	,	27117	,	-17193	,	-13471	,	-5.578551	,	0
46,35	,	27149	,	-17195	,	-13460	,	-7.827601	,	0
46,35	,	27165	,	-17205	,	-13470	,	-9.804645	,	0
46,35	,	27197	,	-17209	,	-13480	,	-11.579667	,	0
46,35	,	27213	,	-17210	,	-13475	,	-13.173198	,	0
46,35	,	27229	,	-17223	,	-13476	,	-14.538897	,	0
46,35	,	27261	,	-17229	,	-13479	,	-15.687023	,	0
46,35	,	27277	,	-17237	,	-13481	,	-16.717962	,	0
46,35	,	27293	,	-17239	,	-13485	,	-17.694164	,	0
46,35	,	27325	,	-17247	,	-13487	,	-18.579542	,	0
46,35	,	27341	,	-17245	,	-13489	,	-19.268215	,	0
46,35	,	27373	,	-17248	,	-13495	,	-19.605282	,	0
46,35	,	27389	,	-17257	,	-13488	,	-19.478449	,	0
46,35	,	27405	,	-17272	,	-13494	,	-19.004648	,	0
46,35	,	27437	,	-17256	,	-13488	,	-18.42316	,	0
46,35	,	27453	,	-17243	,	-13489	,	-17.644245	,	0
46,35	,	27469	,	-17223	,	-13480	,	-16.12835	,	0
46,35	,	27501	,	-17204	,	-13472	,	-13.225711	,	1
46,35	,	27517	,	-17192	,	-13463	,	-8.534237	,	3
46,35	,	27533	,	-17186	,	-13462	,	-2.151352	,	7
46,35	,	27565	,	-17177	,	-13458	,	5.3064756	,	13
46,35	,	27581	,	-17161	,	-13460	,	13.016452	,	20
46,35	,	27613	,	-17154	,	-13460	,	20.278345	,	27
46,35	,	27629	,	-17149	,	-13450	,	26.554527	,	34
46,35	,	27645	,	-17144	,	-13451	,	31.403759	,	40
46,36	,	27677	,	-17141	,	-13449	,	34.529873	,	44
46,36	,	27693	,	-17145	,	-13449	,	35.799484	,	46
46,36	,	27709	,	-17137	,	-13441	,	35.23153	,	45
46,36	,	27741	,	-17133	,	-13439	,	33.087288	,	41
46,36	,	27757	,	-17135	,	-13447	,	29.83504	,	35
46,36	,	27789	,	-17135	,	-13442	,	25.926832	,	28
46,36	,	27805	,	-17140	,	-13444	,	21.683578	,	21
46,36	,	27821	,	-17133	,	-13438	,	17.362778	,	14
46,36	,	27853	,	-17143	,	-13441	,	13.210284	,	8
46,36	,	27869	,	-17153	,	-13442	,	9.334796	,	4
46,36	,	27885	,	-17157	,	-13444	,	5.6416683	,	1
46,36	,	27917	,	-17159	,	-13452	,	2.0364575	,	0
46,36	,	27933	,	-17168	,	-13456	,	-1.4425082	,	0
46,36	,	27949	,	-17163	,	-13452	,	-4.672228	,	0
46,36	,	27981	,	-17176	,	-13452	,	-7.488984	,	0
46,36	,	27997	,	-17182	,	-13455	,	-9.817088	,	0
46,36	,	28029	,	-17188	,	-13460	,	-11.739483	,	0
46,36	,	28045	,	-17194	,	-13456	,	-13.366966	,	0
46,36	,	28061	,	-17199	,	-13466	,	-14.757024	,	0
46,36	,	28093	,	-17204	,	-13463	,	-15.92174	,	0
46,36	,	28109	,	-17205	,	-13466	,	-16.820116	,	0
46,36	,	28125	,	-17207	,	-13466	,	-17.360914	,	0
46,36	,	28157	,	-17233	,	-13466	,	-17.565094	,	0
46,36	,	28173	,	-17229	,	-13469	,	-17.704468	,	0
46,36	,	28205	,	-17237	,	-13470	,	-18.027107	,	0
46,36	,	28221	,	-17241	,	-13475	,	-18.518803	,	0
46,36	,	28237	,	-17239	,	-13473	,	-19.013346	,	0
46,36	,	28269	,	-17246	,	-13469	,	-19.299398	,	0
46,36	,	28285	,	-17234	,	-13471	,	-19.16109	,	0
46,36	,	28301	,	-17213	,	-13462	,	-18.268253	,	0
46,36	,	28333	,	-17189	,	-13461	,	-16.044664	,	0
46,36	,	28349	,	-17189	,	-13460	,	-11.982176	,	2
46,36	,	28365	,	-17182	,	-13450	,	-6.161066	,	6
46,36	,	28396	,	-17162	,	-13443	,	0.7962637	,	11
46,36	,	28413	,	-17148	,	-13440	,	8.238516	,	17
46,36	,	28445	,	-17151	,	-13438	,	15.613897	,	24
46,36	,	28461	,	-17150	,	-13439	,	22.233889	,	31
46,36	,	28477	,	-17147	,	-13443	,	27.346018	,	37
46,36	,	28509	,	-17151	,	-13448	,	30.431461	,	42
46,36	,	28525	,	-17159	,	-13440	,	31.261118	,	45
46,36	,	28541	,	-17145	,	-13442	,	29.902863	,	43
46,36	,	28572	,	-17138	,	-13441	,	26.87706	,	39
46,36	,	28589	,	-17156	,	-13450	,	22.937162	,	34
46,36	,	28621	,	-17148	,	-13443	,	18.589151	,	28
46,36	,	28637	,	-17152	,	-13440	,	14.122844	,	21
46,37	,	28653	,	-17156	,	-13441	,	9.825995	,	14
46,37	,	28685	,	-17161	,	-13445	,	5.8948107	,	8
46,37	,	28701	,	-17166	,	-13448	,	2.3757625	,	3
46,37	,	28717	,	-17169	,	-13448	,	-0.75012875	,	0
46,37	,	28748	,	-17171	,	-13447	,	-3.4820137	,	0
46,37	,	28765	,	-17177	,	-13453	,	-5.7868824	,	0
46,37	,	28781	,	-17185	,	-13454	,	-7.6816406	,	0
46,37	,	28813	,	-17183	,	-13455	,	-9.237803	,	0
46,37	,	28829	,	-17191	,	-13465	,	-10.486243	,	0
46,37	,	28861	,	-17197	,	-13445	,	-11.449631	,	0
46,37	,	28877	,	-17213	,	-13459	,	-12.272638	,	0
46,37	,	28893	,	-17212	,	-13460	,	-13.183737	,	0
46,37	,	28924	,	-17220	,	-13460	,	-14.287224	,	0
46,37	,	28940	,	-17218	,	-13469	,	-15.469643	,	0
46,37	,	28956	,	-17223	,	-13463	,	-16.494507	,	0
46,37	,	28989	,	-17237	,	-13471	,	-17.198017	,	0
46,37	,	29005	,	-17238	,	-13478	,	-17.62474	,	0
46,37	,	29037	,	-17245	,	-13477	,	-17.90081	,	0
46,37	,	29053	,	-17254	,	-13479	,	-18.107147	,	0
46,37	,	29069	,	-17245	,	-13486	,	-18.252274	,	0
46,37	,	29100	,	-17231	,	-13464	,	-18.097395	,	0
46,37	,	29116	,	-17219	,	-13463	,	-17.11853	,	0
46,37	,	29132	,	-17196	,	-13462	,	-14.754378	,	0
46,37	,	29164	,	-17188	,	-13457	,	-10.64735	,	2
46,37	,	29180	,	-17171	,	-13455	,	-4.80882	,	6
46,37	,	29212	,	-17178	,	-13453	,	2.2839055	,	11
46,37	,	29229	,	-17171	,	-13450	,	9.730572	,	18
46,37	,	29245	,	-17171	,	-13450	,	16.495935	,	25
46,37	,	29276	,	-17162	,	-13446	,	21.80308	,	31
46,37	,	29292	,	-17156	,	-13447	,	25.320675	,	36
46,37	,	29308	,	-17172	,	-13456	,	27.009966	,	39
46,37	,	29340	,	-17168	,	-13443	,	26.856169	,	40
46,37	,	29356	,	-17170	,	-13448	,	24.937634	,	38
46,37	,	29372	,	-17169	,	-13454	,	21.609762	,	34
46,37	,	29404	,	-17168	,	-13454	,	17.414806	,	29
46,37	,	29420	,	-17169	,	-13447	,	12.922263	,	22
46,37	,	29452	,	-17178	,	-13451	,	8.58477	,	15
46,37	,	29468	,	-17175	,	-13451	,	4.6512823	,	9
46,37	,	29484	,	-17179	,	-13456	,	1.2529559	,	4
46,37	,	29516	,	-17182	,	-13455	,	-1.5306878	,	1
46,37	,	29532	,	-17182	,	-13450	,	-3.6909966	,	0
46,37	,	29548	,	-17190	,	-13461	,	-5.283051	,	0
46,37	,	29580	,	-17198	,	-13454	,	-6.460548	,	0
46,37	,	29596	,	-17198	,	-13463	,	-7.4491215	,	0
46,37	,	29628	,	-17214	,	-13461	,	-8.437313	,	0
46,37	,	29644	,	-17221	,	-13461	,	-9.600035	,	0
46,38	,	29660	,	-17224	,	-13471	,	-11.071964	,	0
46,38	,	29692	,	-17225	,	-13475	,	-12.780917	,	0
46,38	,	29708	,	-17231	,	-13474	,	-14.466339	,	0
46,38	,	29724	,	-17231	,	-13478	,	-15.86031	,	0
46,38	,	29756	,	-17238	,	-13483	,	-16.784409	,	0
46,38	,	29772	,	-17249	,	-13487	,	-17.219234	,	0
46,38	,	29788	,	-17247	,	-13484	,	-17.307947	,	0
46,38	,	29820	,	-17260	,	-13491	,	-17.219887	,	0
46,38	,	29836	,	-17267	,	-13492	,	-17.117455	,	0
46,38	,	29868	,	-17278	,	-13495	,	-17.192686	,	0
46,38	,	29884	,	-17266	,	-13499	,	-17.505037	,	0
46,38	,	29900	,	-17262	,	-13492	,	-17.770157	,	0
46,38	,	29932	,	-17243	,	-13487	,	-17.414314	,	0
46,38	,	29948	,	-17236	,	-13480	,	-15.850252	,	0
46,38	,	29964	,	-17211	,	-13476	,	-12.688415	,	1
46,38	,	29996	,	-17204	,	-13464	,	-7.801242	,	4
46,38	,	30012	,	-17198	,	-13468	,	-1.430316	,	8
46,38	,	30044	,	-17190	,	-13460	,	5.759462	,	14
46,38	,	30060	,	-17182	,	-13471	,	12.93095	,	21
46,38	,	30076	,	-17168	,	-13452	,	19.408594	,	28
46,38	,	30108	,	-17166	,	-13451	,	24.783215	,	34
46,38	,	30124	,	-17163	,	-13455	,	28.790817	,	39
46,38	,	30140	,	-17173	,	-13458	,	31.163115	,	43
46,38	,	30172	,	-17170	,	-13455	,	31.649902	,	44
46,38	,	30188	,	-17170	,	-13461	,	30.221487	,	41
46,38	,	30204	,	-17171	,	-13463	,	27.176962	,	37
46,38	,	30236	,	-17163	,	-13451	,	23.049307	,	31
46,38	,	30252	,	-17168	,	-13455	,	18.46365	,	24
46,38	,	30284	,	-17160	,	-13459	,	13.984025	,	17
46,38	,	30300	,	-17174	,	-13465	,	9.982491	,	11
46,38	,	30316	,	-17180	,	-13450	,	6.5271883	,	6
46,38	,	30348	,	-17187	,	-13466	,	3.420898	,	2
46,38	,	30364	,	-17188	,	-13464	,	0.46390867	,	0
46,38	,	30380	,	-17195	,	-13466	,	-2.3902419	,	0
46,38	,	30412	,	-17202	,	-13464	,	-5.1116858	,	0
46,38	,	30428	,	-17210	,	-13470	,	-7.6927347	,	0
46,38	,	30460	,	-17215	,	-13468	,	-10.142908	,	0
46,38	,	30476	,	-17215	,	-13470	,	-12.406539	,	0
46,38	,	30492	,	-17222	,	-13478	,	-14.333856	,	0
46,38	,	30524	,	-17227	,	-13474	,	-15.794384	,	0
46,38	,	30540	,	-17227	,	-13481	,	-16.745739	,	0
46,38	,	30556	,	-17240	,	-13467	,	-17.214575	,	0
46,38	,	30588	,	-17248	,	-13476	,	-17.358807	,	0
46,38	,	30604	,	-17253	,	-13475	,	-17.429096	,	0
46,38	,	30620	,	-17261	,	-13476	,	-17.596786	,	0
46,39	,	30652	,	-17262	,	-13481	,	-17.894194	,	0
46,39	,	30668	,	-17271	,	-13490	,	-18.254173	,	0
46,39	,	30700	,	-17275	,	-13491	,	-18.591728	,	0
46,39	,	30716	,	-17281	,	-13486	,	-18.858067	,	0
46,39	,	30732	,	-17272	,	-13490	,	-18.956453	,	0
46,39	,	30764	,	-17276	,	-13485	,	-18.672716	,	0
46,39	,	30780	,	-17242	,	-13483	,	-17.656097	,	0
46,39	,	30796	,	-17232	,	-13466	,	-15.369132	,	1
46,39	,	30828	,	-17201	,	-13466	,	-11.255645	,	3
46,39	,	30844	,	-17196	,	-13464	,	-5.091732	,	7
46,39	,	30876	,	-17193	,	-13458	,	2.7426453	,	13
46,39	,	30892	,	-17186	,	-13451	,	11.276026	,	20
46,39	,	30908	,	-17178	,	-13456	,	19.374044	,	28
46,39	,	30940	,	-17162	,	-13453	,	26.214203	,	36
46,39	,	30956	,	-17164	,	-13450	,	31.401363	,	42
46,39	,	30972	,	-17156	,	-13450	,	34.779743	,	47
46,39	,	31004	,	-17165	,	-13451	,	36.259155	,	49
46,39	,	31020	,	-17168	,	-13457	,	35.768143	,	48
46,39	,	31036	,	-17164	,	-13445	,	33.351566	,	44
46,39	,	31068	,	-17166	,	-13447	,	29.344658	,	38
46,39	,	31084	,	-17164	,	-13451	,	24.324043	,	31
46,39	,	31116	,	-17166	,	-13446	,	18.904606	,	23
46,39	,	31132	,	-17171	,	-13456	,	13.589905	,	15
46,39	,	31148	,	-17166	,	-13453	,	8.727546	,	9
46,39	,	31180	,	-17181	,	-13455	,	4.516268	,	4
46,39	,	31196	,	-17183	,	-13462	,	0.9535451	,	1
46,39	,	31211	,	-17187	,	-13460	,	-2.0956912	,	0
46,39	,	31244	,	-17191	,	-13460	,	-4.724253	,	0
46,39	,	31260	,	-17188	,	-13464	,	-6.922624	,	0
46,39	,	31291	,	-17197	,	-13459	,	-8.62343	,	0
46,39	,	31308	,	-17211	,	-13460	,	-9.882451	,	0
46,39	,	31324	,	-17226	,	-13465	,	-11.0197735	,	0
46,39	,	31355	,	-17220	,	-13466	,	-12.383007	,	0
46,39	,	31371	,	-17229	,	-13474	,	-14.000027	,	0
46,39	,	31388	,	-17233	,	-13476	,	-15.648207	,	0
46,39	,	31420	,	-17247	,	-13472	,	-17.159546	,	0
46,39	,	31436	,	-17242	,	-13476	,	-18.469995	,	0
46,39	,	31452	,	-17253	,	-13478	,	-19.488464	,	0
46,39	,	31484	,	-17257	,	-13482	,	-20.129208	,	0
46,39	,	31499	,	-17258	,	-13482	,	-20.38089	,	0
46,39	,	31531	,	-17264	,	-13487	,	-20.24185	,	0
46,39	,	31547	,	-17278	,	-13486	,	-19.7777	,	0
46,39	,	31564	,	-17279	,	-13495	,	-19.199888	,	0
46,39	,	31596	,	-17286	,	-13490	,	-18.707176	,	0
46,39	,	31612	,	-17285	,	-13499	,	-18.33413	,	0
46,39	,	31628	,	-17275	,	-13492	,	-17.917349	,	0
46,40	,	31659	,	-17265	,	-13489	,	-17.089134	,	0
46,40	,	31675	,	-17253	,	-13476	,	-15.391499	,	0
46,40	,	31708	,	-17238	,	-13472	,	-12.458648	,	1
46,40	,	31723	,	-17222	,	-13470	,	-8.109514	,	3
46,40	,	31739	,	-17216	,	-13460	,	-2.417489	,	7
46,40	,	31771	,	-17207	,	-13472	,	4.2060738	,	12
46,40	,	31787	,	-17195	,	-13454	,	11.115978	,	18
46,40	,	31803	,	-17184	,	-13461	,	17.705303	,	24
46,40	,	31836	,	-17184	,	-13456	,	23.5016	,	30
46,40	,	31852	,	-17179	,	-13454	,	28.077564	,	35
46,40	,	31884	,	-17183	,	-13453	,	31.05001	,	39
46,40	,	31900	,	-17190	,	-13458	,	32.128788	,	40
46,40	,	31915	,	-17176	,	-13454	,	31.23077	,	39
46,40	,	31947	,	-17185	,	-13452	,	28.639868	,	35
46,40	,	31963	,	-17178	,	-13450	,	24.882853	,	30
46,40	,	31979	,	-17183	,	-13450	,	20.49281	,	24
46,40	,	32011	,	-17182	,	-13462	,	15.928373	,	18
46,40	,	32028	,	-17196	,	-13447	,	11.485003	,	12
46,40	,	32044	,	-17190	,	-13460	,	7.2765923	,	7
46,40	,	32075	,	-17203	,	-13464	,	3.364058	,	3
46,40	,	32091	,	-17195	,	-13457	,	-0.16211224	,	1
46,40	,	32123	,	-17203	,	-13460	,	-3.1664717	,	0
46,40	,	32139	,	-17216	,	-13463	,	-5.5852556	,	0
46,40	,	32155	,	-17218	,	-13465	,	-7.5637097	,	0
46,40	,	32187	,	-17230	,	-13467	,	-9.331817	,	0
46,40	,	32203	,	-17228	,	-13472	,	-11.029995	,	0
46,40	,	32219	,	-17237	,	-13474	,	-12.657774	,	0
46,40	,	32251	,	-17239	,	-13480	,	-14.118263	,	0
46,40	,	32267	,	-17243	,	-13470	,	-15.307034	,	0
46,40	,	32299	,	-17266	,	-13477	,	-16.232174	,	0
46,40	,	32315	,	-17263	,	-13480	,	-17.090424	,	0
46,40	,	32331	,	-17270	,	-13484	,	-18.039154	,	0
46,40	,	32363	,	-17266	,	-13485	,	-18.966507	,	0
46,40	,	32379	,	-17270	,	-13483	,	-19.588112	,	0
46,40	,	32395	,	-17280	,	-13489	,	-19.69767	,	0
46,40	,	32427	,	-17286	,	-13488	,	-19.348278	,	0
46,40	,	32443	,	-17290	,	-13491	,	-18.760881	,	0
46,40	,	32459	,	-17295	,	-13491	,	-18.11866	,	0
46,40	,	32491	,	-17300	,	-13506	,	-17.513084	,	0
46,40	,	32507	,	-17303	,	-13487	,	-16.974695	,	0
46,40	,	32539	,	-17276	,	-13487	,	-16.348747	,	0
46,40	,	32555	,	-17271	,	-13484	,	-15.144741	,	0
46,40	,	32571	,	-17252	,	-13480	,	-12.777089	,	1
46,40	,	32603	,	-17246	,	-13475	,	-8.9414215	,	3
46,40	,	32619	,	-17235	,	-13480	,	-3.7337942	,	6
46,40	,	32635	,	-17233	,	-13472	,	2.3892918	,	11
46,41	,	32667	,	-17228	,	-13474	,	8.735214	,	17
46,41	,	32683	,	-17229	,	-13468	,	14.545617	,	23
46,41	,	32715	,	-17222	,	-13472	,	19.17887	,	28
46,41	,	32731	,	-17233	,	-13476	,	22.21265	,	32
46,41	,	32747	,	-17225	,	-13464	,	23.436232	,	35
46,41	,	32779	,	-17231	,	-13468	,	22.892231	,	35
46,41	,	32795	,	-17225	,	-13466	,	20.886993	,	33
46,41	,	32811	,	-17220	,	-13467	,	17.918196	,	30
46,41	,	32843	,	-17224	,	-13463	,	14.562046	,	25
46,41	,	32859	,	-17224	,	-13468	,	11.26202	,	19
46,41	,	32875	,	-17226	,	-13472	,	8.241082	,	13
46,41	,	32907	,	-17233	,	-13470	,	5.5723515	,	8
46,41	,	32923	,	-17242	,	-13478	,	3.1752138	,	4
46,41	,	32955	,	-17235	,	-13476	,	0.90186906	,	1
46,41	,	32971	,	-17239	,	-13473	,	-1.2436175	,	0
46,41	,	32987	,	-17248	,	-13472	,	-3.153654	,	0
46,41	,	33020	,	-17255	,	-13478	,	-4.8523016	,	0
46,41	,	33035	,	-17260	,	-13477	,	-6.481771	,	0
46,41	,	33051	,	-17259	,	-13474	,	-8.106906	,	0
46,41	,	33083	,	-17263	,	-13472	,	-9.630499	,	0
46,41	,	33099	,	-17272	,	-13483	,	-10.919928	,	0
46,41	,	33131	,	-17281	,	-13488	,	-11.982484	,	0
46,41	,	33147	,	-17279	,	-13489	,	-12.917189	,	0
46,41	,	33163	,	-17292	,	-13489	,	-13.767933	,	0
46,41	,	33195	,	-17286	,	-13489	,	-14.513971	,	0
46,41	,	33211	,	-17293	,	-13491	,	-15.074009	,	0
46,41	,	33227	,	-17300	,	-13499	,	-15.36541	,	0
46,41	,	33259	,	-17307	,	-13493	,	-15.438912	,	0
46,41	,	33275	,	-17313	,	-13495	,	-15.445444	,	0
46,41	,	33291	,	-17323	,	-13502	,	-15.534508	,	0
46,41	,	33323	,	-17315	,	-13499	,	-15.76696	,	0
46,41	,	33339	,	-17316	,	-13497	,	-15.984025	,	0
46,41	,	33371	,	-17301	,	-13491	,	-15.809975	,	0
46,41	,	33387	,	-17288	,	-13487	,	-14.768551	,	0
46,41	,	33403	,	-17275	,	-13482	,	-12.417597	,	1
46,41	,	33435	,	-17262	,	-13483	,	-8.536263	,	3
46,41	,	33451	,	-17248	,	-13479	,	-3.2150912	,	6
46,41	,	33467	,	-17250	,	-13480	,	3.141756	,	11
46,41	,	33499	,	-17236	,	-13459	,	9.855219	,	17
46,41	,	33515	,	-17229	,	-13462	,	16.216518	,	23
46,41	,	33547	,	-17223	,	-13462	,	21.710163	,	29
46,41	,	33563	,	-17213	,	-13466	,	26.018845	,	34
46,41	,	33579	,	-17217	,	-13460	,	28.971764	,	38
46,41	,	33611	,	-17221	,	-13458	,	30.420437	,	39
46,41	,	33627	,	-17216	,	-13465	,	30.225538	,	38
46,41	,	33643	,	-17215	,	-13463	,	28.467606	,	35
46,42	,	33675	,	-17216	,	-13458	,	25.489513	,	30
46,42	,	33691	,	-17218	,	-13462	,	21.713367	,	24
46,42	,	33707	,	-17218	,	-13464	,	17.523945	,	18
46,42	,	33739	,	-17215	,	-13455	,	13.277907	,	12
46,42	,	33755	,	-17222	,	-13466	,	9.294431	,	7
46,42	,	33787	,	-17217	,	-13462	,	5.7890444	,	3
46,42	,	33803	,	-17233	,	-13466	,	2.823535	,	1
46,42	,	33819	,	-17235	,	-13470	,	0.27524042	,	0
46,42	,	33851	,	-17246	,	-13468	,	-2.0871286	,	0
46,42	,	33867	,	-17252	,	-13467	,	-4.459119	,	0
46,42	,	33882	,	-17261	,	-13472	,	-6.945335	,	0
46,42	,	33915	,	-17259	,	-13475	,	-9.513003	,	0
46,42	,	33931	,	-17257	,	-13480	,	-11.919928	,	0
46,42	,	33963	,	-17258	,	-13486	,	-13.78529	,	0
46,42	,	33979	,	-17273	,	-13470	,	-14.876559	,	0
46,42	,	33995	,	-17276	,	-13482	,	-15.311262	,	0
46,42	,	34027	,	-17278	,	-13482	,	-15.370034	,	0
46,42	,	34042	,	-17281	,	-13484	,	-15.221606	,	0
46,42	,	34058	,	-17294	,	-13485	,	-14.959569	,	0
46,42	,	34091	,	-17289	,	-13488	,	-14.705382	,	0
46,42	,	34107	,	-17301	,	-13496	,	-14.533972	,	0
46,42	,	34139	,	-17308	,	-13496	,	-14.491422	,	0
46,42	,	34155	,	-17309	,	-13490	,	-14.64391	,	0
46,42	,	34171	,	-17303	,	-13490	,	-14.914688	,	0
46,42	,	34202	,	-17318	,	-13499	,	-15.079411	,	0
46,42	,	34218	,	-17310	,	-13485	,	-14.997565	,	0
46,42	,	34234	,	-17286	,	-13481	,	-14.482893	,	0
46,42	,	34267	,	-17271	,	-13482	,	-13.026318	,	0
46,42	,	34283	,	-17262	,	-13475	,	-10.075423	,	1
46,42	,	34299	,	-17240	,	-13464	,	-5.4466248	,	3
46,42	,	34331	,	-17236	,	-13466	,	0.6536989	,	7
46,42	,	34347	,	-17224	,	-13468	,	7.698719	,	13
46,42	,	34378	,	-17218	,	-13464	,	14.946876	,	20
46,42	,	34394	,	-17217	,	-13455	,	21.623861	,	27
46,42	,	34410	,	-17208	,	-13453	,	27.049568	,	33
46,42	,	34442	,	-17199	,	-13463	,	30.815105	,	38
46,42	,	34458	,	-17206	,	-13450	,	32.827057	,	41
46,42	,	34475	,	-17203	,	-13451	,	33.10492	,	42
46,42	,	34507	,	-17210	,	-13450	,	31.702042	,	40
46,42	,	34523	,	-17198	,	-13450	,	28.827894	,	36
46,42	,	34554	,	-17207	,	-13448	,	24.911612	,	30
46,42	,	34570	,	-17200	,	-13446	,	20.46677	,	23
46,42	,	34586	,	-17201	,	-13444	,	15.955425	,	16
46,42	,	34618	,	-17201	,	-13450	,	11.757878	,	10
46,42	,	34634	,	-17202	,	-13445	,	8.11718	,	5
46,43	,	34651	,	-17205	,	-13449	,	5.1182537	,	2
46,43	,	34683	,	-17213	,	-13460	,	2.7035832	,	0
46,43	,	34699	,	-17216	,	-13446	,	0.6944077	,	0
46,43	,	34715	,	-17216	,	-13453	,	-1.0850089	,	0
46,43	,	34746	,	-17226	,	-13458	,	-2.7198477	,	0
46,43	,	34762	,	-17233	,	-13463	,	-4.299828	,	0
46,43	,	34794	,	-17236	,	-13458	,	-5.950112	,	0
46,43	,	34810	,	-17243	,	-13459	,	-7.7162323	,	0
46,43	,	34826	,	-17254	,	-13463	,	-9.574728	,	0
46,43	,	34858	,	-17253	,	-13468	,	-11.49374	,	0
46,43	,	34875	,	-17260	,	-13470	,	-13.365122	,	0
46,43	,	34890	,	-17267	,	-13476	,	-15.028299	,	0
46,43	,	34922	,	-17275	,	-13478	,	-16.410791	,	0
46,43	,	34938	,	-17282	,	-13480	,	-17.548302	,	0
46,43	,	34970	,	-17279	,	-13479	,	-18.462969	,	0
46,43	,	34986	,	-17291	,	-13491	,	-19.089863	,	0
46,43	,	35002	,	-17303	,	-13493	,	-19.431606	,	0
46,43	,	35035	,	-17304	,	-13494	,	-19.646431	,	0
46,43	,	35050	,	-17304	,	-13494	,	-19.818441	,	0
46,43	,	35066	,	-17312	,	-13492	,	-19.850302	,	0
46,43	,	35098	,	-17306	,	-13490	,	-19.605476	,	0
46,43	,	35114	,	-17292	,	-13482	,	-18.878284	,	0
46,43	,	35130	,	-17278	,	-13479	,	-17.281565	,	0
46,43	,	35162	,	-17256	,	-13477	,	-14.349973	,	1
46,43	,	35178	,	-17251	,	-13478	,	-9.788232	,	3
46,43	,	35210	,	-17239	,	-13458	,	-3.714964	,	7
46,43	,	35226	,	-17222	,	-13463	,	3.3786187	,	13
46,43	,	35242	,	-17215	,	-13458	,	10.899263	,	20
46,43	,	35274	,	-17208	,	-13449	,	18.230207	,	27
46,43	,	35290	,	-17199	,	-13447	,	24.743126	,	34
46,43	,	35306	,	-17188	,	-13447	,	29.967293	,	40
46,43	,	35338	,	-17198	,	-13453	,	33.61508	,	45
46,43	,	35354	,	-17209	,	-13449	,	35.363144	,	47
46,43	,	35386	,	-17207	,	-13446	,	34.87366	,	46
46,43	,	35402	,	-17195	,	-13446	,	32.20024	,	42
46,43	,	35418	,	-17192	,	-13450	,	27.981817	,	36
46,43	,	35450	,	-17202	,	-13441	,	23.060816	,	29
46,43	,	35466	,	-17197	,	-13444	,	18.036251	,	22
46,43	,	35482	,	-17204	,	-13440	,	13.245434	,	15
46,43	,	35514	,	-17197	,	-13444	,	8.919358	,	9
46,43	,	35530	,	-17197	,	-13448	,	5.261244	,	4
46,43	,	35546	,	-17200	,	-13445	,	2.422701	,	1
46,43	,	35578	,	-17210	,	-13439	,	0.36810637	,	0
46,43	,	35594	,	-17215	,	-13452	,	-1.1684153	,	0
46,43	,	35626	,	-17223	,	-13442	,	-2.5372424	,	0
46,43	,	35642	,	-17214	,	-13443	,	-3.94246	,	0
46,44	,	35658	,	-17236	,	-13459	,	-5.387085	,	0
46,44	,	35690	,	-17232	,	-13444	,	-6.877033	,	0
46,44	,	35706	,	-17232	,	-13456	,	-8.406889	,	0
46,44	,	35722	,	-17246	,	-13455	,	-9.85269	,	0
46,44	,	35754	,	-17248	,	-13461	,	-11.158991	,	0
46,44	,	35770	,	-17257	,	-13458	,	-12.389728	,	0
46,44	,	35802	,	-17255	,	-13462	,	-13.560887	,	0
46,44	,	35818	,	-17262	,	-13466	,	-14.584188	,	0
46,44	,	35834	,	-17267	,	-13460	,	-15.353747	,	0
46,44	,	35866	,	-17274	,	-13467	,	-15.855362	,	0
46,44	,	35882	,	-17276	,	-13466	,	-16.1497	,	0
46,44	,	35898	,	-17277	,	-13478	,	-16.262644	,	0
46,44	,	35930	,	-17284	,	-13464	,	-16.163408	,	0
46,44	,	35946	,	-17290	,	-13470	,	-15.869978	,	0
46,44	,	35962	,	-17274	,	-13468	,	-15.398022	,	0
46,44	,	35994	,	-17266	,	-13467	,	-14.528383	,	0
46,44	,	36010	,	-17254	,	-13456	,	-12.84824	,	0
46,44	,	36042	,	-17238	,	-13457	,	-10.015663	,	1
46,44	,	36058	,	-17231	,	-13454	,	-5.904438	,	3
46,44	,	36074	,	-17223	,	-13449	,	-0.6892953	,	7
46,44	,	36106	,	-17212	,	-13440	,	5.184636	,	12
46,44	,	36122	,	-17204	,	-13444	,	11.195478	,	17
46,44	,	36138	,	-17200	,	-13447	,	16.850353	,	23
46,44	,	36170	,	-17206	,	-13432	,	21.633905	,	28
46,44	,	36186	,	-17207	,	-13438	,	24.993828	,	32
46,44	,	36218	,	-17205	,	-13435	,	26.51894	,	35
46,44	,	36234	,	-17203	,	-13439	,	26.155464	,	35
46,44	,	36250	,	-17207	,	-13436	,	24.17955	,	33
46,44	,	36282	,	-17206	,	-13442	,	21.005165	,	29
46,44	,	36298	,	-17205	,	-13434	,	17.096066	,	24
46,44	,	36314	,	-17212	,	-13438	,	12.916569	,	19
46,44	,	36346	,	-17208	,	-13434	,	8.8346615	,	13
46,44	,	36362	,	-17203	,	-13435	,	5.1603956	,	8
46,44	,	36378	,	-17204	,	-13441	,	2.2001357	,	4
46,44	,	36410	,	-17211	,	-13441	,	0.10017824	,	1
46,44	,	36426	,	-17212	,	-13444	,	-1.2603939	,	0
46,44	,	36457	,	-17228	,	-13444	,	-2.1919417	,	0
46,44	,	36473	,	-17228	,	-13443	,	-3.0867186	,	0
46,44	,	36490	,	-17222	,	-13443	,	-4.176941	,	0
46,44	,	36522	,	-17238	,	-13450	,	-5.4099083	,	0
46,44	,	36538	,	-17240	,	-13447	,	-6.711866	,	0
46,44	,	36554	,	-17244	,	-13445	,	-8.095667	,	0
46,44	,	36586	,	-17249	,	-13448	,	-9.519598	,	0
46,44	,	36602	,	-17252	,	-13459	,	-10.888283	,	0
46,44	,	36633	,	-17253	,	-13454	,	-12.086302	,	0
46,45	,	36650	,	-17265	,	-13468	,	-13.021335	,	0
46,45	,	36665	,	-17264	,	-13453	,	-13.704606	,	0
46,45	,	36698	,	-17280	,	-13463	,	-14.232576	,	0
46,45	,	36714	,	-17277	,	-13466	,	-14.725039	,	0
46,45	,	36730	,	-17283	,	-13472	,	-15.230379	,	0
46,45	,	36762	,	-17279	,	-13464	,	-15.649733	,	0
46,45	,	36778	,	-17263	,	-13464	,	-15.70666	,	0
46,45	,	36794	,	-17249	,	-13458	,	-14.919855	,	0
46,45	,	36825	,	-17236	,	-13458	,	-12.768654	,	0
46,45	,	36841	,	-17225	,	-13446	,	-8.988243	,	2
46,45	,	36874	,	-17224	,	-13447	,	-3.7487502	,	5
46,45	,	36890	,	-17213	,	-13459	,	2.3751268	,	10
46,45	,	36905	,	-17203	,	-13430	,	8.684183	,	16
46,45	,	36938	,	-17195	,	-13445	,	14.625266	,	22
46,45	,	36954	,	-17202	,	-13437	,	19.750883	,	27
46,45	,	36970	,	-17192	,	-13442	,	23.613247	,	32
46,45	,	37001	,	-17199	,	-13439	,	25.882925	,	35
46,45	,	37017	,	-17202	,	-13440	,	26.4198	,	37
46,45	,	37049	,	-17190	,	-13439	,	25.2886	,	35
46,45	,	37065	,	-17194	,	-13434	,	22.857819	,	32
46,45	,	37081	,	-17200	,	-13439	,	19.626173	,	27
46,45	,	37114	,	-17185	,	-13443	,	16.018929	,	21
46,45	,	37130	,	-17202	,	-13451	,	12.424799	,	15
46,45	,	37146	,	-17193	,	-13426	,	9.102928	,	10
46,45	,	37178	,	-17206	,	-13437	,	6.118446	,	5
46,45	,	37193	,	-17215	,	-13440	,	3.386765	,	2
46,45	,	37225	,	-17217	,	-13442	,	0.71722317	,	0
46,45	,	37242	,	-17213	,	-13442	,	-1.9561219	,	0
46,45	,	37257	,	-17221	,	-13442	,	-4.462178	,	0
46,45	,	37290	,	-17217	,	-13450	,	-6.5791388	,	0
46,45	,	37306	,	-17233	,	-13444	,	-8.207301	,	0
46,45	,	37322	,	-17235	,	-13451	,	-9.440685	,	0
46,45	,	37353	,	-17236	,	-13450	,	-10.452092	,	0
46,45	,	37369	,	-17244	,	-13458	,	-11.315111	,	0
46,45	,	37385	,	-17251	,	-13448	,	-12.067649	,	0
46,45	,	37417	,	-17261	,	-13456	,	-12.818869	,	0
46,45	,	37433	,	-17263	,	-13458	,	-13.677383	,	0
46,45	,	37465	,	-17272	,	-13458	,	-14.656597	,	0
46,45	,	37482	,	-17263	,	-13459	,	-15.636728	,	0
46,45	,	37497	,	-17269	,	-13465	,	-16.362173	,	0
46,45	,	37529	,	-17276	,	-13467	,	-16.61266	,	0
46,45	,	37545	,	-17278	,	-13467	,	-16.389103	,	0
46,45	,	37561	,	-17286	,	-13464	,	-15.8433485	,	0
46,45	,	37593	,	-17275	,	-13463	,	-15.096306	,	0
46,45	,	37609	,	-17258	,	-13457	,	-14.020757	,	0
46,45	,	37641	,	-17246	,	-13446	,	-12.189992	,	1
46,46	,	37657	,	-17226	,	-13444	,	-9.141744	,	2
46,46	,	37673	,	-17207	,	-13432	,	-4.593554	,	5
46,46	,	37705	,	-17191	,	-13429	,	1.4920301	,	9
46,46	,	37721	,	-17182	,	-13429	,	8.819956	,	15
46,46	,	37737	,	-17172	,	-13425	,	16.74512	,	22
46,46	,	37769	,	-17167	,	-13421	,	24.423037	,	29
46,46	,	37785	,	-17159	,	-13419	,	31.034431	,	36
46,46	,	37817	,	-17150	,	-13419	,	35.99349	,	42
46,46	,	37833	,	-17162	,	-13418	,	38.97218	,	45
46,46	,	37849	,	-17160	,	-13416	,	39.745857	,	46
46,46	,	37881	,	-17149	,	-13422	,	38.305862	,	43
46,46	,	37897	,	-17159	,	-13413	,	35.038567	,	39
46,46	,	37913	,	-17161	,	-13421	,	30.468645	,	33
46,46	,	37945	,	-17163	,	-13417	,	25.040699	,	26
46,46	,	37961	,	-17157	,	-13416	,	19.232906	,	19
46,46	,	37977	,	-17159	,	-13417	,	13.591541	,	12
46,46	,	38009	,	-17169	,	-13422	,	8.532607	,	6
46,46	,	38025	,	-17167	,	-13420	,	4.205106	,	2
46,46	,	38057	,	-17166	,	-13419	,	0.6446557	,	0
46,46	,	38073	,	-17176	,	-13417	,	-2.1212878	,	0
46,46	,	38089	,	-17174	,	-13417	,	-4.1700315	,	0
46,46	,	38121	,	-17184	,	-13423	,	-5.675165	,	0
46,46	,	38137	,	-17184	,	-13420	,	-6.820844	,	0
46,46	,	38153	,	-17190	,	-13436	,	-7.7478466	,	0
46,46	,	38185	,	-17204	,	-13429	,	-8.588879	,	0
46,46	,	38201	,	-17202	,	-13431	,	-9.522619	,	0
46,46	,	38233	,	-17215	,	-13441	,	-10.661955	,	0
46,46	,	38249	,	-17226	,	-13429	,	-12.041907	,	0
46,46	,	38265	,	-17219	,	-13439	,	-13.648979	,	0
46,46	,	38297	,	-17226	,	-13439	,	-15.275156	,	0
46,46	,	38313	,	-17233	,	-13443	,	-16.619787	,	0
46,46	,	38329	,	-17246	,	-13447	,	-17.589117	,	0
46,46	,	38361	,	-17244	,	-13433	,	-18.28423	,	0
46,46	,	38377	,	-17249	,	-13454	,	-18.761265	,	0
46,46	,	38393	,	-17261	,	-13454	,	-19.010983	,	0
46,46	,	38425	,	-17250	,	-13445	,	-19.040531	,	0
46,46	,	38441	,	-17237	,	-13442	,	-18.672112	,	0
46,46	,	38473	,	-17217	,	-13435	,	-17.402569	,	0
46,46	,	38489	,	-17211	,	-13431	,	-14.6868	,	1
46,46	,	38505	,	-17191	,	-13420	,	-10.2892475	,	3
46,46	,	38537	,	-17180	,	-13417	,	-4.330863	,	7
46,46	,	38553	,	-17163	,	-13410	,	2.8243322	,	12
46,46	,	38569	,	-17163	,	-13416	,	10.594603	,	19
46,46	,	38601	,	-17146	,	-13405	,	18.239716	,	26
46,46	,	38617	,	-17144	,	-13405	,	25.063858	,	33
46,47	,	38649	,	-17122	,	-13401	,	30.610802	,	39
46,47	,	38665	,	-17122	,	-13396	,	34.719467	,	44
46,47	,	38681	,	-17121	,	-13399	,	37.345364	,	47
46,47	,	38713	,	-17134	,	-13399	,	38.31077	,	47
46,47	,	38729	,	-17119	,	-13402	,	37.41368	,	43
46,47	,	38745	,	-17112	,	-13396	,	34.828922	,	38
46,47	,	38777	,	-17124	,	-13389	,	31.091896	,	31
46,47	,	38793	,	-17129	,	-13399	,	26.62218	,	24
46,47	,	38825	,	-17123	,	-13398	,	21.641943	,	17
46,47	,	38841	,	-17122	,	-13398	,	16.483473	,	11
46,47	,	38857	,	-17131	,	-13401	,	11.568219	,	6
46,47	,	38889	,	-17147	,	-13407	,	7.0837	,	2
46,47	,	38905	,	-17146	,	-13407	,	2.920024	,	0
46,47	,	38921	,	-17153	,	-13412	,	-1.031568	,	0
46,47	,	38953	,	-17156	,	-13412	,	-4.7104645	,	0
46,47	,	38969	,	-17156	,	-13411	,	-7.959122	,	0
46,47	,	38985	,	-17167	,	-13414	,	-10.624843	,	0
46,47	,	39018	,	-17175	,	-13420	,	-12.697066	,	0
46,47	,	39033	,	-17177	,	-13418	,	-14.30365	,	0
46,47	,	39065	,	-17174	,	-13426	,	-15.49873	,	0
46,47	,	39081	,	-17186	,	-13428	,	-16.217598	,	0
46,47	,	39097	,	-17192	,	-13423	,	-16.488342	,	0
46,47	,	39129	,	-17200	,	-13424	,	-16.513586	,	0
46,47	,	39145	,	-17210	,	-13425	,	-16.546297	,	0
46,47	,	39161	,	-17208	,	-13433	,	-16.749746	,	0
46,47	,	39193	,	-17221	,	-13431	,	-17.1289	,	0
46,47	,	39209	,	-17220	,	-13429	,	-17.601711	,	0
46,47	,	39241	,	-17230	,	-13438	,	-18.075714	,	0
46,47	,	39257	,	-17241	,	-13444	,	-18.50888	,	0
46,47	,	39273	,	-17236	,	-13444	,	-18.91463	,	0
46,47	,	39305	,	-17245	,	-13448	,	-19.227167	,	0
46,47	,	39321	,	-17239	,	-13447	,	-19.2869	,	0
46,47	,	39337	,	-17225	,	-13434	,	-18.842178	,	0
46,47	,	39369	,	-17186	,	-13418	,	-17.352852	,	0
46,47	,	39385	,	-17176	,	-13421	,	-14.043102	,	1
46,47	,	39401	,	-17165	,	-13418	,	-8.478627	,	4
46,47	,	39433	,	-17161	,	-13414	,	-1.0108948	,	9
46,47	,	39449	,	-17150	,	-13407	,	7.4256616	,	16
46,47	,	39481	,	-17141	,	-13405	,	15.788576	,	24
46,47	,	39497	,	-17134	,	-13400	,	23.232344	,	32
46,47	,	39513	,	-17126	,	-13401	,	29.186577	,	39
46,47	,	39544	,	-17114	,	-13394	,	33.38352	,	44
46,47	,	39560	,	-17123	,	-13402	,	35.792255	,	48
46,47	,	39577	,	-17125	,	-13393	,	36.380913	,	49
46,47	,	39609	,	-17119	,	-13391	,	35.121075	,	46
46,47	,	39625	,	-17129	,	-13395	,	32.19821	,	41
46,48	,	39656	,	-17128	,	-13392	,	27.96202	,	34
46,48	,	39672	,	-17125	,	-13394	,	22.845396	,	26
46,48	,	39688	,	-17127	,	-13402	,	17.389355	,	18
46,48	,	39720	,	-17131	,	-13403	,	12.106147	,	11
46,48	,	39736	,	-17133	,	-13399	,	7.3290787	,	6
46,48	,	39753	,	-17116	,	-13400	,	3.3193579	,	2
46,48	,	39785	,	-17140	,	-13402	,	0.3077016	,	0
46,48	,	39801	,	-17133	,	-13418	,	-1.7534533	,	0
46,48	,	39817	,	-17147	,	-13394	,	-3.1889372	,	0
46,48	,	39848	,	-17159	,	-13403	,	-4.400865	,	0
46,48	,	39864	,	-17162	,	-13410	,	-5.785778	,	0
46,48	,	39896	,	-17165	,	-13415	,	-7.536478	,	0
46,48	,	39912	,	-17174	,	-13411	,	-9.563513	,	0
46,48	,	39928	,	-17173	,	-13416	,	-11.65967	,	0
46,48	,	39961	,	-17192	,	-13417	,	-13.650501	,	0
46,48	,	39977	,	-17196	,	-13419	,	-15.50724	,	0
46,48	,	39992	,	-17182	,	-13415	,	-17.178625	,	0
46,48	,	40024	,	-17199	,	-13423	,	-18.387535	,	0
46,48	,	40040	,	-17200	,	-13431	,	-18.926895	,	0
46,48	,	40072	,	-17213	,	-13415	,	-18.909088	,	0
46,48	,	40088	,	-17228	,	-13431	,	-18.66502	,	0
46,48	,	40104	,	-17226	,	-13432	,	-18.566006	,	0
46,48	,	40136	,	-17228	,	-13439	,	-18.739853	,	0
46,48	,	40152	,	-17238	,	-13435	,	-19.03384	,	0
46,48	,	40168	,	-17242	,	-13434	,	-19.300224	,	0
46,48	,	40200	,	-17236	,	-13427	,	-19.435568	,	0
46,48	,	40216	,	-17218	,	-13423	,	-19.142502	,	0
46,48	,	40233	,	-17187	,	-13420	,	-17.782806	,	0
46,48	,	40264	,	-17183	,	-13404	,	-14.614979	,	1
46,48	,	40280	,	-17169	,	-13410	,	-9.351076	,	4
46,48	,	40312	,	-17163	,	-13394	,	-2.3855953	,	9
46,48	,	40328	,	-17154	,	-13398	,	5.4727073	,	15
46,48	,	40344	,	-17145	,	-13391	,	13.328489	,	22
46,48	,	40376	,	-17131	,	-13389	,	20.450096	,	29
46,48	,	40392	,	-17136	,	-13382	,	26.336967	,	36
46,48	,	40409	,	-17140	,	-13385	,	30.54339	,	41
46,48	,	40440	,	-17139	,	-13385	,	32.646202	,	45
46,48	,	40456	,	-17133	,	-13384	,	32.51721	,	46
46,48	,	40488	,	-17140	,	-13383	,	30.436047	,	43
46,48	,	40504	,	-17137	,	-13376	,	26.878735	,	38
46,48	,	40520	,	-17131	,	-13388	,	22.398178	,	32
46,48	,	40552	,	-17142	,	-13372	,	17.58443	,	25
46,48	,	40568	,	-17136	,	-13379	,	12.895078	,	18
46,48	,	40584	,	-17141	,	-13385	,	8.614386	,	11
46,48	,	40616	,	-17152	,	-13384	,	4.8732033	,	6
46,48	,	40632	,	-17149	,	-13388	,	1.6256514	,	2
46,49	,	40664	,	-17161	,	-13387	,	-1.2301989	,	0
46,49	,	40680	,	-17164	,	-13385	,	-3.7854428	,	0
46,49	,	40696	,	-17164	,	-13386	,	-6.1014113	,	0
46,49	,	40728	,	-17162	,	-13392	,	-8.100135	,	0
46,49	,	40744	,	-17176	,	-13390	,	-9.6456175	,	0
46,49	,	40760	,	-17182	,	-13395	,	-10.782818	,	0
46,49	,	40792	,	-17184	,	-13398	,	-11.705847	,	0
46,49	,	40808	,	-17191	,	-13396	,	-12.538225	,	0
46,49	,	40824	,	-17200	,	-13400	,	-13.332206	,	0
46,49	,	40856	,	-17202	,	-13398	,	-14.145905	,	0
46,49	,	40872	,	-17212	,	-13396	,	-14.996162	,	0
46,49	,	40904	,	-17219	,	-13403	,	-15.875968	,	0
46,49	,	40920	,	-17225	,	-13408	,	-16.800282	,	0
46,49	,	40936	,	-17227	,	-13410	,	-17.737762	,	0
46,49	,	40968	,	-17237	,	-13411	,	-18.588242	,	0
46,49	,	40984	,	-17242	,	-13415	,	-19.278568	,	0
46,49	,	41000	,	-17240	,	-13414	,	-19.76241	,	0
46,49	,	41032	,	-17242	,	-13420	,	-19.917791	,	0
46,49	,	41048	,	-17225	,	-13411	,	-19.501877	,	0
46,49	,	41080	,	-17198	,	-13397	,	-18.065804	,	0
46,49	,	41096	,	-17192	,	-13397	,	-15.03247	,	1
46,49	,	41112	,	-17176	,	-13391	,	-10.12391	,	4
46,49	,	41144	,	-17164	,	-13390	,	-3.571495	,	8
46,49	,	41160	,	-17157	,	-13382	,	4.0472093	,	14
46,49	,	41176	,	-17152	,	-13380	,	11.946772	,	21
46,49	,	41208	,	-17145	,	-13379	,	19.27508	,	28
46,49	,	41224	,	-17142	,	-13374	,	25.31425	,	35
46,49	,	41240	,	-17128	,	-13369	,	29.645218	,	41
46,49	,	41272	,	-17126	,	-13378	,	32.214672	,	45
46,49	,	41288	,	-17134	,	-13359	,	33.135735	,	46
46,49	,	41320	,	-17133	,	-13367	,	32.44243	,	43
46,49	,	41336	,	-17133	,	-13365	,	30.19593	,	39
46,49	,	41352	,	-17133	,	-13368	,	26.670448	,	33
46,49	,	41384	,	-17133	,	-13367	,	22.306332	,	26
46,49	,	41400	,	-17134	,	-13368	,	17.578953	,	19
46,49	,	41416	,	-17133	,	-13364	,	12.91313	,	12
46,49	,	41448	,	-17129	,	-13374	,	8.669314	,	6
46,49	,	41464	,	-17135	,	-13369	,	5.120325	,	2
46,49	,	41496	,	-17141	,	-13369	,	2.3414779	,	0
46,49	,	41512	,	-17145	,	-13380	,	0.18236065	,	0
46,49	,	41528	,	-17146	,	-13361	,	-1.5763936	,	0
46,49	,	41560	,	-17161	,	-13374	,	-3.1292272	,	0
46,49	,	41576	,	-17165	,	-13372	,	-4.7025967	,	0
46,49	,	41592	,	-17169	,	-13380	,	-6.477163	,	0
46,49	,	41624	,	-17171	,	-13383	,	-8.42464	,	0
46,49	,	41640	,	-17176	,	-13385	,	-10.350319	,	0
46,50	,	41656	,	-17183	,	-13383	,	-12.06997	,	0
46,50	,	41688	,	-17198	,	-13382	,	-13.559896	,	0
46,50	,	41704	,	-17194	,	-13390	,	-14.92208	,	0
46,50	,	41735	,	-17197	,	-13393	,	-16.142237	,	0
46,50	,	41752	,	-17205	,	-13395	,	-17.059904	,	0
46,50	,	41768	,	-17207	,	-13384	,	-17.585676	,	0
46,50	,	41800	,	-17220	,	-13397	,	-17.776222	,	0
46,50	,	41816	,	-17227	,	-13394	,	-17.806746	,	0
46,50	,	41832	,	-17240	,	-13400	,	-17.93007	,	0
46,50	,	41864	,	-17247	,	-13401	,	-18.37209	,	0
46,50	,	41880	,	-17232	,	-13401	,	-19.11596	,	0
46,50	,	41911	,	-17231	,	-13403	,	-19.728031	,	0
46,50	,	41928	,	-17216	,	-13395	,	-19.557117	,	0
46,50	,	41944	,	-17198	,	-13386	,	-18.025154	,	0
46,50	,	41976	,	-17182	,	-13382	,	-14.711717	,	1
46,50	,	41992	,	-17168	,	-13385	,	-9.470652	,	4
46,50	,	42008	,	-17166	,	-13374	,	-2.598733	,	9
46,50	,	42040	,	-17161	,	-13372	,	5.1434464	,	15
46,50	,	42056	,	-17145	,	-13366	,	12.815577	,	22
46,50	,	42071	,	-17138	,	-13365	,	19.69799	,	29
46,50	,	42103	,	-17129	,	-13372	,	25.386744	,	35
46,50	,	42120	,	-17124	,	-13362	,	29.667892	,	40
46,50	,	42152	,	-17126	,	-13364	,	32.412613	,	44
46,50	,	42168	,	-17130	,	-13372	,	33.489746	,	45
46,50	,	42184	,	-17127	,	-13369	,	32.811344	,	43
46,50	,	42216	,	-17128	,	-13363	,	30.496744	,	38
46,50	,	42232	,	-17128	,	-13365	,	26.89372	,	32
46,50	,	42247	,	-17118	,	-13359	,	22.510729	,	25
46,50	,	42279	,	-17114	,	-13364	,	17.988188	,	18
46,50	,	42295	,	-17129	,	-13357	,	13.860504	,	12
46,50	,	42328	,	-17129	,	-13363	,	10.259043	,	7
46,50	,	42344	,	-17142	,	-13364	,	7.00095	,	3
46,50	,	42360	,	-17138	,	-13362	,	3.8763285	,	1
46,50	,	42392	,	-17150	,	-13366	,	0.8002682	,	0
46,50	,	42408	,	-17138	,	-13364	,	-2.1491551	,	0
46,50	,	42423	,	-17151	,	-13365	,	-4.76042	,	0
46,50	,	42455	,	-17156	,	-13370	,	-6.882279	,	0
46,50	,	42471	,	-17153	,	-13373	,	-8.531664	,	0
46,50	,	42487	,	-17159	,	-13371	,	-9.729965	,	0
46,50	,	42520	,	-17168	,	-13375	,	-10.504152	,	0
46,50	,	42535	,	-17178	,	-13381	,	-11.0424595	,	0
46,50	,	42567	,	-17180	,	-13380	,	-11.612387	,	0
46,50	,	42583	,	-17183	,	-13382	,	-12.340549	,	0
46,50	,	42599	,	-17194	,	-13378	,	-13.187557	,	0
46,50	,	42632	,	-17192	,	-13384	,	-14.080962	,	0
46,50	,	42648	,	-17202	,	-13385	,	-14.944624	,	0
46,51	,	42664	,	-17202	,	-13389	,	-15.6916275	,	0
46,51	,	42695	,	-17216	,	-13384	,	-16.283506	,	0
46,51	,	42711	,	-17216	,	-13388	,	-16.760109	,	0
46,51	,	42743	,	-17218	,	-13400	,	-17.142456	,	0
46,51	,	42760	,	-17221	,	-13390	,	-17.34305	,	0
46,51	,	42775	,	-17200	,	-13383	,	-17.140045	,	0
46,51	,	42807	,	-17186	,	-13373	,	-16.090092	,	0
46,51	,	42823	,	-17179	,	-13373	,	-13.687093	,	1
46,51	,	42839	,	-17167	,	-13364	,	-9.746971	,	3
46,51	,	42871	,	-17163	,	-13370	,	-4.5099373	,	6
46,51	,	42887	,	-17149	,	-13367	,	1.5267043	,	11
46,51	,	42904	,	-17145	,	-13363	,	7.7994843	,	17
46,51	,	42935	,	-17140	,	-13361	,	13.758612	,	23
46,51	,	42951	,	-17130	,	-13358	,	18.910292	,	28
46,51	,	42983	,	-17143	,	-13373	,	22.85302	,	33
46,51	,	42999	,	-17126	,	-13350	,	25.2813	,	36
46,51	,	43015	,	-17132	,	-13360	,	26.117996	,	37
46,51	,	43047	,	-17131	,	-13358	,	25.519295	,	35
46,51	,	43063	,	-17142	,	-13358	,	23.653946	,	32
46,51	,	43079	,	-17123	,	-13358	,	20.738306	,	27
46,51	,	43111	,	-17133	,	-13358	,	17.211357	,	21
46,51	,	43127	,	-17134	,	-13357	,	13.551055	,	15
46,51	,	43159	,	-17134	,	-13353	,	10.040149	,	10
46,51	,	43175	,	-17147	,	-13355	,	6.787942	,	5
46,51	,	43191	,	-17133	,	-13358	,	3.8182883	,	2
46,51	,	43223	,	-17141	,	-13370	,	1.2230906	,	0
46,51	,	43239	,	-17143	,	-13352	,	-0.8619721	,	0
46,51	,	43255	,	-17156	,	-13362	,	-2.4859552	,	0
46,51	,	43287	,	-17163	,	-13366	,	-3.912806	,	0
46,51	,	43303	,	-17172	,	-13362	,	-5.457334	,	0
46,51	,	43319	,	-17172	,	-13370	,	-7.2920675	,	0
46,51	,	43351	,	-17184	,	-13367	,	-9.376086	,	0
46,51	,	43367	,	-17178	,	-13372	,	-11.522913	,	0
46,51	,	43399	,	-17182	,	-13375	,	-13.437723	,	0
46,51	,	43415	,	-17193	,	-13374	,	-14.851896	,	0
46,51	,	43431	,	-17190	,	-13379	,	-15.704015	,	0
46,51	,	43463	,	-17198	,	-13388	,	-16.063019	,	0
46,51	,	43479	,	-17207	,	-13382	,	-16.05111	,	0
46,51	,	43495	,	-17214	,	-13389	,	-15.887905	,	0
46,51	,	43527	,	-17224	,	-13389	,	-15.824419	,	0
46,51	,	43543	,	-17226	,	-13389	,	-16.029345	,	0
46,51	,	43575	,	-17224	,	-13392	,	-16.477621	,	0
46,51	,	43591	,	-17222	,	-13387	,	-16.901129	,	0
46,51	,	43607	,	-17201	,	-13380	,	-16.837675	,	0
46,51	,	43639	,	-17186	,	-13377	,	-15.688478	,	0
46,52	,	43655	,	-17180	,	-13374	,	-12.949951	,	1
46,52	,	43671	,	-17172	,	-13371	,	-8.556725	,	3
46,52	,	43703	,	-17155	,	-13372	,	-2.866404	,	7
46,52	,	43719	,	-17158	,	-13361	,	3.574573	,	12
46,52	,	43751	,	-17144	,	-13366	,	10.111485	,	18
46,52	,	43767	,	-17149	,	-13360	,	16.067034	,	24
46,52	,	43783	,	-17151	,	-13364	,	20.820694	,	29
46,52	,	43815	,	-17145	,	-13360	,	23.884611	,	33
46,52	,	43831	,	-17144	,	-13365	,	25.098686	,	36
46,52	,	43847	,	-17145	,	-13362	,	24.636654	,	36
46,52	,	43879	,	-17141	,	-13360	,	22.828165	,	34
46,52	,	43895	,	-17146	,	-13354	,	20.062347	,	30
46,52	,	43911	,	-17139	,	-13359	,	16.74194	,	25
46,52	,	43943	,	-17144	,	-13361	,	13.25766	,	19
46,52	,	43959	,	-17146	,	-13362	,	9.916015	,	13
46,52	,	43991	,	-17150	,	-13356	,	6.8618207	,	8
46,52	,	44007	,	-17153	,	-13363	,	4.1172557	,	4
46,52	,	44023	,	-17156	,	-13360	,	1.6601043	,	1
46,52	,	44055	,	-17164	,	-13365	,	-0.5550566	,	0
46,52	,	44071	,	-17173	,	-13370	,	-2.6378288	,	0
46,52	,	44087	,	-17173	,	-13365	,	-4.7175508	,	0
46,52	,	44119	,	-17184	,	-13372	,	-6.8292108	,	0
46,52	,	44135	,	-17179	,	-13369	,	-8.902996	,	0
46,52	,	44167	,	-17185	,	-13371	,	-10.776934	,	0
46,52	,	44183	,	-17189	,	-13365	,	-12.263974	,	0
46,52	,	44199	,	-17199	,	-13379	,	-13.308634	,	0
46,52	,	44231	,	-17196	,	-13370	,	-13.98675	,	0
46,52	,	44247	,	-17213	,	-13378	,	-14.41272	,	0
46,52	,	44263	,	-17213	,	-13376	,	-14.7455635	,	0
46,52	,	44295	,	-17215	,	-13380	,	-15.096884	,	0
46,52	,	44311	,	-17217	,	-13384	,	-15.402567	,	0
46,52	,	44327	,	-17224	,	-13390	,	-15.538496	,	0
46,52	,	44359	,	-17223	,	-13382	,	-15.457374	,	0
46,52	,	44375	,	-17230	,	-13391	,	-15.160244	,	0
46,52	,	44407	,	-17237	,	-13385	,	-14.702814	,	0
46,52	,	44423	,	-17218	,	-13384	,	-14.118339	,	0
46,52	,	44439	,	-17212	,	-13385	,	-13.181492	,	0
46,52	,	44471	,	-17195	,	-13368	,	-11.451754	,	0
46,52	,	44487	,	-17172	,	-13365	,	-8.501135	,	1
46,52	,	44503	,	-17158	,	-13356	,	-4.017837	,	3
46,52	,	44535	,	-17160	,	-13355	,	1.9454026	,	7
46,52	,	44551	,	-17149	,	-13360	,	8.775898	,	12
46,52	,	44583	,	-17137	,	-13356	,	15.623289	,	18
46,52	,	44599	,	-17119	,	-13353	,	21.878305	,	24
46,52	,	44615	,	-17121	,	-13347	,	27.224382	,	30
46,52	,	44647	,	-17120	,	-13343	,	31.35461	,	35
46,53	,	44663	,	-17117	,	-13341	,	33.896805	,	39
46,53	,	44679	,	-17130	,	-13353	,	34.569637	,	40
46,53	,	44710	,	-17127	,	-13334	,	33.24746	,	38
46,53	,	44727	,	-17118	,	-13340	,	30.104969	,	34
46,53	,	44743	,	-17109	,	-13341	,	25.775913	,	29
46,53	,	44775	,	-17119	,	-13339	,	21.078	,	23
46,53	,	44790	,	-17121	,	-13335	,	16.54405	,	17
46,53	,	44823	,	-17126	,	-13340	,	12.34233	,	11
46,53	,	44839	,	-17125	,	-13337	,	8.508033	,	6
46,53	,	44855	,	-17129	,	-13334	,	5.084533	,	2
46,53	,	44887	,	-17125	,	-13343	,	2.1387115	,	0
46,53	,	44903	,	-17129	,	-13342	,	-0.24844813	,	0
46,53	,	44919	,	-17141	,	-13358	,	-2.087579	,	0
46,53	,	44951	,	-17140	,	-13341	,	-3.5599284	,	0
46,53	,	44966	,	-17159	,	-13350	,	-4.9280186	,	0
46,53	,	44998	,	-17151	,	-13345	,	-6.410089	,	0
46,53	,	45015	,	-17161	,	-13354	,	-8.041083	,	0
46,53	,	45031	,	-17174	,	-13352	,	-9.73505	,	0
46,53	,	45063	,	-17172	,	-13351	,	-11.470522	,	0
46,53	,	45079	,	-17178	,	-13350	,	-13.188117	,	0
46,53	,	45095	,	-17177	,	-13361	,	-14.693182	,	0
46,53	,	45126	,	-17183	,	-13359	,	-15.775362	,	0
46,53	,	45142	,	-17186	,	-13360	,	-16.32833	,	0
46,53	,	45158	,	-17194	,	-13369	,	-16.395643	,	0
46,53	,	45190	,	-17196	,	-13365	,	-16.125559	,	0
46,53	,	45207	,	-17207	,	-13369	,	-15.701666	,	0
46,53	,	45239	,	-17214	,	-13362	,	-15.334969	,	0
46,53	,	45255	,	-17211	,	-13368	,	-15.179905	,	0
46,53	,	45271	,	-17207	,	-13366	,	-15.147854	,	0
46,53	,	45302	,	-17189	,	-13352	,	-14.851664	,	0
46,53	,	45319	,	-17173	,	-13354	,	-13.705788	,	0
46,53	,	45334	,	-17159	,	-13350	,	-11.14127	,	1
46,53	,	45366	,	-17148	,	-13349	,	-6.896158	,	3
46,53	,	45383	,	-17139	,	-13340	,	-1.1590405	,	7
46,53	,	45415	,	-17127	,	-13338	,	5.5332985	,	12
46,53	,	45431	,	-17120	,	-13337	,	12.507743	,	18
46,53	,	45447	,	-17114	,	-13331	,	19.094908	,	24
46,53	,	45479	,	-17091	,	-13331	,	24.782293	,	30
46,53	,	45494	,	-17092	,	-13326	,	29.351616	,	35
46,53	,	45510	,	-17101	,	-13326	,	32.642	,	39
46,53	,	45542	,	-17106	,	-13328	,	34.269024	,	41
46,53	,	45558	,	-17095	,	-13324	,	33.899582	,	40
46,53	,	45574	,	-17100	,	-13322	,	31.645779	,	36
46,53	,	45607	,	-17097	,	-13324	,	27.97552	,	31
46,53	,	45623	,	-17104	,	-13323	,	23.416943	,	25
46,54	,	45654	,	-17095	,	-13330	,	18.464878	,	19
46,54	,	45670	,	-17106	,	-13328	,	13.571639	,	13
46,54	,	45686	,	-17097	,	-13328	,	9.081585	,	8
46,54	,	45718	,	-17125	,	-13331	,	5.1293488	,	4
46,54	,	45734	,	-17127	,	-13337	,	1.5402503	,	1
46,54	,	45750	,	-17125	,	-13331	,	-1.9390645	,	0
46,54	,	45782	,	-17130	,	-13335	,	-5.27291	,	0
46,54	,	45798	,	-17124	,	-13337	,	-8.186302	,	0
46,54	,	45830	,	-17144	,	-13340	,	-10.453922	,	0
46,54	,	45846	,	-17136	,	-13343	,	-12.066753	,	0
46,54	,	45862	,	-17152	,	-13340	,	-13.153675	,	0
46,54	,	45894	,	-17140	,	-13347	,	-13.814209	,	0
46,54	,	45910	,	-17164	,	-13357	,	-14.118398	,	0
46,54	,	45926	,	-17166	,	-13344	,	-14.261595	,	0
46,54	,	45958	,	-17177	,	-13356	,	-14.549051	,	0
46,54	,	45974	,	-17180	,	-13353	,	-15.163701	,	0
46,54	,	46006	,	-17185	,	-13355	,	-16.075294	,	0
46,54	,	46022	,	-17197	,	-13361	,	-17.148514	,	0
46,54	,	46038	,	-17194	,	-13360	,	-18.244783	,	0
46,54	,	46070	,	-17198	,	-13364	,	-19.177095	,	0
46,54	,	46086	,	-17208	,	-13359	,	-19.752295	,	0
46,54	,	46102	,	-17211	,	-13366	,	-19.941017	,	0
46,54	,	46134	,	-17208	,	-13360	,	-19.791687	,	0
46,54	,	46150	,	-17204	,	-13370	,	-19.22197	,	0
46,54	,	46166	,	-17188	,	-13347	,	-17.985008	,	0
46,54	,	46198	,	-17163	,	-13344	,	-15.673842	,	1
46,54	,	46214	,	-17142	,	-13346	,	-11.773391	,	3
46,54	,	46246	,	-17135	,	-13341	,	-5.990548	,	6
46,54	,	46262	,	-17132	,	-13338	,	1.3582902	,	11
46,54	,	46278	,	-17118	,	-13336	,	9.421009	,	18
46,54	,	46310	,	-17119	,	-13332	,	17.229437	,	26
46,54	,	46326	,	-17115	,	-13329	,	23.926384	,	33
46,54	,	46342	,	-17085	,	-13331	,	28.980927	,	39
46,54	,	46374	,	-17101	,	-13325	,	32.351826	,	44
46,54	,	46390	,	-17102	,	-13332	,	34.080368	,	46
46,54	,	46422	,	-17113	,	-13312	,	33.96846	,	45
46,54	,	46438	,	-17104	,	-13327	,	31.891533	,	42
46,54	,	46454	,	-17105	,	-13326	,	28.128664	,	37
46,54	,	46486	,	-17100	,	-13323	,	23.314245	,	30
46,54	,	46502	,	-17105	,	-13324	,	18.156	,	22
46,54	,	46518	,	-17105	,	-13326	,	13.190827	,	15
46,54	,	46550	,	-17107	,	-13328	,	8.738341	,	9
46,54	,	46566	,	-17104	,	-13326	,	4.9867268	,	4
46,54	,	46582	,	-17114	,	-13327	,	2.011476	,	1
46,54	,	46614	,	-17116	,	-13325	,	-0.28379965	,	0
46,54	,	46630	,	-17135	,	-13338	,	-2.1754498	,	0
46,55	,	46662	,	-17125	,	-13318	,	-3.98414	,	0
46,55	,	46678	,	-17135	,	-13331	,	-5.830357	,	0
46,55	,	46694	,	-17150	,	-13334	,	-7.689706	,	0
46,55	,	46726	,	-17152	,	-13336	,	-9.624741	,	0
46,55	,	46742	,	-17156	,	-13335	,	-11.663586	,	0
46,55	,	46758	,	-17161	,	-13339	,	-13.656828	,	0
46,55	,	46790	,	-17165	,	-13337	,	-15.404771	,	0
46,55	,	46806	,	-17174	,	-13342	,	-16.78698	,	0
46,55	,	46838	,	-17166	,	-13337	,	-17.736132	,	0
46,55	,	46854	,	-17167	,	-13341	,	-18.110071	,	0
46,55	,	46870	,	-17174	,	-13347	,	-17.760372	,	0
46,55	,	46902	,	-17186	,	-13337	,	-16.794415	,	0
46,55	,	46918	,	-17188	,	-13342	,	-15.586442	,	0
46,55	,	46934	,	-17202	,	-13349	,	-14.539925	,	1
46,55	,	46966	,	-17208	,	-13348	,	-13.96438	,	2
46,55	,	46982	,	-17197	,	-13350	,	-13.950558	,	2
46,55	,	46998	,	-17187	,	-13347	,	-14.1589575	,	2
46,55	,	47030	,	-17176	,	-13344	,	-13.919927	,	2
46,55	,	47046	,	-17160	,	-13336	,	-12.584379	,	2
46,55	,	47078	,	-17152	,	-13336	,	-9.757891	,	3
46,55	,	47094	,	-17141	,	-13324	,	-5.416928	,	5
46,55	,	47110	,	-17140	,	-13329	,	0.06896591	,	9
46,55	,	47142	,	-17137	,	-13319	,	6.0260515	,	13
46,55	,	47158	,	-17128	,	-13321	,	11.699038	,	17
46,55	,	47174	,	-17127	,	-13321	,	16.507444	,	22
46,55	,	47206	,	-17125	,	-13322	,	20.095108	,	26
46,55	,	47222	,	-17123	,	-13324	,	22.269283	,	29
46,55	,	47254	,	-17138	,	-13324	,	22.9299	,	31
46,55	,	47270	,	-17129	,	-13324	,	22.030134	,	30
46,55	,	47286	,	-17122	,	-13322	,	19.777737	,	28
46,55	,	47317	,	-17123	,	-13324	,	16.72253	,	24
46,55	,	47333	,	-17117	,	-13326	,	13.473859	,	19
46,55	,	47350	,	-17130	,	-13326	,	10.4416895	,	14
46,55	,	47382	,	-17121	,	-13332	,	7.7752204	,	9
46,55	,	47398	,	-17133	,	-13320	,	5.4603477	,	5
46,55	,	47414	,	-17141	,	-13331	,	3.3713737	,	2
46,55	,	47446	,	-17146	,	-13326	,	1.2739093	,	0
46,55	,	47462	,	-17152	,	-13328	,	-1.0135763	,	0
46,55	,	47493	,	-17148	,	-13327	,	-3.4691277	,	0
46,55	,	47509	,	-17153	,	-13327	,	-5.8731666	,	0
46,55	,	47526	,	-17153	,	-13333	,	-7.9501944	,	0
46,55	,	47558	,	-17163	,	-13329	,	-9.546393	,	0
46,55	,	47574	,	-17166	,	-13337	,	-10.69202	,	0
46,55	,	47590	,	-17167	,	-13331	,	-11.495905	,	0
46,55	,	47621	,	-17171	,	-13343	,	-12.0117445	,	0
46,55	,	47637	,	-17184	,	-13329	,	-12.30199	,	0
46,56	,	47669	,	-17186	,	-13341	,	-12.534911	,	0
46,56	,	47686	,	-17193	,	-13345	,	-12.876687	,	0
46,56	,	47701	,	-17194	,	-13346	,	-13.367939	,	0
46,56	,	47734	,	-17203	,	-13345	,	-13.953485	,	0
46,56	,	47750	,	-17210	,	-13347	,	-14.5874405	,	0
46,56	,	47766	,	-17202	,	-13347	,	-15.214907	,	0
46,56	,	47797	,	-17193	,	-13341	,	-15.587098	,	0
46,56	,	47813	,	-17178	,	-13344	,	-15.218567	,	0
46,56	,	47829	,	-17174	,	-13336	,	-13.628662	,	0
46,56	,	47861	,	-17159	,	-13341	,	-10.6052	,	1
46,56	,	47877	,	-17148	,	-13326	,	-6.2260313	,	4
46,56	,	47910	,	-17139	,	-13327	,	-0.76202345	,	8
46,56	,	47926	,	-17134	,	-13318	,	5.328557	,	13
46,56	,	47942	,	-17134	,	-13318	,	11.410353	,	19
46,56	,	47973	,	-17125	,	-13316	,	16.8134	,	25
46,56	,	47989	,	-17121	,	-13317	,	21.05495	,	30
46,56	,	48005	,	-17116	,	-13317	,	23.932957	,	34
46,56	,	48037	,	-17107	,	-13315	,	25.475044	,	36
46,56	,	48053	,	-17125	,	-13314	,	25.784885	,	36
46,56	,	48085	,	-17123	,	-13314	,	24.840105	,	33
46,56	,	48102	,	-17114	,	-13326	,	22.649508	,	29
46,56	,	48118	,	-17123	,	-13310	,	19.519054	,	24
46,56	,	48149	,	-17114	,	-13321	,	15.904552	,	18
46,56	,	48165	,	-17115	,	-13317	,	12.244227	,	12
46,56	,	48181	,	-17125	,	-13315	,	8.870853	,	7
46,56	,	48213	,	-17122	,	-13317	,	5.883748	,	3
46,56	,	48229	,	-17139	,	-13321	,	3.1963267	,	1
46,56	,	48261	,	-17138	,	-13325	,	0.6396599	,	0
46,56	,	48278	,	-17144	,	-13324	,	-1.9108703	,	0
46,56	,	48294	,	-17149	,	-13325	,	-4.442208	,	0
46,56	,	48325	,	-17143	,	-13325	,	-6.8263054	,	0
46,56	,	48341	,	-17154	,	-13334	,	-8.858536	,	0
46,56	,	48357	,	-17158	,	-13320	,	-10.414954	,	0
46,56	,	48389	,	-17171	,	-13336	,	-11.583214	,	0
46,56	,	48405	,	-17177	,	-13334	,	-12.587517	,	0
46,56	,	48421	,	-17180	,	-13343	,	-13.619436	,	0
46,56	,	48453	,	-17186	,	-13342	,	-14.710497	,	0
46,56	,	48470	,	-17192	,	-13345	,	-15.780442	,	0
46,56	,	48501	,	-17195	,	-13339	,	-16.740337	,	0
46,56	,	48517	,	-17198	,	-13343	,	-17.493687	,	0
46,56	,	48533	,	-17201	,	-13344	,	-17.932392	,	0
46,56	,	48565	,	-17202	,	-13352	,	-17.974163	,	0
46,56	,	48581	,	-17205	,	-13354	,	-17.5836	,	0
46,56	,	48597	,	-17195	,	-13337	,	-16.731571	,	0
46,56	,	48629	,	-17175	,	-13340	,	-15.237974	,	0
46,57	,	48645	,	-17147	,	-13331	,	-12.632435	,	1
46,57	,	48677	,	-17141	,	-13324	,	-8.383758	,	3
46,57	,	48693	,	-17132	,	-13324	,	-2.4141264	,	7
46,57	,	48709	,	-17121	,	-13315	,	4.752837	,	12
46,57	,	48741	,	-17113	,	-13312	,	12.321517	,	19
46,57	,	48757	,	-17095	,	-13306	,	19.559525	,	26
46,57	,	48773	,	-17089	,	-13299	,	25.955927	,	33
46,57	,	48805	,	-17082	,	-13303	,	31.179846	,	39
46,57	,	48821	,	-17091	,	-13305	,	34.907604	,	44
46,57	,	48837	,	-17081	,	-13301	,	36.800972	,	46
46,57	,	48869	,	-17080	,	-13303	,	36.74067	,	45
46,57	,	48885	,	-17092	,	-13300	,	34.89057	,	41
46,57	,	48917	,	-17082	,	-13301	,	31.520555	,	36
46,57	,	48933	,	-17082	,	-13304	,	27.044355	,	29
46,57	,	48949	,	-17077	,	-13301	,	22.067652	,	22
46,57	,	48981	,	-17081	,	-13302	,	17.177296	,	15
46,57	,	48997	,	-17082	,	-13304	,	12.741979	,	9
46,57	,	49013	,	-17087	,	-13298	,	8.887405	,	4
46,57	,	49045	,	-17100	,	-13301	,	5.5372667	,	1
46,57	,	49061	,	-17098	,	-13304	,	2.4874334	,	0
46,57	,	49093	,	-17106	,	-13305	,	-0.41060972	,	0
46,57	,	49109	,	-17110	,	-13302	,	-3.172639	,	0
46,57	,	49125	,	-17121	,	-13313	,	-5.7922945	,	0
46,57	,	49157	,	-17130	,	-13307	,	-8.316907	,	0
46,57	,	49173	,	-17132	,	-13317	,	-10.794531	,	0
46,57	,	49189	,	-17141	,	-13314	,	-13.17659	,	0
46,57	,	49221	,	-17141	,	-13316	,	-15.324038	,	0
46,57	,	49237	,	-17148	,	-13322	,	-17.07513	,	0
46,57	,	49253	,	-17151	,	-13317	,	-18.306608	,	0
46,57	,	49285	,	-17159	,	-13325	,	-18.993185	,	0
46,57	,	49301	,	-17163	,	-13331	,	-19.214226	,	0
46,57	,	49333	,	-17167	,	-13334	,	-19.096582	,	0
46,57	,	49349	,	-17180	,	-13325	,	-18.78936	,	0
46,57	,	49365	,	-17186	,	-13335	,	-18.493925	,	0
46,57	,	49397	,	-17190	,	-13340	,	-18.385077	,	0
46,57	,	49413	,	-17180	,	-13330	,	-18.419586	,	0
46,57	,	49429	,	-17168	,	-13325	,	-18.220665	,	0
46,57	,	49461	,	-17146	,	-13323	,	-17.145987	,	0
46,57	,	49477	,	-17130	,	-13314	,	-14.525398	,	1
46,57	,	49509	,	-17118	,	-13310	,	-9.9794235	,	3
46,57	,	49525	,	-17111	,	-13303	,	-3.6541567	,	7
46,57	,	49541	,	-17096	,	-13299	,	3.840497	,	13
46,57	,	49573	,	-17090	,	-13308	,	11.718498	,	20
46,57	,	49589	,	-17082	,	-13294	,	19.209702	,	27
46,57	,	49605	,	-17068	,	-13295	,	25.67688	,	34
46,57	,	49637	,	-17027	,	-13290	,	30.918499	,	40
46,58	,	49653	,	-17050	,	-13289	,	35.151142	,	45
46,58	,	49685	,	-17064	,	-13287	,	38.24881	,	48
46,58	,	49701	,	-17060	,	-13291	,	39.49681	,	49
46,58	,	49717	,	-17069	,	-13288	,	38.339348	,	46
46,58	,	49749	,	-17063	,	-13292	,	34.826286	,	40
46,58	,	49765	,	-17068	,	-13290	,	29.486446	,	33
46,58	,	49780	,	-17062	,	-13288	,	23.108976	,	26
46,58	,	49812	,	-17067	,	-13297	,	16.516663	,	19
46,58	,	49829	,	-17057	,	-13289	,	10.422341	,	13
46,58	,	49861	,	-17084	,	-13293	,	5.2627754	,	8
46,58	,	49877	,	-17076	,	-13295	,	1.0464234	,	4
46,58	,	49893	,	-17085	,	-13298	,	-2.4182992	,	1
46,58	,	49925	,	-17093	,	-13298	,	-5.268895	,	0
46,58	,	49941	,	-17100	,	-13293	,	-7.6669993	,	0
46,58	,	49957	,	-17108	,	-13307	,	-9.807715	,	0
46,58	,	49988	,	-17104	,	-13305	,	-11.7758465	,	0
46,58	,	50005	,	-17116	,	-13306	,	-13.501017	,	0
46,58	,	50021	,	-17119	,	-13308	,	-14.895092	,	0
46,58	,	50053	,	-17120	,	-13317	,	-15.92779	,	0
46,58	,	50069	,	-17135	,	-13307	,	-16.601908	,	0
46,58	,	50101	,	-17145	,	-13317	,	-17.057852	,	0
46,58	,	50117	,	-17146	,	-13316	,	-17.530764	,	0
46,58	,	50132	,	-17153	,	-13327	,	-18.11013	,	0
46,58	,	50164	,	-17159	,	-13318	,	-18.725262	,	0
46,58	,	50180	,	-17161	,	-13330	,	-19.274734	,	0
46,58	,	50197	,	-17166	,	-13333	,	-19.649603	,	0
46,58	,	50228	,	-17175	,	-13331	,	-19.778065	,	0
46,58	,	50244	,	-17176	,	-13331	,	-19.68002	,	0
46,58	,	50276	,	-17177	,	-13330	,	-19.375824	,	0
46,58	,	50293	,	-17167	,	-13334	,	-18.75662	,	0
46,58	,	50309	,	-17162	,	-13313	,	-17.574924	,	0
46,58	,	50341	,	-17126	,	-13312	,	-15.435607	,	1
46,58	,	50357	,	-17118	,	-13307	,	-11.811388	,	3
46,58	,	50373	,	-17107	,	-13301	,	-6.4076405	,	6
46,58	,	50404	,	-17104	,	-13303	,	0.45519495	,	11
46,58	,	50420	,	-17085	,	-13300	,	8.01774	,	17
46,58	,	50436	,	-17087	,	-13300	,	15.477114	,	24
46,58	,	50468	,	-17078	,	-13298	,	22.115957	,	31
46,58	,	50484	,	-17053	,	-13296	,	27.45192	,	37
46,58	,	50517	,	-17067	,	-13292	,	31.356525	,	42
46,58	,	50533	,	-17085	,	-13308	,	33.63536	,	44
46,58	,	50548	,	-17088	,	-13295	,	33.77986	,	44
46,58	,	50580	,	-17090	,	-13294	,	31.472477	,	41
46,58	,	50596	,	-17080	,	-13298	,	27.026907	,	36
46,58	,	50612	,	-17077	,	-13293	,	21.306393	,	30
46,58	,	50644	,	-17079	,	-13301	,	15.329016	,	23
46,59	,	50660	,	-17084	,	-13300	,	9.845174	,	16
46,59	,	50692	,	-17086	,	-13291	,	5.201825	,	10
46,59	,	50709	,	-17086	,	-13300	,	1.4910421	,	5
46,59	,	50724	,	-17103	,	-13304	,	-1.3623972	,	2
46,59	,	50756	,	-17093	,	-13298	,	-3.5822814	,	0
46,59	,	50772	,	-17104	,	-13314	,	-5.3559203	,	0
46,59	,	50788	,	-17096	,	-13298	,	-6.7222476	,	0
46,59	,	50820	,	-17122	,	-13310	,	-7.7355723	,	0
46,59	,	50837	,	-17122	,	-13316	,	-8.641934	,	0
46,59	,	50853	,	-17126	,	-13312	,	-9.722085	,	0
46,59	,	50885	,	-17119	,	-13311	,	-10.968836	,	0
46,59	,	50900	,	-17135	,	-13318	,	-12.144325	,	0
46,59	,	50932	,	-17140	,	-13314	,	-13.124334	,	0
46,59	,	50948	,	-17147	,	-13316	,	-13.986574	,	0
46,59	,	50964	,	-17148	,	-13315	,	-14.813395	,	0
46,59	,	50996	,	-17153	,	-13316	,	-15.570627	,	0
46,59	,	51012	,	-17158	,	-13325	,	-16.164133	,	0
46,59	,	51028	,	-17163	,	-13315	,	-16.537579	,	0
46,59	,	51060	,	-17169	,	-13315	,	-16.709148	,	0
46,59	,	51076	,	-17166	,	-13320	,	-16.707415	,	0
46,59	,	51108	,	-17153	,	-13318	,	-16.409754	,	0
46,59	,	51124	,	-17129	,	-13310	,	-15.393677	,	0
46,59	,	51140	,	-17103	,	-13307	,	-12.975501	,	1
46,59	,	51172	,	-17115	,	-13304	,	-8.660406	,	3
46,59	,	51188	,	-17107	,	-13298	,	-2.7216668	,	7
46,59	,	51204	,	-17108	,	-13298	,	3.8992872	,	12
46,59	,	51236	,	-17090	,	-13291	,	10.243652	,	18
46,59	,	51252	,	-17067	,	-13297	,	15.833776	,	24
46,59	,	51268	,	-17089	,	-13290	,	20.563463	,	29
46,59	,	51301	,	-17084	,	-13293	,	24.139605	,	33
46,59	,	51316	,	-17088	,	-13287	,	26.072908	,	36
46,59	,	51348	,	-17068	,	-13286	,	26.22282	,	36
46,59	,	51364	,	-17091	,	-13291	,	24.885983	,	34
46,59	,	51380	,	-17078	,	-13291	,	22.410627	,	30
46,59	,	51412	,	-17078	,	-13293	,	19.12616	,	25
46,59	,	51428	,	-17085	,	-13290	,	15.45145	,	19
46,59	,	51444	,	-17085	,	-13293	,	11.72162	,	13
46,59	,	51476	,	-17085	,	-13294	,	8.140368	,	8
46,59	,	51492	,	-17097	,	-13298	,	4.845005	,	4
46,59	,	51524	,	-17098	,	-13295	,	1.8354373	,	1
46,59	,	51540	,	-17105	,	-13296	,	-0.9686146	,	0
46,59	,	51556	,	-17115	,	-13302	,	-3.6311257	,	0
46,59	,	51588	,	-17118	,	-13301	,	-6.2062855	,	0
46,59	,	51604	,	-17128	,	-13308	,	-8.709156	,	0
46,59	,	51620	,	-17124	,	-13307	,	-11.069308	,	0
47,0	,	51652	,	-17132	,	-13306	,	-13.123091	,	0
47,0	,	51668	,	-17140	,	-13308	,	-14.728431	,	0
47,0	,	51684	,	-17139	,	-13311	,	-15.871403	,	0
47,0	,	51716	,	-17142	,	-13312	,	-16.556871	,	0
47,0	,	51732	,	-17146	,	-13313	,	-16.753109	,	0
47,0	,	51764	,	-17153	,	-13319	,	-16.506756	,	0
47,0	,	51780	,	-17160	,	-13311	,	-15.990771	,	0
47,0	,	51796	,	-17182	,	-13320	,	-15.512249	,	0
47,0	,	51828	,	-17166	,	-13321	,	-15.387732	,	0
47,0	,	51844	,	-17186	,	-13323	,	-15.668897	,	0
47,0	,	51860	,	-17175	,	-13316	,	-16.157858	,	0
47,0	,	51892	,	-17153	,	-13316	,	-16.442123	,	0
47,0	,	51908	,	-17147	,	-13308	,	-15.835605	,	0
47,0	,	51940	,	-17133	,	-13301	,	-13.73727	,	0
47,0	,	51956	,	-17114	,	-13301	,	-9.922321	,	2
47,0	,	51972	,	-17107	,	-13296	,	-4.4729867	,	5
47,0	,	52004	,	-17099	,	-13300	,	2.2043338	,	10
47,0	,	52020	,	-17085	,	-13284	,	9.430502	,	16
47,0	,	52036	,	-17075	,	-13279	,	16.52338	,	23
47,0	,	52068	,	-17074	,	-13278	,	22.91761	,	30
47,0	,	52084	,	-17040	,	-13276	,	28.232353	,	36
47,0	,	52116	,	-17069	,	-13282	,	32.299427	,	41
47,0	,	52132	,	-17043	,	-13276	,	34.92015	,	45
47,0	,	52148	,	-17072	,	-13279	,	35.818928	,	45
47,0	,	52180	,	-17059	,	-13277	,	34.798637	,	42
47,0	,	52196	,	-17060	,	-13273	,	31.90915	,	37
47,0	,	52212	,	-17049	,	-13278	,	27.643354	,	31
47,0	,	52244	,	-17060	,	-13290	,	22.737482	,	24
47,0	,	52260	,	-17057	,	-13271	,	17.766571	,	17
47,0	,	52276	,	-17047	,	-13276	,	13.120131	,	11
47,0	,	52308	,	-17067	,	-13276	,	9.092662	,	6
47,0	,	52324	,	-17073	,	-13280	,	5.6776867	,	2
47,0	,	52356	,	-17075	,	-13286	,	2.5868683	,	0
47,0	,	52372	,	-17083	,	-13284	,	-0.39488316	,	0
47,0	,	52388	,	-17098	,	-13282	,	-3.365641	,	0
47,0	,	52420	,	-17096	,	-13283	,	-6.4030247	,	0
47,0	,	52436	,	-17111	,	-13283	,	-9.483157	,	0
47,0	,	52452	,	-17104	,	-13295	,	-12.446109	,	0
47,0	,	52484	,	-17118	,	-13302	,	-15.058807	,	0
47,0	,	52500	,	-17115	,	-13283	,	-17.118736	,	0
47,0	,	52532	,	-17126	,	-13300	,	-18.52829	,	0
47,0	,	52548	,	-17139	,	-13305	,	-19.348892	,	0
47,0	,	52564	,	-17133	,	-13304	,	-19.76926	,	0
47,0	,	52595	,	-17140	,	-13300	,	-19.881817	,	0
47,0	,	52612	,	-17146	,	-13306	,	-19.66693	,	0
47,0	,	52628	,	-17148	,	-13305	,	-19.172482	,	0
47,1	,	52660	,	-17159	,	-13309	,	-18.51896	,	0
47,1	,	52676	,	-17161	,	-13309	,	-17.84959	,	0
47,1	,	52692	,	-17160	,	-13314	,	-17.245132	,	0
47,1	,	52724	,	-17155	,	-13313	,	-16.602083	,	0
47,1	,	52740	,	-17142	,	-13297	,	-15.621557	,	0
47,1	,	52771	,	-17107	,	-13288	,	-13.78376	,	0
47,1	,	52788	,	-17099	,	-13287	,	-10.42119	,	1
47,1	,	52804	,	-17088	,	-13286	,	-5.1800985	,	4
47,1	,	52835	,	-17073	,	-13280	,	1.6640034	,	9
47,1	,	52851	,	-17045	,	-13277	,	9.528854	,	15
47,1	,	52867	,	-17009	,	-13274	,	18.017078	,	22
47,1	,	52900	,	-17045	,	-13263	,	26.7347	,	30
47,1	,	52916	,	-17037	,	-13266	,	34.64851	,	38
47,1	,	52948	,	-17017	,	-13263	,	40.476383	,	45
47,1	,	52964	,	-17022	,	-13270	,	43.65072	,	50
47,1	,	52980	,	-17011	,	-13262	,	44.287354	,	52
47,1	,	53012	,	-17030	,	-13255	,	42.68734	,	49
47,1	,	53027	,	-16989	,	-13255	,	39.294308	,	44
47,1	,	53043	,	-16993	,	-13265	,	34.93454	,	38
47,1	,	53075	,	-17034	,	-13265	,	30.34196	,	31
47,1	,	53092	,	-17012	,	-13257	,	25.507048	,	23
47,1	,	53108	,	-17024	,	-13264	,	20.24663	,	15
47,1	,	53139	,	-17036	,	-13263	,	14.706699	,	8
47,1	,	53155	,	-17028	,	-13267	,	9.103513	,	3
47,1	,	53187	,	-17039	,	-13268	,	3.714262	,	0
47,1	,	53203	,	-17040	,	-13271	,	-1.136601	,	0
47,1	,	53220	,	-17053	,	-13268	,	-5.2764206	,	0
47,1	,	53252	,	-17055	,	-13272	,	-8.709759	,	0
47,1	,	53267	,	-17075	,	-13276	,	-11.574193	,	0
47,1	,	53283	,	-17052	,	-13273	,	-13.98432	,	0
47,1	,	53316	,	-17083	,	-13277	,	-15.880082	,	0
47,1	,	53331	,	-17083	,	-13281	,	-17.268505	,	0
47,1	,	53363	,	-17090	,	-13285	,	-18.343044	,	0
47,1	,	53379	,	-17095	,	-13286	,	-19.22052	,	0
47,1	,	53395	,	-17105	,	-13285	,	-19.919506	,	0
47,1	,	53428	,	-17108	,	-13296	,	-20.473204	,	0
47,1	,	53443	,	-17105	,	-13289	,	-20.84	,	0
47,1	,	53459	,	-17111	,	-13297	,	-20.853554	,	0
47,1	,	53491	,	-17130	,	-13297	,	-20.461308	,	0
47,1	,	53507	,	-17125	,	-13303	,	-19.878475	,	0
47,1	,	53523	,	-17147	,	-13304	,	-19.386932	,	0
47,1	,	53555	,	-17147	,	-13303	,	-19.202114	,	0
47,1	,	53571	,	-17141	,	-13303	,	-19.35196	,	0
47,1	,	53603	,	-17125	,	-13300	,	-19.449848	,	0
47,1	,	53619	,	-17109	,	-13293	,	-18.766674	,	0
47,1	,	53635	,	-17094	,	-13286	,	-16.5836	,	0
47,2	,	53667	,	-17077	,	-13281	,	-12.492134	,	2
47,2	,	53683	,	-17059	,	-13275	,	-6.4803495	,	6
47,2	,	53699	,	-17037	,	-13285	,	1.1646509	,	12
47,2	,	53731	,	-17043	,	-13274	,	9.870899	,	19
47,2	,	53747	,	-17012	,	-13265	,	18.792168	,	27
47,2	,	53779	,	-16998	,	-13257	,	27.178514	,	35
47,2	,	53795	,	-17016	,	-13259	,	34.473656	,	43
47,2	,	53811	,	-17024	,	-13256	,	39.8744	,	50
47,2	,	53843	,	-17018	,	-13262	,	42.487854	,	55
47,2	,	53859	,	-17001	,	-13260	,	42.088425	,	55
47,2	,	53875	,	-17017	,	-13261	,	39.22748	,	51
47,2	,	53907	,	-17014	,	-13256	,	34.625206	,	45
47,2	,	53923	,	-17015	,	-13258	,	28.879131	,	38
47,2	,	53955	,	-17016	,	-13269	,	22.59265	,	30
47,2	,	53971	,	-17000	,	-13252	,	16.4281	,	22
47,2	,	53987	,	-17019	,	-13261	,	10.992935	,	14
47,2	,	54019	,	-17003	,	-13260	,	6.6234255	,	7
47,2	,	54035	,	-17007	,	-13264	,	3.4179578	,	2
47,2	,	54051	,	-17039	,	-13266	,	1.2184534	,	0
47,2	,	54083	,	-17044	,	-13269	,	-0.603709	,	0
47,2	,	54099	,	-17046	,	-13271	,	-2.751667	,	0
47,2	,	54115	,	-17048	,	-13270	,	-5.420069	,	0
47,2	,	54147	,	-17058	,	-13277	,	-8.380986	,	0
47,2	,	54163	,	-17059	,	-13276	,	-11.323953	,	0
47,2	,	54195	,	-17066	,	-13287	,	-13.975878	,	0
47,2	,	54211	,	-17076	,	-13275	,	-16.160845	,	0
47,2	,	54227	,	-17088	,	-13282	,	-17.89289	,	0
47,2	,	54259	,	-17096	,	-13284	,	-19.337486	,	0
47,2	,	54275	,	-17102	,	-13288	,	-20.650127	,	0
47,2	,	54291	,	-17108	,	-13293	,	-21.863335	,	0
47,2	,	54323	,	-17103	,	-13294	,	-22.84935	,	0
47,2	,	54339	,	-17112	,	-13295	,	-23.370815	,	0
47,2	,	54371	,	-17129	,	-13295	,	-23.33787	,	0
47,2	,	54387	,	-17136	,	-13295	,	-22.990292	,	0
47,2	,	54403	,	-17128	,	-13297	,	-22.60527	,	0
47,2	,	54435	,	-17134	,	-13304	,	-22.153296	,	0
47,2	,	54451	,	-17148	,	-13294	,	-21.492786	,	0
47,2	,	54467	,	-17130	,	-13297	,	-20.599716	,	0
47,2	,	54499	,	-17108	,	-13293	,	-19.242477	,	0
47,2	,	54515	,	-17096	,	-13283	,	-16.814026	,	1
47,2	,	54531	,	-17084	,	-13282	,	-12.799699	,	3
47,2	,	54563	,	-17069	,	-13268	,	-7.148	,	7
47,2	,	54579	,	-17049	,	-13279	,	-0.14873171	,	12
47,2	,	54611	,	-17054	,	-13278	,	7.6912866	,	18
47,2	,	54627	,	-17054	,	-13272	,	15.532688	,	25
47,2	,	54643	,	-17043	,	-13269	,	22.365274	,	32
47,3	,	54675	,	-17038	,	-13273	,	27.49442	,	38
47,3	,	54691	,	-17038	,	-13267	,	30.677778	,	43
47,3	,	54707	,	-17019	,	-13259	,	31.99403	,	45
47,3	,	54739	,	-17036	,	-13265	,	31.732147	,	44
47,3	,	54755	,	-17031	,	-13263	,	30.13579	,	40
47,3	,	54787	,	-17017	,	-13271	,	27.430397	,	35
47,3	,	54803	,	-17037	,	-13270	,	24.008198	,	29
47,3	,	54819	,	-17012	,	-13268	,	20.270184	,	22
47,3	,	54851	,	-17042	,	-13270	,	16.506994	,	15
47,3	,	54867	,	-17048	,	-13276	,	12.748776	,	9
47,3	,	54883	,	-17021	,	-13267	,	8.910364	,	4
47,3	,	54915	,	-17050	,	-13268	,	5.2147837	,	1
47,3	,	54931	,	-17057	,	-13274	,	1.8429718	,	0
47,3	,	54947	,	-17066	,	-13268	,	-1.4023523	,	0
47,3	,	54979	,	-17066	,	-13279	,	-4.6998453	,	0
47,3	,	54995	,	-17070	,	-13276	,	-7.9555664	,	0
47,3	,	55026	,	-17080	,	-13281	,	-10.947632	,	0
47,3	,	55043	,	-17089	,	-13276	,	-13.548746	,	0
47,3	,	55059	,	-17100	,	-13278	,	-15.799704	,	0
47,3	,	55091	,	-17099	,	-13280	,	-17.778069	,	0
47,3	,	55107	,	-17107	,	-13288	,	-19.44661	,	0
47,3	,	55123	,	-17110	,	-13282	,	-20.685017	,	0
47,3	,	55155	,	-17106	,	-13286	,	-21.3667	,	0
47,3	,	55171	,	-17123	,	-13294	,	-21.411997	,	0
47,3	,	55203	,	-17134	,	-13291	,	-20.972855	,	0
47,3	,	55218	,	-17143	,	-13304	,	-20.44341	,	0
47,3	,	55235	,	-17145	,	-13299	,	-20.154531	,	0
47,3	,	55267	,	-17150	,	-13303	,	-20.17169	,	0
47,3	,	55283	,	-17144	,	-13302	,	-20.316849	,	0
47,3	,	55299	,	-17150	,	-13298	,	-20.27775	,	0
47,3	,	55331	,	-17142	,	-13296	,	-19.756554	,	0
47,3	,	55347	,	-17137	,	-13292	,	-18.529259	,	0
47,3	,	55363	,	-17126	,	-13291	,	-16.416744	,	1
47,3	,	55394	,	-17097	,	-13291	,	-13.201922	,	3
47,3	,	55410	,	-17091	,	-13289	,	-8.613028	,	6
47,3	,	55443	,	-17080	,	-13276	,	-2.6202774	,	10
47,3	,	55459	,	-17064	,	-13272	,	4.3868747	,	15
47,3	,	55475	,	-17071	,	-13279	,	11.75708	,	22
47,3	,	55506	,	-17069	,	-13277	,	18.634724	,	29
47,3	,	55522	,	-17058	,	-13274	,	24.160925	,	35
47,3	,	55539	,	-17065	,	-13276	,	27.822906	,	40
47,3	,	55571	,	-17066	,	-13269	,	29.424515	,	42
47,3	,	55587	,	-17042	,	-13271	,	29.075605	,	41
47,3	,	55618	,	-17067	,	-13268	,	27.24327	,	38
47,3	,	55635	,	-17067	,	-13268	,	24.335386	,	34
47,4	,	55651	,	-17036	,	-13284	,	20.672674	,	29
47,4	,	55682	,	-17063	,	-13267	,	16.830835	,	22
47,4	,	55698	,	-17065	,	-13271	,	13.210135	,	15
47,4	,	55714	,	-17061	,	-13274	,	9.777659	,	9
47,4	,	55747	,	-17075	,	-13274	,	6.4794087	,	4
47,4	,	55763	,	-17079	,	-13275	,	3.291143	,	1
47,4	,	55779	,	-17072	,	-13278	,	0.19384527	,	0
47,4	,	55811	,	-17094	,	-13274	,	-2.721285	,	0
47,4	,	55826	,	-17103	,	-13278	,	-5.481391	,	0
47,4	,	55858	,	-17104	,	-13285	,	-8.264735	,	0
47,4	,	55874	,	-17111	,	-13288	,	-11.083743	,	0
47,4	,	55890	,	-17118	,	-13294	,	-13.768784	,	0
47,4	,	55923	,	-17119	,	-13279	,	-16.13353	,	0
47,4	,	55939	,	-17132	,	-13293	,	-18.03508	,	0
47,4	,	55954	,	-17130	,	-13295	,	-19.417421	,	0
47,4	,	55986	,	-17135	,	-13293	,	-20.257057	,	0
47,4	,	56002	,	-17140	,	-13295	,	-20.523369	,	0
47,4	,	56034	,	-17149	,	-13295	,	-20.285515	,	0
47,4	,	56051	,	-17143	,	-13297	,	-19.694473	,	0
47,4	,	56067	,	-17152	,	-13298	,	-18.835749	,	0
47,4	,	56098	,	-17149	,	-13302	,	-17.734848	,	0
47,4	,	56114	,	-17161	,	-13312	,	-16.465294	,	1
47,4	,	56131	,	-17169	,	-13308	,	-15.221451	,	2
47,4	,	56163	,	-17178	,	-13303	,	-14.289373	,	3
47,4	,	56179	,	-17170	,	-13311	,	-13.8345585	,	3
47,4	,	56194	,	-17159	,	-13307	,	-13.655691	,	3
47,4	,	56226	,	-17145	,	-13292	,	-13.186264	,	3
47,4	,	56242	,	-17131	,	-13292	,	-11.763281	,	3
47,4	,	56274	,	-17120	,	-13290	,	-8.925062	,	4
47,4	,	56290	,	-17107	,	-13288	,	-4.569882	,	6
47,4	,	56306	,	-17096	,	-13286	,	1.0591426	,	9
47,4	,	56338	,	-17084	,	-13278	,	7.5002103	,	13
47,4	,	56354	,	-17079	,	-13274	,	14.17927	,	18
47,4	,	56370	,	-17078	,	-13275	,	20.44	,	24
47,4	,	56402	,	-17064	,	-13272	,	25.655521	,	30
47,4	,	56418	,	-17060	,	-13271	,	29.455318	,	35
47,4	,	56450	,	-17047	,	-13277	,	31.795609	,	38
47,4	,	56466	,	-17046	,	-13275	,	32.839455	,	39
47,4	,	56482	,	-17064	,	-13270	,	32.68937	,	38
47,4	,	56514	,	-17067	,	-13275	,	31.175808	,	34
47,4	,	56530	,	-17064	,	-13270	,	28.13159	,	29
47,4	,	56546	,	-17046	,	-13273	,	23.864935	,	23
47,4	,	56578	,	-17068	,	-13278	,	19.068493	,	17
47,4	,	56594	,	-17069	,	-13276	,	14.244466	,	11
47,4	,	56626	,	-17062	,	-13276	,	9.593119	,	6
47,4	,	56642	,	-17083	,	-13281	,	5.2760715	,	3
47,5	,	56658	,	-17073	,	-13274	,	1.3876176	,	1
47,5	,	56690	,	-17093	,	-13286	,	-2.0675569	,	0
47,5	,	56706	,	-17100	,	-13287	,	-5.1729364	,	0
47,5	,	56722	,	-17101	,	-13288	,	-8.083545	,	0
47,5	,	56754	,	-17102	,	-13288	,	-10.792174	,	0
47,5	,	56770	,	-17110	,	-13294	,	-13.109919	,	0
47,5	,	56786	,	-17118	,	-13294	,	-14.916275	,	0
47,5	,	56818	,	-17121	,	-13297	,	-16.240026	,	0
47,5	,	56834	,	-17128	,	-13295	,	-17.150612	,	0
47,5	,	56866	,	-17125	,	-13296	,	-17.677301	,	0
47,5	,	56882	,	-17134	,	-13305	,	-17.811565	,	0
47,5	,	56898	,	-17144	,	-13298	,	-17.620022	,	0
47,5	,	56930	,	-17147	,	-13304	,	-17.299555	,	0
47,5	,	56946	,	-17153	,	-13305	,	-17.025679	,	0
47,5	,	56962	,	-17161	,	-13308	,	-16.873299	,	0
47,5	,	56994	,	-17162	,	-13308	,	-16.861084	,	0
47,5	,	57010	,	-17166	,	-13309	,	-16.930088	,	0
47,5	,	57042	,	-17175	,	-13316	,	-16.983248	,	0
47,5	,	57058	,	-17189	,	-13315	,	-17.047544	,	0
47,5	,	57074	,	-17175	,	-13313	,	-17.206661	,	0
47,5	,	57106	,	-17168	,	-13306	,	-17.262054	,	0
47,5	,	57122	,	-17156	,	-13310	,	-16.693933	,	0
47,5	,	57138	,	-17147	,	-13290	,	-14.9963255	,	0
47,5	,	57170	,	-17111	,	-13292	,	-11.798626	,	1
47,5	,	57186	,	-17109	,	-13283	,	-6.8282104	,	4
47,5	,	57203	,	-17099	,	-13290	,	-0.19392872	,	8
47,5	,	57234	,	-17083	,	-13286	,	7.4739127	,	14
47,5	,	57250	,	-17082	,	-13281	,	15.344517	,	21
47,5	,	57282	,	-17076	,	-13277	,	22.588198	,	28
47,5	,	57298	,	-17058	,	-13274	,	28.525925	,	35
47,5	,	57314	,	-17067	,	-13273	,	32.800705	,	40
47,5	,	57346	,	-17064	,	-13276	,	35.215584	,	44
47,5	,	57362	,	-17057	,	-13284	,	35.669518	,	45
47,5	,	57378	,	-17055	,	-13266	,	34.3552	,	42
47,5	,	57410	,	-17068	,	-13268	,	31.640255	,	38
47,5	,	57426	,	-17067	,	-13278	,	27.790392	,	32
47,5	,	57458	,	-17064	,	-13272	,	23.066355	,	25
47,5	,	57474	,	-17072	,	-13278	,	17.878792	,	18
47,5	,	57490	,	-17069	,	-13271	,	12.662766	,	11
47,5	,	57522	,	-17073	,	-13276	,	7.7776537	,	6
47,5	,	57538	,	-17083	,	-13282	,	3.4552536	,	2
47,5	,	57554	,	-17090	,	-13275	,	-0.29503202	,	0
47,5	,	57586	,	-17087	,	-13279	,	-3.567484	,	0
47,5	,	57602	,	-17096	,	-13288	,	-6.3637056	,	0
47,5	,	57618	,	-17094	,	-13276	,	-8.621009	,	0
47,6	,	57650	,	-17116	,	-13281	,	-10.374169	,	0
47,6	,	57666	,	-17110	,	-13282	,	-11.8112	,	0
47,6	,	57698	,	-17117	,	-13288	,	-13.079607	,	0
47,6	,	57714	,	-17130	,	-13286	,	-14.202953	,	0
47,6	,	57730	,	-17137	,	-13295	,	-15.265827	,	0
47,6	,	57762	,	-17132	,	-13292	,	-16.344746	,	0
47,6	,	57778	,	-17136	,	-13298	,	-17.288956	,	0
47,6	,	57794	,	-17140	,	-13295	,	-17.844656	,	0
47,6	,	57826	,	-17147	,	-13298	,	-17.90818	,	0
47,6	,	57842	,	-17149	,	-13300	,	-17.555357	,	0
47,6	,	57874	,	-17150	,	-13296	,	-16.910034	,	0
47,6	,	57890	,	-17156	,	-13303	,	-16.06474	,	0
47,6	,	57906	,	-17167	,	-13302	,	-15.154957	,	0
47,6	,	57938	,	-17179	,	-13306	,	-14.447726	,	0
47,6	,	57954	,	-17177	,	-13307	,	-14.210779	,	0
47,6	,	57970	,	-17174	,	-13302	,	-14.431755	,	0
47,6	,	58002	,	-17158	,	-13294	,	-14.698946	,	0
47,6	,	58018	,	-17140	,	-13294	,	-14.30927	,	0
47,6	,	58033	,	-17121	,	-13288	,	-12.5035515	,	0
47,6	,	58066	,	-17123	,	-13288	,	-8.854254	,	1
47,6	,	58082	,	-17113	,	-13286	,	-3.5742478	,	4
47,6	,	58114	,	-17112	,	-13287	,	2.6184826	,	9
47,6	,	58130	,	-17101	,	-13277	,	8.892309	,	15
47,6	,	58146	,	-17087	,	-13278	,	14.624161	,	21
47,6	,	58178	,	-17089	,	-13273	,	19.482506	,	26
47,6	,	58194	,	-17090	,	-13274	,	23.203777	,	30
47,6	,	58209	,	-17076	,	-13268	,	25.542736	,	33
47,6	,	58242	,	-17088	,	-13277	,	26.453152	,	35
47,6	,	58258	,	-17091	,	-13276	,	25.968998	,	34
47,6	,	58290	,	-17082	,	-13275	,	24.138187	,	31
47,6	,	58306	,	-17092	,	-13272	,	21.2086	,	26
47,6	,	58322	,	-17086	,	-13275	,	17.572334	,	20
47,6	,	58353	,	-17103	,	-13275	,	13.563839	,	14
47,6	,	58369	,	-17095	,	-13276	,	9.406632	,	9
47,6	,	58385	,	-17100	,	-13287	,	5.3282604	,	5
47,6	,	58418	,	-17108	,	-13275	,	1.5800562	,	2
47,6	,	58434	,	-17102	,	-13285	,	-1.6747465	,	0
47,6	,	58450	,	-17114	,	-13279	,	-4.3397336	,	0
47,6	,	58482	,	-17116	,	-13281	,	-6.4082694	,	0
47,6	,	58498	,	-17122	,	-13283	,	-8.001223	,	0
47,6	,	58529	,	-17125	,	-13283	,	-9.257863	,	0
47,6	,	58545	,	-17131	,	-13279	,	-10.275362	,	0
47,6	,	58561	,	-17138	,	-13289	,	-11.1419525	,	0
47,6	,	58593	,	-17143	,	-13300	,	-11.955118	,	0
47,6	,	58609	,	-17141	,	-13288	,	-12.748636	,	0
47,6	,	58626	,	-17157	,	-13289	,	-13.483613	,	0
47,7	,	58658	,	-17155	,	-13298	,	-14.167053	,	0
47,7	,	58673	,	-17161	,	-13291	,	-14.813955	,	0
47,7	,	58705	,	-17167	,	-13297	,	-15.370943	,	0
47,7	,	58721	,	-17171	,	-13297	,	-15.798161	,	0
47,7	,	58737	,	-17169	,	-13302	,	-16.060091	,	0
47,7	,	58769	,	-17181	,	-13298	,	-16.098335	,	0
47,7	,	58785	,	-17176	,	-13305	,	-15.904898	,	0
47,7	,	58802	,	-17174	,	-13298	,	-15.448534	,	0
47,7	,	58834	,	-17166	,	-13302	,	-14.5696335	,	0
47,7	,	58849	,	-17156	,	-13288	,	-13.04019	,	0
47,7	,	58881	,	-17116	,	-13280	,	-10.507975	,	1
47,7	,	58897	,	-17119	,	-13278	,	-6.5037627	,	3
47,7	,	58913	,	-17104	,	-13275	,	-0.90063	,	7
47,7	,	58945	,	-17109	,	-13271	,	5.7842174	,	12
47,7	,	58961	,	-17101	,	-13273	,	12.635021	,	18
47,7	,	58977	,	-17081	,	-13273	,	18.809397	,	24
47,7	,	59010	,	-17085	,	-13268	,	23.85632	,	30
47,7	,	59026	,	-17086	,	-13270	,	27.528057	,	35
47,7	,	59041	,	-17083	,	-13269	,	29.559883	,	38
47,7	,	59073	,	-17098	,	-13276	,	29.763819	,	39
47,7	,	59089	,	-17093	,	-13267	,	28.092176	,	37
47,7	,	59121	,	-17075	,	-13275	,	24.834127	,	33
47,7	,	59137	,	-17086	,	-13269	,	20.709965	,	28
47,7	,	59153	,	-17091	,	-13266	,	16.3937	,	22
47,7	,	59185	,	-17085	,	-13274	,	12.214504	,	16
47,7	,	59201	,	-17089	,	-13270	,	8.388437	,	10
47,7	,	59217	,	-17092	,	-13270	,	5.093437	,	5
47,7	,	59249	,	-17087	,	-13268	,	2.3998451	,	2
47,7	,	59265	,	-17097	,	-13270	,	0.3102839	,	0
47,7	,	59297	,	-17095	,	-13269	,	-1.2510614	,	0
47,7	,	59313	,	-17110	,	-13276	,	-2.4654484	,	0
47,7	,	59329	,	-17116	,	-13270	,	-3.6156352	,	0
47,7	,	59361	,	-17111	,	-13281	,	-4.9395986	,	0
47,7	,	59377	,	-17124	,	-13283	,	-6.444159	,	0
47,7	,	59393	,	-17130	,	-13287	,	-8.047593	,	0
47,7	,	59425	,	-17130	,	-13284	,	-9.713383	,	0
47,7	,	59441	,	-17129	,	-13287	,	-11.307188	,	0
47,7	,	59457	,	-17142	,	-13288	,	-12.623507	,	0
47,7	,	59489	,	-17141	,	-13289	,	-13.584782	,	0
47,7	,	59505	,	-17148	,	-13294	,	-14.229746	,	0
47,7	,	59537	,	-17148	,	-13295	,	-14.590128	,	0
47,7	,	59553	,	-17155	,	-13293	,	-14.680174	,	0
47,7	,	59569	,	-17171	,	-13287	,	-14.609547	,	0
47,7	,	59601	,	-17160	,	-13297	,	-14.574839	,	0
47,7	,	59617	,	-17179	,	-13299	,	-14.66366	,	0
47,7	,	59633	,	-17176	,	-13294	,	-14.867606	,	0
47,8	,	59665	,	-17171	,	-13292	,	-15.105644	,	0
47,8	,	59681	,	-17157	,	-13288	,	-15.053037	,	0
47,8	,	59713	,	-17146	,	-13282	,	-14.191986	,	0
47,8	,	59729	,	-17121	,	-13278	,	-12.009405	,	0
47,8	,	59745	,	-17116	,	-13274	,	-8.161596	,	2
47,8	,	59777	,	-17100	,	-13271	,	-2.6759953	,	5
47,8	,	59793	,	-17094	,	-13266	,	4.0076666	,	10
47,8	,	59809	,	-17077	,	-13266	,	11.232693	,	16
47,8	,	59841	,	-17073	,	-13263	,	18.328947	,	23
47,8	,	59857	,	-17063	,	-13256	,	24.697853	,	30
47,8	,	59873	,	-17053	,	-13251	,	29.881641	,	36
47,8	,	59905	,	-17029	,	-13251	,	33.725613	,	41
47,8	,	59921	,	-17051	,	-13256	,	36.284885	,	44
47,8	,	59953	,	-17055	,	-13252	,	37.371326	,	44
47,8	,	59969	,	-17043	,	-13256	,	36.62605	,	42
47,8	,	59985	,	-17054	,	-13258	,	34.05658	,	37
47,8	,	60017	,	-17056	,	-13250	,	30.006706	,	31
47,8	,	60033	,	-17016	,	-13255	,	25.074095	,	24
47,8	,	60049	,	-17049	,	-13262	,	20.150139	,	17
47,8	,	60081	,	-17056	,	-13256	,	15.747026	,	11
47,8	,	60097	,	-17060	,	-13267	,	11.66938	,	6
47,8	,	60129	,	-17048	,	-13261	,	7.706504	,	3
47,8	,	60145	,	-17069	,	-13255	,	3.9650388	,	1
47,8	,	60161	,	-17083	,	-13257	,	0.4586997	,	0
47,8	,	60193	,	-17082	,	-13262	,	-3.0195184	,	0
47,8	,	60209	,	-17096	,	-13266	,	-6.56915	,	0
47,8	,	60225	,	-17088	,	-13262	,	-10.050652	,	0
47,8	,	60257	,	-17095	,	-13266	,	-13.154556	,	0
47,8	,	60273	,	-17089	,	-13269	,	-15.509635	,	0
47,8	,	60289	,	-17101	,	-13279	,	-16.872887	,	0
47,8	,	60321	,	-17114	,	-13270	,	-17.319836	,	0
47,8	,	60337	,	-17113	,	-13276	,	-17.219284	,	0
47,8	,	60369	,	-17137	,	-13276	,	-16.999924	,	0
47,8	,	60385	,	-17133	,	-13282	,	-17.025555	,	0
47,8	,	60401	,	-17128	,	-13281	,	-17.401728	,	0
47,8	,	60433	,	-17137	,	-13281	,	-17.862904	,	0
47,8	,	60449	,	-17148	,	-13280	,	-18.14199	,	0
47,8	,	60465	,	-17147	,	-13288	,	-18.221317	,	0
47,8	,	60497	,	-17152	,	-13286	,	-18.14009	,	0
47,8	,	60513	,	-17157	,	-13285	,	-17.88219	,	0
47,8	,	60545	,	-17160	,	-13299	,	-17.452805	,	0
47,8	,	60561	,	-17139	,	-13274	,	-16.772078	,	0
47,8	,	60577	,	-17109	,	-13268	,	-15.381974	,	0
47,8	,	60609	,	-17106	,	-13260	,	-12.56245	,	1
47,8	,	60625	,	-17082	,	-13262	,	-7.896433	,	3
47,8	,	60641	,	-17079	,	-13259	,	-1.5217533	,	7
47,9	,	60673	,	-17043	,	-13255	,	6.1000013	,	13
47,9	,	60689	,	-17046	,	-13252	,	14.42402	,	20
47,9	,	60720	,	-17038	,	-13245	,	22.747107	,	28
47,9	,	60736	,	-17040	,	-13248	,	30.138245	,	36
47,9	,	60752	,	-17024	,	-13243	,	35.762115	,	43
47,9	,	60784	,	-17041	,	-13248	,	39.135887	,	48
47,9	,	60801	,	-17024	,	-13236	,	40.077213	,	50
47,9	,	60817	,	-17016	,	-13240	,	38.79876	,	48
47,9	,	60849	,	-17026	,	-13242	,	35.885406	,	44
47,9	,	60865	,	-17038	,	-13237	,	31.81627	,	38
47,9	,	60881	,	-17025	,	-13246	,	26.840725	,	31
47,9	,	60913	,	-17008	,	-13247	,	21.44695	,	23
47,9	,	60929	,	-17036	,	-13241	,	16.337795	,	15
47,9	,	60960	,	-17038	,	-13244	,	11.7903595	,	8
47,9	,	60976	,	-17025	,	-13244	,	7.6923923	,	3
47,9	,	60993	,	-17041	,	-13250	,	4.064352	,	0
47,9	,	61024	,	-17051	,	-13250	,	0.921206	,	0
47,9	,	61041	,	-17050	,	-13245	,	-1.9212751	,	0
47,9	,	61057	,	-17056	,	-13253	,	-4.5772314	,	0
47,9	,	61089	,	-17063	,	-13252	,	-7.0187993	,	0
47,9	,	61105	,	-17073	,	-13252	,	-9.250185	,	0
47,9	,	61136	,	-17082	,	-13258	,	-11.355339	,	0
47,9	,	61152	,	-17082	,	-13256	,	-13.397226	,	0
47,9	,	61168	,	-17090	,	-13257	,	-15.310741	,	0
47,9	,	61200	,	-17093	,	-13266	,	-16.944315	,	0
47,9	,	61216	,	-17100	,	-13266	,	-18.177034	,	0
47,9	,	61233	,	-17106	,	-13265	,	-18.977768	,	0
47,9	,	61265	,	-17101	,	-13270	,	-19.355051	,	0
47,9	,	61281	,	-17115	,	-13262	,	-19.294254	,	0
47,9	,	61296	,	-17120	,	-13272	,	-18.86978	,	0
47,9	,	61329	,	-17140	,	-13272	,	-18.36033	,	0
47,9	,	61345	,	-17130	,	-13275	,	-18.088097	,	0
47,9	,	61376	,	-17142	,	-13276	,	-18.133657	,	0
47,9	,	61392	,	-17141	,	-13272	,	-18.337751	,	0
47,9	,	61408	,	-17129	,	-13277	,	-18.421473	,	0
47,9	,	61440	,	-17123	,	-13271	,	-17.958218	,	0
47,9	,	61456	,	-17100	,	-13266	,	-16.439182	,	0
47,9	,	61472	,	-17084	,	-13263	,	-13.396666	,	1
47,9	,	61505	,	-17070	,	-13261	,	-8.558189	,	4
47,9	,	61520	,	-17068	,	-13253	,	-2.093546	,	8
47,9	,	61552	,	-17064	,	-13254	,	5.3028574	,	14
47,9	,	61568	,	-17056	,	-13247	,	12.666364	,	21
47,9	,	61584	,	-17031	,	-13243	,	19.247738	,	28
47,9	,	61616	,	-17045	,	-13246	,	24.690762	,	34
47,9	,	61632	,	-17028	,	-13242	,	28.751108	,	39
47,9	,	61648	,	-17044	,	-13244	,	31.17063	,	43
47,10	,	61681	,	-17037	,	-13243	,	31.75977	,	44
47,10	,	61696	,	-17042	,	-13241	,	30.489506	,	41
47,10	,	61712	,	-17014	,	-13247	,	27.715378	,	37
47,10	,	61744	,	-17022	,	-13243	,	24.213501	,	31
47,10	,	61760	,	-17038	,	-13246	,	20.63924	,	24
47,10	,	61792	,	-17051	,	-13231	,	17.015171	,	17
47,10	,	61808	,	-17041	,	-13242	,	13.064754	,	11
47,10	,	61824	,	-17056	,	-13246	,	8.780511	,	6
47,10	,	61856	,	-17051	,	-13239	,	4.4056973	,	2
47,10	,	61872	,	-17036	,	-13246	,	0.33319378	,	0
47,10	,	61904	,	-17068	,	-13241	,	-3.0113344	,	0
47,10	,	61920	,	-17074	,	-13253	,	-5.637236	,	0
47,10	,	61936	,	-17069	,	-13250	,	-7.9161015	,	0
47,10	,	61968	,	-17069	,	-13246	,	-9.955986	,	0
47,10	,	61984	,	-17069	,	-13254	,	-11.52984	,	0
47,10	,	62000	,	-17084	,	-13268	,	-12.474509	,	0
47,10	,	62032	,	-17088	,	-13253	,	-12.924368	,	0
47,10	,	62048	,	-17093	,	-13262	,	-13.176415	,	0
47,10	,	62064	,	-17099	,	-13264	,	-13.443904	,	0
47,10	,	62096	,	-17107	,	-13264	,	-13.82335	,	0
47,10	,	62112	,	-17105	,	-13267	,	-14.329861	,	0
47,10	,	62144	,	-17117	,	-13262	,	-14.8952675	,	0
47,10	,	62160	,	-17122	,	-13271	,	-15.465145	,	0
47,10	,	62176	,	-17118	,	-13270	,	-16.005249	,	0
47,10	,	62208	,	-17126	,	-13267	,	-16.38948	,	0
47,10	,	62224	,	-17124	,	-13278	,	-16.467175	,	0
47,10	,	62240	,	-17133	,	-13271	,	-16.186562	,	0
47,10	,	62272	,	-17123	,	-13264	,	-15.555429	,	0
47,10	,	62288	,	-17090	,	-13259	,	-14.367771	,	0
47,10	,	62304	,	-17063	,	-13253	,	-11.961932	,	1
47,10	,	62336	,	-17071	,	-13251	,	-7.6814966	,	3
47,10	,	62352	,	-17062	,	-13253	,	-1.6469245	,	7
47,10	,	62384	,	-17052	,	-13251	,	5.316562	,	13
47,10	,	62400	,	-17032	,	-13246	,	12.37581	,	19
47,10	,	62416	,	-17044	,	-13238	,	18.930641	,	26
47,10	,	62448	,	-17025	,	-13247	,	24.432707	,	32
47,10	,	62464	,	-17013	,	-13239	,	28.530046	,	37
47,10	,	62480	,	-17029	,	-13241	,	31.158371	,	41
47,10	,	62512	,	-17029	,	-13240	,	32.181107	,	42
47,10	,	62528	,	-17003	,	-13238	,	31.513966	,	41
47,10	,	62560	,	-17012	,	-13240	,	29.55074	,	37
47,10	,	62576	,	-17001	,	-13240	,	26.898605	,	31
47,10	,	62592	,	-17023	,	-13241	,	23.90942	,	25
47,10	,	62624	,	-16992	,	-13240	,	20.722588	,	18
47,10	,	62640	,	-17030	,	-13245	,	17.468304	,	12
47,11	,	62656	,	-17002	,	-13242	,	14.200559	,	7
47,11	,	62688	,	-17042	,	-13245	,	10.851635	,	3
47,11	,	62704	,	-17040	,	-13239	,	7.2255096	,	1
47,11	,	62720	,	-17059	,	-13244	,	3.056529	,	0
47,11	,	62752	,	-17056	,	-13238	,	-1.6960678	,	0
47,11	,	62768	,	-17058	,	-13246	,	-6.6936035	,	0
47,11	,	62800	,	-17070	,	-13246	,	-11.401131	,	0
47,11	,	62816	,	-17075	,	-13251	,	-15.426705	,	0
47,11	,	62832	,	-17079	,	-13254	,	-18.608898	,	0
47,11	,	62864	,	-17091	,	-13257	,	-20.903666	,	0
47,11	,	62880	,	-17088	,	-13255	,	-22.357895	,	0
47,11	,	62896	,	-17082	,	-13262	,	-22.970142	,	0
47,11	,	62928	,	-17092	,	-13265	,	-22.639898	,	0
47,11	,	62944	,	-17111	,	-13266	,	-21.497879	,	0
47,11	,	62976	,	-17106	,	-13276	,	-20.022978	,	1
47,11	,	62992	,	-17113	,	-13255	,	-18.63689	,	2
47,11	,	63008	,	-17111	,	-13276	,	-17.459661	,	3
47,11	,	63040	,	-17141	,	-13270	,	-16.559813	,	4
47,11	,	63056	,	-17132	,	-13273	,	-16.153244	,	4
47,11	,	63072	,	-17115	,	-13278	,	-16.219017	,	4
47,11	,	63104	,	-17100	,	-13270	,	-16.126312	,	4
47,11	,	63120	,	-17088	,	-13255	,	-14.991194	,	4
47,11	,	63151	,	-17080	,	-13253	,	-12.243893	,	5
47,11	,	63168	,	-17058	,	-13252	,	-7.7828026	,	6
47,11	,	63184	,	-17047	,	-13248	,	-1.8096867	,	9
47,11	,	63216	,	-17039	,	-13252	,	5.253023	,	13
47,11	,	63232	,	-17013	,	-13233	,	12.824773	,	19
47,11	,	63248	,	-17003	,	-13236	,	20.397032	,	26
47,11	,	63280	,	-17015	,	-13223	,	27.447618	,	33
47,11	,	63296	,	-16999	,	-13227	,	33.234776	,	40
47,11	,	63312	,	-16979	,	-13234	,	37.218895	,	45
47,11	,	63343	,	-17010	,	-13232	,	39.294693	,	47
47,11	,	63359	,	-17004	,	-13234	,	39.31136	,	47
47,11	,	63392	,	-16989	,	-13232	,	37.173897	,	43
47,11	,	63408	,	-16997	,	-13225	,	33.324417	,	38
47,11	,	63424	,	-16999	,	-13232	,	28.43915	,	31
47,11	,	63456	,	-16974	,	-13236	,	23.14636	,	24
47,11	,	63472	,	-16998	,	-13223	,	18.103926	,	17
47,11	,	63488	,	-17005	,	-13241	,	13.637428	,	10
47,11	,	63519	,	-17014	,	-13241	,	9.541681	,	5
47,11	,	63535	,	-17008	,	-13234	,	5.5609255	,	2
47,11	,	63568	,	-17015	,	-13236	,	1.7341375	,	0
47,11	,	63584	,	-17041	,	-13233	,	-1.860857	,	0
47,11	,	63600	,	-17040	,	-13237	,	-5.3875723	,	0
47,11	,	63632	,	-17044	,	-13237	,	-8.972569	,	0
47,12	,	63648	,	-17053	,	-13246	,	-12.448185	,	0
47,12	,	63664	,	-17045	,	-13247	,	-15.503538	,	0
47,12	,	63695	,	-17056	,	-13253	,	-17.819372	,	0
47,12	,	63711	,	-17060	,	-13239	,	-19.21524	,	0
47,12	,	63727	,	-17066	,	-13254	,	-19.75707	,	0
47,12	,	63760	,	-17075	,	-13255	,	-19.666647	,	0
47,12	,	63776	,	-17085	,	-13264	,	-19.251099	,	0
47,12	,	63807	,	-17094	,	-13264	,	-18.85743	,	0
47,12	,	63824	,	-17092	,	-13263	,	-18.71616	,	0
47,12	,	63840	,	-17104	,	-13259	,	-18.833527	,	0
47,12	,	63872	,	-17114	,	-13265	,	-19.142488	,	0
47,12	,	63888	,	-17119	,	-13269	,	-19.645985	,	0
47,12	,	63903	,	-17112	,	-13269	,	-20.257603	,	0
47,12	,	63935	,	-17118	,	-13274	,	-20.679852	,	0
47,12	,	63951	,	-17125	,	-13269	,	-20.634193	,	0
47,12	,	63983	,	-17108	,	-13264	,	-19.998842	,	0
47,12	,	63999	,	-17081	,	-13251	,	-18.493671	,	0
47,12	,	64016	,	-17068	,	-13249	,	-15.543639	,	1
47,12	,	64047	,	-17030	,	-13245	,	-10.606814	,	3
47,12	,	64064	,	-17046	,	-13241	,	-3.5749311	,	7
47,12	,	64079	,	-17031	,	-13239	,	4.90587	,	14
47,12	,	64111	,	-17036	,	-13235	,	13.611635	,	22
47,12	,	64127	,	-16999	,	-13233	,	21.46423	,	30
47,12	,	64143	,	-17001	,	-13230	,	27.994904	,	37
47,12	,	64175	,	-16996	,	-13232	,	33.07839	,	43
47,12	,	64191	,	-16964	,	-13232	,	36.66823	,	48
47,12	,	64223	,	-16952	,	-13226	,	39.03681	,	50
47,12	,	64240	,	-16993	,	-13229	,	40.43976	,	50
47,12	,	64255	,	-16976	,	-13226	,	40.48488	,	47
47,12	,	64287	,	-16999	,	-13226	,	38.56797	,	40
47,12	,	64303	,	-16978	,	-13222	,	34.583576	,	32
47,12	,	64319	,	-16988	,	-13228	,	29.020782	,	24
47,12	,	64351	,	-17003	,	-13225	,	22.588846	,	17
47,12	,	64367	,	-16998	,	-13229	,	15.8123455	,	11
47,12	,	64399	,	-17009	,	-13229	,	9.098543	,	6
47,12	,	64415	,	-17002	,	-13233	,	2.8866835	,	3
47,12	,	64431	,	-17012	,	-13236	,	-2.4242334	,	1
47,12	,	64463	,	-16999	,	-13229	,	-6.53139	,	0
47,12	,	64479	,	-17009	,	-13237	,	-9.248923	,	0
47,12	,	64495	,	-17045	,	-13240	,	-10.771835	,	0
47,12	,	64527	,	-17044	,	-13237	,	-11.848348	,	0
47,12	,	64543	,	-17033	,	-13237	,	-13.115984	,	0
47,12	,	64559	,	-17052	,	-13240	,	-14.558786	,	0
47,12	,	64591	,	-17066	,	-13249	,	-16.006392	,	0
47,12	,	64607	,	-17057	,	-13246	,	-17.469643	,	0
47,12	,	64639	,	-17068	,	-13246	,	-18.838795	,	0
47,13	,	64655	,	-17067	,	-13252	,	-19.870087	,	0
47,13	,	64671	,	-17090	,	-13261	,	-20.485355	,	0
47,13	,	64703	,	-17087	,	-13252	,	-20.847187	,	0
47,13	,	64719	,	-17101	,	-13258	,	-21.154236	,	0
47,13	,	64735	,	-17104	,	-13258	,	-21.493439	,	0
47,13	,	64767	,	-17112	,	-13263	,	-21.872124	,	0
47,13	,	64783	,	-17112	,	-13262	,	-22.219814	,	0
47,13	,	64815	,	-17115	,	-13262	,	-22.37648	,	0
47,13	,	64831	,	-17115	,	-13260	,	-22.152548	,	0
47,13	,	64847	,	-17105	,	-13260	,	-21.359337	,	0
47,13	,	64879	,	-17094	,	-13256	,	-19.754814	,	0
47,13	,	64895	,	-17066	,	-13248	,	-16.979008	,	1
47,13	,	64911	,	-17061	,	-13256	,	-12.655383	,	3
47,13	,	64943	,	-17034	,	-13232	,	-6.659028	,	7
47,13	,	64959	,	-17018	,	-13237	,	0.8261666	,	12
47,13	,	64975	,	-17022	,	-13236	,	9.322559	,	19
47,13	,	65007	,	-17016	,	-13228	,	17.925488	,	27
47,13	,	65023	,	-17002	,	-13232	,	25.574686	,	35
47,13	,	65055	,	-17016	,	-13231	,	31.477026	,	42
47,13	,	65071	,	-16971	,	-13233	,	35.27658	,	47
47,13	,	65087	,	-17008	,	-13235	,	37.08261	,	49
47,13	,	65119	,	-16992	,	-13231	,	37.064987	,	48
47,13	,	65135	,	-16975	,	-13232	,	35.37695	,	44
47,13	,	65151	,	-17014	,	-13235	,	32.37591	,	39
47,13	,	65183	,	-16980	,	-13220	,	28.3529	,	32
47,13	,	65199	,	-16996	,	-13236	,	23.63793	,	24
47,13	,	65231	,	-16991	,	-13232	,	18.745209	,	16
47,13	,	65247	,	-17021	,	-13232	,	13.933597	,	9
47,13	,	65263	,	-16998	,	-13234	,	9.163944	,	4
47,13	,	65295	,	-17017	,	-13237	,	4.519602	,	1
47,13	,	65311	,	-17005	,	-13240	,	0.28360653	,	0
47,13	,	65327	,	-17035	,	-13239	,	-3.3622103	,	0
47,13	,	65359	,	-17048	,	-13242	,	-6.5968056	,	0
47,13	,	65375	,	-17039	,	-13240	,	-9.759073	,	0
47,13	,	65407	,	-17053	,	-13251	,	-12.873283	,	0
47,13	,	65423	,	-17059	,	-13235	,	-15.72202	,	0
47,13	,	65439	,	-17063	,	-13250	,	-18.156658	,	0
47,13	,	65471	,	-17073	,	-13245	,	-20.099697	,	0
47,13	,	65487	,	-17075	,	-13247	,	-21.519794	,	0
47,13	,	65503	,	-17082	,	-13251	,	-22.413942	,	0
47,13	,	65535	,	-17078	,	-13253	,	-22.755531	,	0
47,13	,	65551	,	-17094	,	-13250	,	-22.537891	,	0
47,13	,	65567	,	-17104	,	-13258	,	-21.933838	,	0
47,13	,	65599	,	-17084	,	-13258	,	-21.168089	,	0
47,13	,	65615	,	-17100	,	-13261	,	-20.195314	,	0
47,14	,	65647	,	-17111	,	-13265	,	-18.944962	,	0
47,14	,	65663	,	-17121	,	-13265	,	-17.680923	,	1
47,14	,	65679	,	-17125	,	-13269	,	-16.777882	,	2
47,14	,	65711	,	-17105	,	-13263	,	-16.294165	,	2
47,14	,	65727	,	-17085	,	-13257	,	-15.722705	,	2
47,14	,	65743	,	-17053	,	-13248	,	-14.099966	,	2
47,14	,	65775	,	-17065	,	-13251	,	-10.606232	,	3
47,14	,	65791	,	-17033	,	-13248	,	-5.1401434	,	6
47,14	,	65822	,	-17027	,	-13242	,	1.849936	,	11
47,14	,	65839	,	-17016	,	-13242	,	9.73679	,	17
47,14	,	65855	,	-17037	,	-13236	,	17.603092	,	23
47,14	,	65887	,	-17026	,	-13239	,	24.247442	,	29
47,14	,	65903	,	-17040	,	-13242	,	28.65483	,	35
47,14	,	65919	,	-17038	,	-13243	,	30.327158	,	39
47,14	,	65951	,	-17038	,	-13241	,	29.293966	,	40
47,14	,	65967	,	-17042	,	-13240	,	26.03319	,	39
47,14	,	65983	,	-17032	,	-13243	,	21.303963	,	36
47,14	,	66014	,	-17028	,	-13240	,	16.011013	,	31
47,14	,	66030	,	-17026	,	-13243	,	11.03314	,	25
47,14	,	66063	,	-17042	,	-13244	,	6.894972	,	18
47,14	,	66079	,	-17031	,	-13242	,	3.657927	,	11
47,14	,	66095	,	-17054	,	-13245	,	1.1294928	,	5
47,14	,	66127	,	-17065	,	-13242	,	-1.0654962	,	1
47,14	,	66142	,	-17071	,	-13257	,	-3.4078064	,	0
47,14	,	66158	,	-17057	,	-13247	,	-6.0595255	,	0
47,14	,	66191	,	-17064	,	-13253	,	-8.6639385	,	0
47,14	,	66207	,	-17079	,	-13256	,	-10.801854	,	0
47,14	,	66239	,	-17081	,	-13256	,	-12.426685	,	0
47,14	,	66255	,	-17084	,	-13254	,	-13.68093	,	0
47,14	,	66271	,	-17081	,	-13257	,	-14.579138	,	0
47,14	,	66302	,	-17100	,	-13264	,	-15.087045	,	0
47,14	,	66318	,	-17099	,	-13262	,	-15.32984	,	0
47,14	,	66334	,	-17104	,	-13257	,	-15.4902935	,	0
47,14	,	66366	,	-17102	,	-13270	,	-15.596342	,	0
47,14	,	66383	,	-17109	,	-13278	,	-15.557041	,	0
47,14	,	66398	,	-17123	,	-13261	,	-15.367388	,	0
47,14	,	66430	,	-17124	,	-13277	,	-15.197139	,	0
47,14	,	66446	,	-17137	,	-13279	,	-15.243561	,	0
47,14	,	66479	,	-17144	,	-13276	,	-15.630026	,	0
47,14	,	66495	,	-17138	,	-13277	,	-16.347248	,	0
47,14	,	66511	,	-17122	,	-13269	,	-17.051022	,	0
47,14	,	66542	,	-17109	,	-13269	,	-17.045437	,	0
47,14	,	66558	,	-17093	,	-13264	,	-15.602739	,	0
47,14	,	66574	,	-17076	,	-13260	,	-12.266012	,	1
47,14	,	66606	,	-17066	,	-13259	,	-6.9744782	,	4
47,14	,	66622	,	-17057	,	-13261	,	-0.109712124	,	9
47,15	,	66654	,	-17061	,	-13249	,	7.5335364	,	15
47,15	,	66671	,	-17039	,	-13246	,	14.995559	,	22
47,15	,	66687	,	-17037	,	-13243	,	21.551825	,	29
47,15	,	66719	,	-17052	,	-13250	,	26.699614	,	35
47,15	,	66734	,	-17043	,	-13251	,	29.914492	,	40
47,15	,	66751	,	-17049	,	-13244	,	30.861809	,	43
47,15	,	66782	,	-17022	,	-13243	,	29.74327	,	42
47,15	,	66798	,	-17023	,	-13246	,	27.301605	,	39
47,15	,	66814	,	-17027	,	-13250	,	24.367743	,	34
47,15	,	66846	,	-17025	,	-13242	,	21.379293	,	28
47,15	,	66862	,	-17021	,	-13253	,	18.468884	,	21
47,15	,	66894	,	-17017	,	-13234	,	15.751956	,	14
47,15	,	66910	,	-17059	,	-13248	,	13.16355	,	8
47,15	,	66926	,	-17055	,	-13249	,	10.205546	,	3
47,15	,	66958	,	-17026	,	-13250	,	6.5626802	,	0
47,15	,	66974	,	-17058	,	-13248	,	2.656355	,	0
47,15	,	66990	,	-17056	,	-13253	,	-1.0288701	,	0
47,15	,	67022	,	-17079	,	-13259	,	-4.479979	,	0
47,15	,	67039	,	-17060	,	-13257	,	-7.788023	,	0
47,15	,	67070	,	-17097	,	-13259	,	-10.887115	,	0
47,15	,	67087	,	-17086	,	-13261	,	-13.747185	,	0
47,15	,	67102	,	-17079	,	-13273	,	-16.277643	,	0
47,15	,	67134	,	-17097	,	-13256	,	-18.153206	,	0
47,15	,	67150	,	-17100	,	-13263	,	-19.210182	,	0
47,15	,	67166	,	-17116	,	-13268	,	-19.660358	,	0
47,15	,	67198	,	-17116	,	-13269	,	-19.83365	,	0
47,15	,	67214	,	-17129	,	-13265	,	-19.970871	,	0
47,15	,	67230	,	-17135	,	-13273	,	-20.20068	,	0
47,15	,	67262	,	-17139	,	-13278	,	-20.57181	,	0
47,15	,	67278	,	-17142	,	-13276	,	-21.010414	,	0
47,15	,	67310	,	-17147	,	-13281	,	-21.343384	,	0
47,15	,	67326	,	-17155	,	-13283	,	-21.438831	,	0
47,15	,	67342	,	-17148	,	-13287	,	-21.23547	,	0
47,15	,	67374	,	-17153	,	-13278	,	-20.637573	,	0
47,15	,	67390	,	-17132	,	-13271	,	-19.455128	,	0
47,15	,	67406	,	-17104	,	-13263	,	-17.285818	,	1
47,15	,	67438	,	-17096	,	-13261	,	-13.558207	,	3
47,15	,	67454	,	-17080	,	-13257	,	-7.987645	,	6
47,15	,	67486	,	-17077	,	-13254	,	-0.8697157	,	11
47,15	,	67502	,	-17060	,	-13251	,	7.084144	,	18
47,15	,	67518	,	-17057	,	-13249	,	15.049686	,	25
47,15	,	67550	,	-17031	,	-13246	,	22.36022	,	32
47,15	,	67566	,	-17035	,	-13239	,	28.614864	,	39
47,15	,	67582	,	-17033	,	-13238	,	33.48268	,	45
47,15	,	67614	,	-17029	,	-13238	,	36.58332	,	48
47,15	,	67630	,	-17040	,	-13235	,	37.637783	,	49
47,16	,	67662	,	-17032	,	-13239	,	36.562866	,	47
47,16	,	67678	,	-17031	,	-13235	,	33.577168	,	42
47,16	,	67694	,	-17046	,	-13238	,	29.153934	,	35
47,16	,	67726	,	-17024	,	-13235	,	23.83332	,	28
47,16	,	67742	,	-17028	,	-13235	,	18.293772	,	21
47,16	,	67758	,	-17037	,	-13244	,	13.192659	,	14
47,16	,	67790	,	-17051	,	-13244	,	8.738565	,	8
47,16	,	67806	,	-17022	,	-13246	,	4.882432	,	4
47,16	,	67822	,	-17051	,	-13247	,	1.729166	,	1
47,16	,	67854	,	-17063	,	-13253	,	-0.77963686	,	0
47,16	,	67870	,	-17065	,	-13244	,	-3.081725	,	0
47,16	,	67902	,	-17073	,	-13255	,	-5.523766	,	0
47,16	,	67918	,	-17079	,	-13265	,	-8.145488	,	0
47,16	,	67934	,	-17063	,	-13265	,	-10.73729	,	0
47,16	,	67966	,	-17093	,	-13265	,	-12.94692	,	0
47,16	,	67982	,	-17097	,	-13263	,	-14.68472	,	0
47,16	,	67998	,	-17100	,	-13268	,	-16.16519	,	0
47,16	,	68030	,	-17106	,	-13265	,	-17.503693	,	0
47,16	,	68046	,	-17118	,	-13267	,	-18.68137	,	0
47,16	,	68078	,	-17116	,	-13266	,	-19.692219	,	0
47,16	,	68094	,	-17112	,	-13285	,	-20.424683	,	0
47,16	,	68110	,	-17132	,	-13271	,	-20.692348	,	0
47,16	,	68142	,	-17145	,	-13288	,	-20.586205	,	0
47,16	,	68158	,	-17144	,	-13288	,	-20.457958	,	0
47,16	,	68174	,	-17158	,	-13293	,	-20.534466	,	0
47,16	,	68206	,	-17158	,	-13294	,	-20.83436	,	0
47,16	,	68222	,	-17162	,	-13305	,	-21.24282	,	0
47,16	,	68238	,	-17159	,	-13300	,	-21.513687	,	0
47,16	,	68270	,	-17149	,	-13293	,	-21.302385	,	0
47,16	,	68286	,	-17128	,	-13292	,	-20.150867	,	0
47,16	,	68318	,	-17108	,	-13286	,	-17.499416	,	1
47,16	,	68334	,	-17096	,	-13298	,	-12.922658	,	3
47,16	,	68350	,	-17095	,	-13272	,	-6.494047	,	7
47,16	,	68382	,	-17077	,	-13275	,	1.1557255	,	13
47,16	,	68398	,	-17054	,	-13270	,	9.27816	,	20
47,16	,	68414	,	-17055	,	-13265	,	17.309208	,	28
47,16	,	68446	,	-17052	,	-13254	,	24.653215	,	36
47,16	,	68462	,	-17040	,	-13259	,	30.633371	,	43
47,16	,	68494	,	-17054	,	-13253	,	34.72594	,	48
47,16	,	68510	,	-17040	,	-13253	,	36.62258	,	51
47,16	,	68526	,	-17047	,	-13255	,	36.302032	,	50
47,16	,	68558	,	-17037	,	-13254	,	34.079758	,	46
47,16	,	68574	,	-17043	,	-13265	,	30.468727	,	40
47,16	,	68590	,	-17046	,	-13246	,	25.986437	,	33
47,16	,	68622	,	-17012	,	-13255	,	21.19916	,	25
47,16	,	68638	,	-17055	,	-13252	,	16.726051	,	17
47,17	,	68654	,	-17053	,	-13258	,	12.717934	,	10
47,17	,	68686	,	-17066	,	-13254	,	8.795151	,	5
47,17	,	68702	,	-17069	,	-13256	,	4.6546006	,	1
47,17	,	68734	,	-17069	,	-13258	,	0.32752228	,	0
47,17	,	68750	,	-17084	,	-13268	,	-3.9455132	,	0
47,17	,	68766	,	-17074	,	-13264	,	-7.8842096	,	0
47,17	,	68798	,	-17078	,	-13265	,	-11.167682	,	0
47,17	,	68814	,	-17096	,	-13274	,	-13.554057	,	0
47,17	,	68830	,	-17094	,	-13264	,	-15.128841	,	0
47,17	,	68862	,	-17108	,	-13266	,	-16.161884	,	0
47,17	,	68878	,	-17114	,	-13273	,	-16.909924	,	0
47,17	,	68909	,	-17117	,	-13276	,	-17.577623	,	0
47,17	,	68925	,	-17119	,	-13274	,	-18.207228	,	0
47,17	,	68941	,	-17133	,	-13276	,	-18.725464	,	0
47,17	,	68974	,	-17140	,	-13281	,	-19.15069	,	0
47,17	,	68990	,	-17136	,	-13283	,	-19.548807	,	0
47,17	,	69006	,	-17149	,	-13283	,	-19.869534	,	0
47,17	,	69037	,	-17141	,	-13287	,	-19.990479	,	0
47,17	,	69054	,	-17151	,	-13288	,	-19.785532	,	0
47,17	,	69069	,	-17148	,	-13280	,	-19.166853	,	0
47,17	,	69102	,	-17148	,	-13281	,	-18.109768	,	0
47,17	,	69118	,	-17128	,	-13269	,	-16.51649	,	1
47,17	,	69150	,	-17109	,	-13260	,	-14.063894	,	2
47,17	,	69166	,	-17100	,	-13265	,	-10.338606	,	4
47,17	,	69182	,	-17096	,	-13266	,	-5.2409444	,	7
47,17	,	69213	,	-17048	,	-13259	,	1.0224576	,	12
47,17	,	69229	,	-17079	,	-13257	,	8.1624565	,	18
47,17	,	69245	,	-17065	,	-13254	,	15.481064	,	25
47,17	,	69278	,	-17076	,	-13254	,	21.860418	,	32
47,17	,	69293	,	-17068	,	-13254	,	26.373463	,	38
47,17	,	69325	,	-17066	,	-13256	,	28.617672	,	41
47,17	,	69341	,	-17050	,	-13250	,	28.761305	,	42
47,17	,	69357	,	-17073	,	-13251	,	27.303127	,	40
47,17	,	69389	,	-17070	,	-13250	,	24.606365	,	37
47,17	,	69406	,	-17065	,	-13252	,	20.905188	,	32
47,17	,	69422	,	-17056	,	-13253	,	16.658796	,	26
47,17	,	69454	,	-17070	,	-13257	,	12.460642	,	19
47,17	,	69469	,	-17068	,	-13255	,	8.658678	,	12
47,17	,	69485	,	-17073	,	-13258	,	5.322234	,	6
47,17	,	69517	,	-17080	,	-13255	,	2.4115744	,	2
47,17	,	69533	,	-17070	,	-13262	,	-0.114729404	,	0
47,17	,	69566	,	-17084	,	-13265	,	-2.2308395	,	0
47,17	,	69582	,	-17092	,	-13250	,	-3.9756608	,	0
47,17	,	69598	,	-17102	,	-13260	,	-5.577515	,	0
47,17	,	69630	,	-17105	,	-13258	,	-7.284918	,	0
47,17	,	69645	,	-17107	,	-13264	,	-9.158947	,	0
47,18	,	69661	,	-17109	,	-13265	,	-11.0412655	,	0
47,18	,	69693	,	-17114	,	-13265	,	-12.689302	,	0
47,18	,	69709	,	-17128	,	-13267	,	-13.983555	,	0
47,18	,	69741	,	-17123	,	-13272	,	-14.97273	,	0
47,18	,	69757	,	-17128	,	-13271	,	-15.682821	,	0
47,18	,	69773	,	-17127	,	-13267	,	-16.030312	,	0
47,18	,	69805	,	-17137	,	-13278	,	-15.961323	,	0
47,18	,	69821	,	-17142	,	-13267	,	-15.566494	,	0
47,18	,	69837	,	-17147	,	-13280	,	-15.042893	,	0
47,18	,	69869	,	-17151	,	-13282	,	-14.569008	,	0
47,18	,	69885	,	-17164	,	-13279	,	-14.275877	,	0
47,18	,	69901	,	-17152	,	-13279	,	-14.2171335	,	0
47,18	,	69934	,	-17136	,	-13275	,	-14.1389885	,	0
47,18	,	69949	,	-17118	,	-13263	,	-13.399756	,	0
47,18	,	69981	,	-17114	,	-13267	,	-11.345155	,	0
47,18	,	69997	,	-17107	,	-13263	,	-7.759287	,	2
47,18	,	70013	,	-17093	,	-13268	,	-2.895347	,	5
47,18	,	70045	,	-17089	,	-13264	,	2.7841554	,	9
47,18	,	70061	,	-17099	,	-13250	,	8.646841	,	14
47,18	,	70077	,	-17078	,	-13261	,	13.936675	,	19
47,18	,	70109	,	-17076	,	-13259	,	18.163319	,	24
47,18	,	70125	,	-17082	,	-13251	,	21.170023	,	28
47,18	,	70157	,	-17088	,	-13259	,	22.784359	,	31
47,18	,	70173	,	-17090	,	-13251	,	22.790737	,	32
47,18	,	70189	,	-17086	,	-13253	,	21.196312	,	30
47,18	,	70221	,	-17088	,	-13250	,	18.334084	,	27
47,18	,	70237	,	-17085	,	-13257	,	14.72582	,	23
47,18	,	70253	,	-17070	,	-13254	,	10.973814	,	18
47,18	,	70285	,	-17089	,	-13257	,	7.6374016	,	13
47,18	,	70301	,	-17078	,	-13248	,	4.9737134	,	8
47,18	,	70318	,	-17092	,	-13255	,	2.935357	,	4
47,18	,	70349	,	-17096	,	-13263	,	1.3211117	,	1
47,18	,	70365	,	-17100	,	-13257	,	-0.1495378	,	0
47,18	,	70397	,	-17108	,	-13264	,	-1.7025478	,	0
47,18	,	70413	,	-17111	,	-13260	,	-3.4508777	,	0
47,18	,	70429	,	-17114	,	-13261	,	-5.383893	,	0
47,18	,	70461	,	-17119	,	-13260	,	-7.366278	,	0
47,18	,	70477	,	-17124	,	-13264	,	-9.240839	,	0
47,18	,	70493	,	-17134	,	-13261	,	-10.929957	,	0
47,18	,	70525	,	-17130	,	-13268	,	-12.413915	,	0
47,18	,	70541	,	-17142	,	-13262	,	-13.650058	,	0
47,18	,	70573	,	-17134	,	-13272	,	-14.563395	,	0
47,18	,	70589	,	-17152	,	-13270	,	-15.099567	,	0
47,18	,	70605	,	-17155	,	-13276	,	-15.338114	,	0
47,18	,	70637	,	-17155	,	-13275	,	-15.450747	,	0
47,19	,	70653	,	-17156	,	-13275	,	-15.46999	,	0
47,19	,	70669	,	-17166	,	-13274	,	-15.317669	,	0
47,19	,	70701	,	-17165	,	-13277	,	-14.993481	,	0
47,19	,	70717	,	-17171	,	-13279	,	-14.5548725	,	0
47,19	,	70733	,	-17158	,	-13272	,	-13.979932	,	0
47,19	,	70765	,	-17145	,	-13266	,	-13.032512	,	0
47,19	,	70781	,	-17131	,	-13265	,	-11.2759495	,	0
47,19	,	70813	,	-17115	,	-13261	,	-8.298014	,	1
47,19	,	70829	,	-17093	,	-13257	,	-3.8663092	,	3
47,19	,	70845	,	-17092	,	-13253	,	1.9787216	,	7
47,19	,	70877	,	-17082	,	-13251	,	8.7702465	,	12
47,19	,	70893	,	-17075	,	-13240	,	15.72311	,	18
47,19	,	70909	,	-17050	,	-13241	,	22.162144	,	24
47,19	,	70941	,	-17048	,	-13235	,	27.761675	,	30
47,19	,	70957	,	-17039	,	-13240	,	32.345684	,	35
47,19	,	70989	,	-17059	,	-13245	,	35.57795	,	39
47,19	,	71005	,	-17042	,	-13239	,	36.997673	,	41
47,19	,	71021	,	-17052	,	-13245	,	36.38943	,	40
47,19	,	71053	,	-17053	,	-13236	,	33.892097	,	36
47,19	,	71069	,	-17052	,	-13236	,	29.82542	,	31
47,19	,	71085	,	-17055	,	-13239	,	24.661467	,	25
47,19	,	71117	,	-17060	,	-13237	,	18.953068	,	19
47,19	,	71133	,	-17063	,	-13240	,	13.169245	,	13
47,19	,	71165	,	-17076	,	-13247	,	7.614813	,	8
47,19	,	71181	,	-17076	,	-13242	,	2.4354525	,	4
47,19	,	71197	,	-17065	,	-13239	,	-2.180489	,	1
47,19	,	71229	,	-17084	,	-13246	,	-5.9289303	,	0
47,19	,	71245	,	-17080	,	-13247	,	-8.680853	,	0
47,19	,	71261	,	-17081	,	-13257	,	-10.517035	,	0
47,19	,	71293	,	-17093	,	-13238	,	-11.552447	,	0
47,19	,	71309	,	-17082	,	-13256	,	-11.940284	,	0
47,19	,	71325	,	-17095	,	-13251	,	-11.821239	,	0
47,19	,	71357	,	-17107	,	-13254	,	-11.400568	,	0
47,19	,	71373	,	-17112	,	-13255	,	-11.063425	,	0
47,19	,	71405	,	-17116	,	-13257	,	-11.140841	,	0
47,19	,	71421	,	-17126	,	-13257	,	-11.724892	,	0
47,19	,	71437	,	-17123	,	-13258	,	-12.721006	,	0
47,19	,	71469	,	-17138	,	-13263	,	-13.930192	,	0
47,19	,	71485	,	-17127	,	-13264	,	-15.122015	,	0
47,19	,	71501	,	-17131	,	-13279	,	-16.0127	,	0
47,19	,	71533	,	-17144	,	-13261	,	-16.37608	,	0
47,19	,	71549	,	-17145	,	-13268	,	-16.267754	,	0
47,19	,	71581	,	-17136	,	-13268	,	-15.835873	,	0
47,19	,	71597	,	-17122	,	-13259	,	-14.952732	,	0
47,19	,	71613	,	-17108	,	-13250	,	-13.220104	,	0
47,19	,	71645	,	-17098	,	-13246	,	-10.259916	,	1
47,20	,	71661	,	-17073	,	-13247	,	-5.89891	,	3
47,20	,	71676	,	-17066	,	-13242	,	-0.16889477	,	7
47,20	,	71708	,	-17053	,	-13241	,	6.6320963	,	12
47,20	,	71725	,	-17013	,	-13239	,	14.071866	,	18
47,20	,	71741	,	-17038	,	-13245	,	21.734398	,	25
47,20	,	71773	,	-17007	,	-13225	,	28.97525	,	32
47,20	,	71789	,	-17029	,	-13229	,	34.954765	,	39
47,20	,	71820	,	-17012	,	-13233	,	38.9594	,	44
47,20	,	71837	,	-17021	,	-13233	,	40.582504	,	47
47,20	,	71852	,	-17036	,	-13229	,	39.718117	,	46
47,20	,	71884	,	-17023	,	-13229	,	36.465004	,	42
47,20	,	71900	,	-17040	,	-13234	,	31.231686	,	37
47,20	,	71917	,	-17005	,	-13226	,	24.82307	,	31
47,20	,	71949	,	-17031	,	-13232	,	18.271019	,	24
47,20	,	71965	,	-17027	,	-13228	,	12.347479	,	17
47,20	,	71996	,	-17025	,	-13229	,	7.331687	,	10
47,20	,	72012	,	-17041	,	-13225	,	3.2606354	,	5
47,20	,	72028	,	-17046	,	-13231	,	-0.03529501	,	1
47,20	,	72060	,	-17052	,	-13236	,	-2.873968	,	0
47,20	,	72076	,	-17060	,	-13235	,	-5.484267	,	0
47,20	,	72092	,	-17066	,	-13235	,	-7.9725404	,	0
47,20	,	72125	,	-17067	,	-13241	,	-10.339726	,	0
47,20	,	72141	,	-17078	,	-13244	,	-12.49463	,	0
47,20	,	72157	,	-17088	,	-13245	,	-14.398711	,	0
47,20	,	72188	,	-17088	,	-13240	,	-16.101665	,	0
47,20	,	72204	,	-17091	,	-13244	,	-17.565094	,	0
47,20	,	72236	,	-17103	,	-13252	,	-18.668367	,	0
47,20	,	72252	,	-17098	,	-13246	,	-19.35347	,	0
47,20	,	72268	,	-17118	,	-13254	,	-19.643055	,	0
47,20	,	72301	,	-17115	,	-13257	,	-19.660297	,	0
47,20	,	72317	,	-17123	,	-13257	,	-19.553904	,	0
47,20	,	72333	,	-17132	,	-13265	,	-19.401434	,	0
47,20	,	72365	,	-17141	,	-13259	,	-19.295906	,	0
47,20	,	72380	,	-17139	,	-13265	,	-19.31913	,	0
47,20	,	72412	,	-17137	,	-13261	,	-19.36603	,	0
47,20	,	72428	,	-17128	,	-13258	,	-19.114155	,	0
47,20	,	72444	,	-17114	,	-13251	,	-18.122414	,	0
47,20	,	72476	,	-17094	,	-13251	,	-15.906449	,	0
47,20	,	72492	,	-17089	,	-13259	,	-12.105551	,	2
47,20	,	72509	,	-17085	,	-13244	,	-6.789839	,	5
47,20	,	72540	,	-17067	,	-13242	,	-0.4710164	,	10
47,20	,	72556	,	-17058	,	-13237	,	6.2617087	,	16
47,20	,	72572	,	-17050	,	-13238	,	12.916182	,	22
47,20	,	72604	,	-17039	,	-13233	,	19.042656	,	28
47,20	,	72620	,	-17034	,	-13233	,	24.264053	,	34
47,21	,	72652	,	-17023	,	-13224	,	28.330368	,	39
47,21	,	72668	,	-17034	,	-13226	,	31.063148	,	43
47,21	,	72685	,	-17026	,	-13234	,	32.272186	,	43
47,21	,	72716	,	-17042	,	-13234	,	31.800945	,	41
47,21	,	72732	,	-17055	,	-13241	,	29.533506	,	36
47,21	,	72748	,	-17023	,	-13228	,	25.578924	,	30
47,21	,	72780	,	-17029	,	-13227	,	20.64647	,	24
47,21	,	72796	,	-17038	,	-13226	,	15.6695385	,	18
47,21	,	72828	,	-17067	,	-13231	,	10.9918785	,	12
47,21	,	72844	,	-17061	,	-13234	,	6.35979	,	7
47,21	,	72860	,	-17076	,	-13243	,	1.5450726	,	3
47,21	,	72892	,	-17069	,	-13235	,	-3.3341708	,	1
47,21	,	72908	,	-17074	,	-13238	,	-7.896393	,	0
47,21	,	72924	,	-17088	,	-13237	,	-11.752078	,	0
47,21	,	72956	,	-17070	,	-13238	,	-14.684017	,	0
47,21	,	72972	,	-17085	,	-13251	,	-16.531637	,	0
47,21	,	72988	,	-17089	,	-13240	,	-17.254723	,	0
47,21	,	73020	,	-17103	,	-13250	,	-17.142609	,	0
47,21	,	73036	,	-17110	,	-13254	,	-16.695753	,	0
47,21	,	73068	,	-17106	,	-13252	,	-16.316023	,	0
47,21	,	73084	,	-17121	,	-13250	,	-16.137442	,	0
47,21	,	73100	,	-17117	,	-13256	,	-16.140514	,	0
47,21	,	73132	,	-17123	,	-13255	,	-16.240063	,	0
47,21	,	73148	,	-17127	,	-13264	,	-16.29913	,	0
47,21	,	73164	,	-17135	,	-13259	,	-16.253628	,	0
47,21	,	73196	,	-17131	,	-13264	,	-16.112915	,	0
47,21	,	73212	,	-17135	,	-13269	,	-15.827679	,	0
47,21	,	73244	,	-17122	,	-13252	,	-15.244509	,	0
47,21	,	73260	,	-17094	,	-13255	,	-14.003909	,	0
47,21	,	73276	,	-17093	,	-13243	,	-11.555342	,	1
47,21	,	73308	,	-17078	,	-13238	,	-7.583912	,	3
47,21	,	73324	,	-17073	,	-13242	,	-2.2713885	,	6
47,21	,	73340	,	-17077	,	-13235	,	3.8051653	,	11
47,21	,	73372	,	-17066	,	-13234	,	9.835823	,	17
47,21	,	73388	,	-17065	,	-13240	,	15.091401	,	23
47,21	,	73404	,	-17065	,	-13230	,	19.112583	,	28
47,21	,	73436	,	-17063	,	-13232	,	21.634903	,	32
47,21	,	73452	,	-17066	,	-13238	,	22.555859	,	34
47,21	,	73484	,	-17059	,	-13228	,	21.971416	,	33
47,21	,	73500	,	-17074	,	-13234	,	20.128796	,	31
47,21	,	73516	,	-17056	,	-13229	,	17.350414	,	28
47,21	,	73548	,	-17061	,	-13234	,	14.089962	,	23
47,21	,	73564	,	-17059	,	-13235	,	10.851168	,	17
47,21	,	73580	,	-17066	,	-13235	,	7.9371023	,	11
47,21	,	73612	,	-17077	,	-13235	,	5.364912	,	6
47,21	,	73628	,	-17080	,	-13238	,	2.945263	,	2
47,22	,	73660	,	-17075	,	-13247	,	0.53484917	,	0
47,22	,	73676	,	-17082	,	-13243	,	-1.7773073	,	0
47,22	,	73692	,	-17083	,	-13247	,	-3.8220615	,	0
47,22	,	73724	,	-17103	,	-13239	,	-5.591089	,	0
47,22	,	73740	,	-17096	,	-13241	,	-7.248553	,	0
47,22	,	73756	,	-17105	,	-13246	,	-8.890551	,	0
