Data recorded on Sun Jul 23 13-57-55 CAT 2017
Time: 13:58:0
Time		Millis		IR PPG		Red PPG		Filtered		SSF
58,9	,	20612	,	-26319	,	-23470	,	-2.797899	,	3
58,9	,	20644	,	-26337	,	-23444	,	-2.9008372	,	3
58,9	,	20661	,	-26354	,	-23465	,	-3.8842049	,	3
58,9	,	20676	,	-26355	,	-23475	,	-5.9858747	,	3
58,9	,	20708	,	-26360	,	-23472	,	-9.08866	,	3
58,9	,	20724	,	-26366	,	-23472	,	-12.701477	,	3
58,9	,	20740	,	-26372	,	-23471	,	-16.269455	,	3
58,9	,	20772	,	-26375	,	-23485	,	-19.357346	,	2
58,9	,	20788	,	-26392	,	-23484	,	-21.716595	,	1
58,9	,	20820	,	-26393	,	-23494	,	-23.343653	,	0
58,9	,	20836	,	-26404	,	-23502	,	-24.368965	,	0
58,9	,	20852	,	-26418	,	-23502	,	-24.9666	,	0
58,9	,	20884	,	-26404	,	-23479	,	-25.276129	,	0
58,9	,	20900	,	-26337	,	-23467	,	-24.843262	,	0
58,9	,	20916	,	-26325	,	-23450	,	-22.347488	,	0
58,9	,	20948	,	-26298	,	-23449	,	-16.582386	,	2
58,9	,	20964	,	-26294	,	-23448	,	-7.4700985	,	7
58,9	,	20996	,	-26287	,	-23446	,	3.937706	,	16
58,9	,	21012	,	-26289	,	-23442	,	15.943781	,	27
58,9	,	21029	,	-26280	,	-23442	,	26.802664	,	39
58,9	,	21060	,	-26288	,	-23442	,	35.18514	,	49
58,9	,	21076	,	-26276	,	-23444	,	40.34365	,	57
58,9	,	21092	,	-26294	,	-23454	,	42.093056	,	62
58,9	,	21124	,	-26306	,	-23449	,	40.55989	,	63
58,9	,	21140	,	-26316	,	-23451	,	35.981396	,	61
58,9	,	21172	,	-26300	,	-23458	,	28.938726	,	56
58,9	,	21188	,	-26295	,	-23446	,	20.601406	,	47
58,9	,	21204	,	-26288	,	-23451	,	12.434229	,	36
58,9	,	21236	,	-26295	,	-23443	,	5.593851	,	24
58,9	,	21252	,	-26295	,	-23448	,	0.5809822	,	14
58,9	,	21268	,	-26304	,	-23452	,	-2.6804228	,	6
58,9	,	21300	,	-26312	,	-23451	,	-4.6088552	,	1
58,9	,	21316	,	-26311	,	-23453	,	-5.7291174	,	0
58,9	,	21332	,	-26316	,	-23446	,	-6.4428353	,	0
58,9	,	21364	,	-26317	,	-23463	,	-6.965229	,	0
58,9	,	21380	,	-26320	,	-23455	,	-7.392511	,	0
58,9	,	21412	,	-26337	,	-23459	,	-7.8236394	,	0
58,9	,	21428	,	-26340	,	-23458	,	-8.4687805	,	0
58,9	,	21444	,	-26352	,	-23469	,	-9.539876	,	0
58,9	,	21476	,	-26353	,	-23466	,	-11.080918	,	0
58,9	,	21492	,	-26353	,	-23485	,	-12.911763	,	0
58,9	,	21508	,	-26363	,	-23471	,	-14.7122555	,	0
58,9	,	21540	,	-26367	,	-23482	,	-16.240618	,	0
58,9	,	21556	,	-26372	,	-23491	,	-17.407784	,	0
58,9	,	21588	,	-26385	,	-23486	,	-18.231379	,	0
58,9	,	21604	,	-26390	,	-23491	,	-18.840673	,	0
58,10	,	21620	,	-26394	,	-23493	,	-19.368767	,	0
58,10	,	21652	,	-26405	,	-23493	,	-19.849155	,	0
58,10	,	21668	,	-26399	,	-23485	,	-20.239668	,	0
58,10	,	21684	,	-26350	,	-23463	,	-20.143513	,	0
58,10	,	21716	,	-26332	,	-23450	,	-18.536724	,	0
58,10	,	21732	,	-26296	,	-23445	,	-14.289951	,	1
58,10	,	21748	,	-26277	,	-23438	,	-6.880521	,	5
58,10	,	21780	,	-26268	,	-23436	,	3.3515644	,	12
58,10	,	21796	,	-26263	,	-23437	,	15.2165165	,	22
58,10	,	21828	,	-26264	,	-23431	,	27.006344	,	33
58,10	,	21844	,	-26258	,	-23427	,	37.04292	,	44
58,10	,	21860	,	-26246	,	-23429	,	44.18392	,	54
58,10	,	21892	,	-26262	,	-23428	,	47.967125	,	61
58,10	,	21908	,	-26258	,	-23438	,	48.332283	,	64
58,10	,	21924	,	-26271	,	-23439	,	45.476334	,	63
58,10	,	21956	,	-26263	,	-23431	,	39.932076	,	59
58,10	,	21972	,	-26253	,	-23429	,	32.625435	,	52
58,10	,	22003	,	-26261	,	-23421	,	24.722654	,	42
58,10	,	22020	,	-26251	,	-23425	,	17.24022	,	31
58,10	,	22036	,	-26248	,	-23432	,	10.891636	,	20
58,10	,	22068	,	-26247	,	-23413	,	6.1285686	,	10
58,10	,	22084	,	-26254	,	-23425	,	3.0340166	,	3
58,10	,	22100	,	-26245	,	-23425	,	1.3496752	,	0
58,10	,	22132	,	-26251	,	-23424	,	0.7164662	,	0
58,10	,	22148	,	-26255	,	-23428	,	0.75278103	,	0
58,10	,	22164	,	-26251	,	-23435	,	1.0534842	,	0
58,10	,	22196	,	-26268	,	-23435	,	1.2640814	,	0
58,10	,	22212	,	-26271	,	-23434	,	1.0455971	,	0
58,10	,	22244	,	-26277	,	-23441	,	0.1248121	,	0
58,10	,	22260	,	-26284	,	-23439	,	-1.5558777	,	0
58,10	,	22276	,	-26281	,	-23459	,	-3.8270473	,	0
58,10	,	22308	,	-26295	,	-23435	,	-6.3789454	,	0
58,10	,	22324	,	-26309	,	-23457	,	-8.995555	,	0
58,10	,	22340	,	-26320	,	-23466	,	-11.707525	,	0
58,10	,	22372	,	-26316	,	-23456	,	-14.551868	,	0
58,10	,	22388	,	-26320	,	-23465	,	-17.290276	,	0
58,10	,	22419	,	-26332	,	-23464	,	-19.559677	,	0
58,10	,	22436	,	-26338	,	-23463	,	-21.202127	,	0
58,10	,	22452	,	-26345	,	-23469	,	-22.275225	,	0
58,10	,	22484	,	-26353	,	-23475	,	-22.891857	,	0
58,10	,	22500	,	-26363	,	-23467	,	-23.18762	,	0
58,10	,	22516	,	-26335	,	-23484	,	-23.161793	,	0
58,10	,	22548	,	-26311	,	-23436	,	-22.31937	,	0
58,10	,	22564	,	-26254	,	-23427	,	-19.590902	,	0
58,10	,	22579	,	-26234	,	-23422	,	-13.783615	,	2
58,11	,	22612	,	-26221	,	-23424	,	-4.4276104	,	7
58,11	,	22628	,	-26213	,	-23420	,	7.6890564	,	16
58,11	,	22660	,	-26209	,	-23414	,	20.862335	,	28
58,11	,	22676	,	-26201	,	-23421	,	33.19763	,	41
58,11	,	22692	,	-26205	,	-23413	,	43.131573	,	53
58,11	,	22723	,	-26194	,	-23410	,	49.67716	,	62
58,11	,	22739	,	-26196	,	-23408	,	52.509533	,	68
58,11	,	22755	,	-26204	,	-23431	,	51.81785	,	70
58,11	,	22788	,	-26219	,	-23400	,	47.970306	,	68
58,11	,	22804	,	-26208	,	-23415	,	41.47303	,	63
58,11	,	22835	,	-26210	,	-23403	,	33.20111	,	54
58,11	,	22852	,	-26198	,	-23403	,	24.350885	,	42
58,11	,	22867	,	-26190	,	-23405	,	16.143011	,	29
58,11	,	22899	,	-26199	,	-23416	,	9.4972725	,	17
58,11	,	22915	,	-26196	,	-23406	,	4.7491465	,	8
58,11	,	22932	,	-26201	,	-23417	,	1.7226171	,	2
58,11	,	22964	,	-26212	,	-23416	,	-0.02286768	,	0
58,11	,	22980	,	-26209	,	-23411	,	-1.0437341	,	0
58,11	,	22996	,	-26204	,	-23431	,	-1.7447395	,	0
58,11	,	23028	,	-26217	,	-23406	,	-2.275733	,	0
58,11	,	23043	,	-26230	,	-23427	,	-2.8270469	,	0
58,11	,	23076	,	-26246	,	-23424	,	-3.7970018	,	0
58,11	,	23092	,	-26232	,	-23431	,	-5.478734	,	0
58,11	,	23107	,	-26248	,	-23437	,	-7.7275505	,	0
58,11	,	23139	,	-26256	,	-23433	,	-10.202647	,	0
58,11	,	23156	,	-26256	,	-23440	,	-12.689596	,	0
58,11	,	23172	,	-26271	,	-23446	,	-15.035042	,	0
58,11	,	23203	,	-26271	,	-23445	,	-17.117641	,	0
58,11	,	23219	,	-26278	,	-23456	,	-18.848595	,	0
58,11	,	23251	,	-26292	,	-23470	,	-20.170206	,	0
58,11	,	23267	,	-26293	,	-23442	,	-21.135698	,	0
58,11	,	23283	,	-26314	,	-23459	,	-21.888584	,	0
58,11	,	23316	,	-26318	,	-23457	,	-22.624966	,	0
58,11	,	23332	,	-26325	,	-23463	,	-23.487669	,	0
58,11	,	23348	,	-26328	,	-23464	,	-24.416836	,	0
58,11	,	23379	,	-26298	,	-23464	,	-25.03545	,	0
58,11	,	23395	,	-26273	,	-23446	,	-24.507507	,	0
58,11	,	23411	,	-26241	,	-23431	,	-21.737783	,	0
58,11	,	23443	,	-26216	,	-23426	,	-15.9156	,	2
58,11	,	23459	,	-26211	,	-23423	,	-6.984312	,	7
58,11	,	23491	,	-26218	,	-23440	,	4.0923557	,	15
58,11	,	23508	,	-26207	,	-23406	,	15.588778	,	26
58,11	,	23523	,	-26215	,	-23414	,	25.74954	,	37
58,11	,	23555	,	-26210	,	-23423	,	33.29186	,	47
58,11	,	23571	,	-26205	,	-23420	,	37.58584	,	54
58,11	,	23587	,	-26220	,	-23434	,	38.614483	,	58
58,12	,	23619	,	-26247	,	-23432	,	36.541756	,	59
58,12	,	23635	,	-26234	,	-23422	,	31.548973	,	57
58,12	,	23667	,	-26239	,	-23429	,	24.278963	,	52
58,12	,	23683	,	-26234	,	-23427	,	15.918982	,	44
58,12	,	23699	,	-26225	,	-23423	,	7.773713	,	33
58,12	,	23731	,	-26221	,	-23438	,	0.968071	,	22
58,12	,	23747	,	-26207	,	-23416	,	-3.7054334	,	12
58,12	,	23763	,	-26228	,	-23424	,	-5.977985	,	5
58,12	,	23795	,	-26239	,	-23422	,	-6.3180923	,	1
58,12	,	23811	,	-26240	,	-23428	,	-5.7137604	,	0
58,12	,	23843	,	-26245	,	-23429	,	-5.036225	,	0
58,12	,	23859	,	-26255	,	-23435	,	-4.775824	,	0
58,12	,	23875	,	-26257	,	-23430	,	-5.1634107	,	0
58,12	,	23907	,	-26262	,	-23440	,	-6.208997	,	0
58,12	,	23923	,	-26264	,	-23443	,	-7.720967	,	0
58,12	,	23939	,	-26270	,	-23437	,	-9.429888	,	0
58,12	,	23971	,	-26294	,	-23457	,	-11.200356	,	0
58,12	,	23987	,	-26295	,	-23451	,	-13.138094	,	0
58,12	,	24003	,	-26303	,	-23454	,	-15.341435	,	0
58,12	,	24035	,	-26313	,	-23461	,	-17.696943	,	0
58,12	,	24051	,	-26317	,	-23457	,	-20.00076	,	0
58,12	,	24083	,	-26333	,	-23458	,	-22.093794	,	0
58,12	,	24099	,	-26336	,	-23462	,	-23.907486	,	0
58,12	,	24115	,	-26340	,	-23474	,	-25.38615	,	0
58,12	,	24147	,	-26351	,	-23470	,	-26.427292	,	0
58,12	,	24163	,	-26352	,	-23470	,	-26.969288	,	0
58,12	,	24179	,	-26345	,	-23472	,	-26.932932	,	0
58,12	,	24211	,	-26357	,	-23488	,	-26.16793	,	0
58,12	,	24227	,	-26377	,	-23477	,	-24.759777	,	0
58,12	,	24259	,	-26349	,	-23479	,	-23.04021	,	1
58,12	,	24275	,	-26310	,	-23466	,	-20.851347	,	2
58,12	,	24291	,	-26283	,	-23450	,	-17.233593	,	4
58,12	,	24323	,	-26274	,	-23445	,	-11.254529	,	7
58,12	,	24339	,	-26265	,	-23438	,	-2.8908167	,	12
58,12	,	24355	,	-26248	,	-23447	,	7.0071354	,	20
58,12	,	24387	,	-26237	,	-23436	,	17.307089	,	29
58,12	,	24403	,	-26249	,	-23432	,	26.875679	,	39
58,12	,	24419	,	-26242	,	-23437	,	34.56443	,	48
58,12	,	24451	,	-26239	,	-23440	,	39.510086	,	54
58,12	,	24467	,	-26244	,	-23445	,	41.427658	,	57
58,12	,	24499	,	-26260	,	-23446	,	40.393776	,	56
58,12	,	24515	,	-26254	,	-23439	,	36.648666	,	53
58,12	,	24531	,	-26266	,	-23441	,	30.715706	,	48
58,12	,	24563	,	-26257	,	-23448	,	23.407091	,	40
58,12	,	24579	,	-26256	,	-23442	,	15.691097	,	31
58,12	,	24595	,	-26265	,	-23441	,	8.477691	,	21
58,13	,	24627	,	-26255	,	-23439	,	2.3821497	,	12
58,13	,	24643	,	-26256	,	-23447	,	-2.2343993	,	5
58,13	,	24675	,	-26254	,	-23450	,	-5.1940265	,	1
58,13	,	24691	,	-26261	,	-23439	,	-6.589818	,	0
58,13	,	24707	,	-26269	,	-23443	,	-6.8136296	,	0
58,13	,	24739	,	-26280	,	-23445	,	-6.475854	,	0
58,13	,	24755	,	-26283	,	-23452	,	-6.200572	,	0
58,13	,	24771	,	-26293	,	-23455	,	-6.4083395	,	0
58,13	,	24803	,	-26295	,	-23457	,	-7.253661	,	0
58,13	,	24819	,	-26303	,	-23454	,	-8.666683	,	0
58,13	,	24835	,	-26313	,	-23459	,	-10.473297	,	0
58,13	,	24867	,	-26318	,	-23462	,	-12.518893	,	0
58,13	,	24883	,	-26318	,	-23464	,	-14.624471	,	0
58,13	,	24915	,	-26323	,	-23463	,	-16.520184	,	0
58,13	,	24931	,	-26332	,	-23464	,	-17.969238	,	0
58,13	,	24947	,	-26345	,	-23467	,	-18.948172	,	0
58,13	,	24979	,	-26354	,	-23479	,	-19.655613	,	0
58,13	,	24995	,	-26352	,	-23481	,	-20.292217	,	0
58,13	,	25011	,	-26361	,	-23485	,	-20.864628	,	0
58,13	,	25043	,	-26358	,	-23484	,	-21.23677	,	0
58,13	,	25059	,	-26365	,	-23484	,	-21.252266	,	0
58,13	,	25091	,	-26369	,	-23488	,	-20.830162	,	0
58,13	,	25107	,	-26389	,	-23495	,	-20.099144	,	0
58,13	,	25123	,	-26382	,	-23499	,	-19.35982	,	0
58,13	,	25155	,	-26399	,	-23507	,	-18.835358	,	0
58,13	,	25171	,	-26406	,	-23488	,	-18.626278	,	0
58,13	,	25187	,	-26403	,	-23502	,	-18.763271	,	0
58,13	,	25219	,	-26333	,	-23475	,	-18.73824	,	0
58,13	,	25235	,	-26318	,	-23468	,	-17.151787	,	0
58,13	,	25251	,	-26304	,	-23459	,	-12.641333	,	1
58,13	,	25283	,	-26291	,	-23458	,	-5.012081	,	5
58,13	,	25299	,	-26285	,	-23463	,	4.83187	,	12
58,13	,	25331	,	-26288	,	-23454	,	15.431172	,	21
58,13	,	25347	,	-26293	,	-23461	,	25.134026	,	31
58,13	,	25363	,	-26279	,	-23460	,	32.564125	,	40
58,13	,	25395	,	-26285	,	-23469	,	37.036354	,	47
58,13	,	25411	,	-26279	,	-23443	,	38.506832	,	51
58,13	,	25426	,	-26299	,	-23468	,	37.234642	,	52
58,13	,	25459	,	-26307	,	-23472	,	33.511284	,	51
58,13	,	25475	,	-26298	,	-23468	,	27.737667	,	47
58,13	,	25507	,	-26287	,	-23458	,	20.756685	,	40
58,13	,	25523	,	-26283	,	-23458	,	13.769915	,	31
58,13	,	25539	,	-26293	,	-23445	,	7.773489	,	21
58,13	,	25571	,	-26288	,	-23453	,	3.1980057	,	12
58,13	,	25587	,	-26285	,	-23462	,	0.07722759	,	5
58,13	,	25602	,	-26295	,	-23459	,	-1.7268825	,	1
58,14	,	25635	,	-26290	,	-23473	,	-2.5235746	,	0
58,14	,	25651	,	-26301	,	-23452	,	-2.718833	,	0
58,14	,	25667	,	-26316	,	-23458	,	-2.7713385	,	0
58,14	,	25699	,	-26316	,	-23472	,	-3.1718202	,	0
58,14	,	25715	,	-26316	,	-23474	,	-4.167663	,	0
58,14	,	25746	,	-26334	,	-23472	,	-5.687591	,	0
58,14	,	25763	,	-26340	,	-23465	,	-7.6458287	,	0
58,14	,	25778	,	-26342	,	-23476	,	-9.986711	,	0
58,14	,	25811	,	-26348	,	-23476	,	-12.502962	,	0
58,14	,	25826	,	-26349	,	-23489	,	-14.879496	,	0
58,14	,	25843	,	-26355	,	-23491	,	-16.832026	,	0
58,14	,	25875	,	-26368	,	-23497	,	-18.229927	,	0
58,14	,	25891	,	-26371	,	-23462	,	-19.153854	,	0
58,14	,	25923	,	-26390	,	-23496	,	-19.806782	,	0
58,14	,	25938	,	-26385	,	-23494	,	-20.393383	,	0
58,14	,	25954	,	-26391	,	-23492	,	-20.960869	,	0
58,14	,	25986	,	-26390	,	-23494	,	-21.346626	,	0
58,14	,	26003	,	-26393	,	-23502	,	-21.334793	,	0
58,14	,	26019	,	-26419	,	-23502	,	-20.906677	,	0
58,14	,	26068	,	-26409	,	-23513	,	-20.01939	,	0
58,14	,	26098	,	-26426	,	-23512	,	-19.72335	,	0
58,14	,	26114	,	-26442	,	-23530	,	-19.405682	,	0
58,14	,	26130	,	-26435	,	-23501	,	-19.237309	,	0
58,14	,	26163	,	-26378	,	-23483	,	-18.96167	,	0
58,14	,	26179	,	-26344	,	-23469	,	-17.339325	,	0
58,14	,	26195	,	-26323	,	-23470	,	-12.8637705	,	1
58,14	,	26227	,	-26316	,	-23468	,	-4.98783	,	5
58,14	,	26242	,	-26299	,	-23463	,	5.561903	,	12
58,14	,	26274	,	-26303	,	-23457	,	17.294857	,	22
58,14	,	26290	,	-26300	,	-23465	,	28.47193	,	33
58,14	,	26306	,	-26293	,	-23461	,	37.553738	,	44
58,14	,	26338	,	-26304	,	-23470	,	43.545444	,	53
58,14	,	26354	,	-26308	,	-23454	,	45.96192	,	58
58,14	,	26371	,	-26340	,	-23475	,	44.61252	,	60
58,14	,	26402	,	-26338	,	-23474	,	39.560837	,	59
58,14	,	26418	,	-26329	,	-23475	,	31.452969	,	55
58,14	,	26435	,	-26325	,	-23469	,	21.702017	,	48
58,14	,	26466	,	-26325	,	-23461	,	11.965656	,	38
58,14	,	26482	,	-26314	,	-23460	,	3.5695229	,	27
58,14	,	26514	,	-26309	,	-23458	,	-2.606742	,	16
58,14	,	26530	,	-26313	,	-23459	,	-6.1785226	,	7
58,14	,	26546	,	-26321	,	-23456	,	-7.375504	,	2
58,14	,	26578	,	-26316	,	-23475	,	-6.887701	,	0
58,14	,	26594	,	-26322	,	-23453	,	-5.4751825	,	0
58,14	,	26610	,	-26331	,	-23460	,	-3.795799	,	1
58,15	,	26642	,	-26333	,	-23468	,	-2.4218273	,	2
58,15	,	26658	,	-26339	,	-23466	,	-1.7426403	,	3
58,15	,	26690	,	-26338	,	-23473	,	-1.8698899	,	3
58,15	,	26706	,	-26348	,	-23472	,	-2.7011075	,	3
58,15	,	26722	,	-26347	,	-23467	,	-4.048866	,	3
58,15	,	26754	,	-26360	,	-23482	,	-5.7336974	,	3
58,15	,	26770	,	-26375	,	-23477	,	-7.6950927	,	3
58,15	,	26786	,	-26372	,	-23477	,	-9.970445	,	3
58,15	,	26818	,	-26391	,	-23495	,	-12.506525	,	2
58,15	,	26834	,	-26393	,	-23467	,	-15.168454	,	1
58,15	,	26850	,	-26411	,	-23486	,	-17.850235	,	0
58,15	,	26882	,	-26408	,	-23484	,	-20.444445	,	0
58,15	,	26898	,	-26412	,	-23485	,	-22.73658	,	0
58,15	,	26930	,	-26416	,	-23490	,	-24.41272	,	0
58,15	,	26946	,	-26423	,	-23499	,	-25.263165	,	0
58,15	,	26962	,	-26430	,	-23496	,	-25.310883	,	0
58,15	,	26994	,	-26437	,	-23504	,	-24.752369	,	0
58,15	,	27010	,	-26431	,	-23504	,	-23.785906	,	0
58,15	,	27026	,	-26451	,	-23506	,	-22.534193	,	0
58,15	,	27058	,	-26456	,	-23522	,	-21.215553	,	1
58,15	,	27074	,	-26446	,	-23484	,	-20.064896	,	2
58,15	,	27106	,	-26364	,	-23465	,	-18.607683	,	3
58,15	,	27122	,	-26330	,	-23450	,	-15.2351055	,	4
58,15	,	27138	,	-26303	,	-23442	,	-8.241268	,	7
58,15	,	27170	,	-26298	,	-23442	,	2.7092848	,	13
58,15	,	27186	,	-26286	,	-23444	,	16.358625	,	23
58,15	,	27202	,	-26289	,	-23438	,	30.597168	,	36
58,15	,	27234	,	-26276	,	-23430	,	43.27905	,	50
58,15	,	27250	,	-26267	,	-23424	,	52.859165	,	61
58,15	,	27282	,	-26274	,	-23430	,	58.593037	,	69
58,15	,	27298	,	-26279	,	-23445	,	60.263725	,	73
58,15	,	27314	,	-26292	,	-23422	,	57.951534	,	73
58,15	,	27346	,	-26292	,	-23439	,	52.06536	,	70
58,15	,	27362	,	-26289	,	-23433	,	43.45449	,	64
58,15	,	27378	,	-26293	,	-23431	,	33.34375	,	54
58,15	,	27410	,	-26276	,	-23430	,	23.06672	,	41
58,15	,	27426	,	-26271	,	-23437	,	13.883102	,	27
58,15	,	27442	,	-26259	,	-23428	,	6.8113604	,	15
58,15	,	27474	,	-26258	,	-23432	,	2.3981056	,	6
58,15	,	27490	,	-26265	,	-23422	,	0.56376076	,	1
58,15	,	27522	,	-26267	,	-23419	,	0.64264536	,	0
58,15	,	27538	,	-26266	,	-23438	,	1.7319598	,	0
58,15	,	27554	,	-26268	,	-23413	,	3.0801494	,	1
58,15	,	27586	,	-26279	,	-23434	,	4.155881	,	2
58,15	,	27602	,	-26288	,	-23432	,	4.5181494	,	3
58,16	,	27618	,	-26291	,	-23426	,	3.8417323	,	3
58,16	,	27650	,	-26301	,	-23435	,	2.0627027	,	3
58,16	,	27666	,	-26299	,	-23436	,	-0.6158824	,	3
58,16	,	27698	,	-26309	,	-23446	,	-3.8208447	,	3
58,16	,	27714	,	-26321	,	-23438	,	-7.1945834	,	3
58,16	,	27730	,	-26317	,	-23450	,	-10.500917	,	3
58,16	,	27762	,	-26327	,	-23441	,	-13.501849	,	2
58,16	,	27778	,	-26327	,	-23451	,	-15.945922	,	1
58,16	,	27794	,	-26337	,	-23446	,	-17.694048	,	0
58,16	,	27826	,	-26353	,	-23457	,	-18.816872	,	0
58,16	,	27842	,	-26347	,	-23464	,	-19.545488	,	0
58,16	,	27858	,	-26359	,	-23468	,	-20.02717	,	0
58,16	,	27890	,	-26364	,	-23459	,	-20.295378	,	0
58,16	,	27906	,	-26372	,	-23470	,	-20.417458	,	0
58,16	,	27938	,	-26379	,	-23470	,	-20.485043	,	0
58,16	,	27954	,	-26384	,	-23472	,	-20.557697	,	0
58,16	,	27970	,	-26389	,	-23473	,	-20.635845	,	0
58,16	,	28002	,	-26392	,	-23480	,	-20.658419	,	0
58,16	,	28018	,	-26368	,	-23471	,	-20.404778	,	0
58,16	,	28034	,	-26336	,	-23453	,	-19.24851	,	0
58,16	,	28066	,	-26245	,	-23411	,	-15.908457	,	1
58,16	,	28082	,	-26249	,	-23416	,	-8.832592	,	4
58,16	,	28114	,	-26228	,	-23400	,	2.4415207	,	11
58,16	,	28130	,	-26199	,	-23402	,	16.7386	,	22
58,16	,	28146	,	-26208	,	-23400	,	32.10793	,	36
58,16	,	28178	,	-26213	,	-23398	,	46.352734	,	51
58,16	,	28194	,	-26212	,	-23394	,	57.338097	,	65
58,16	,	28210	,	-26197	,	-23391	,	63.728054	,	75
58,16	,	28242	,	-26212	,	-23408	,	65.29013	,	81
58,16	,	28258	,	-26210	,	-23406	,	62.47319	,	81
58,16	,	28273	,	-26228	,	-23413	,	55.992393	,	78
58,16	,	28306	,	-26232	,	-23403	,	46.70224	,	71
58,16	,	28322	,	-26214	,	-23401	,	35.69126	,	60
58,16	,	28354	,	-26216	,	-23405	,	24.38283	,	46
58,16	,	28370	,	-26204	,	-23385	,	14.208435	,	31
58,16	,	28386	,	-26208	,	-23396	,	6.168915	,	17
58,16	,	28418	,	-26213	,	-23396	,	0.64385796	,	7
58,16	,	28434	,	-26205	,	-23396	,	-2.545927	,	1
58,16	,	28450	,	-26206	,	-23401	,	-3.8224595	,	0
58,16	,	28481	,	-26209	,	-23406	,	-3.670431	,	0
58,16	,	28497	,	-26215	,	-23401	,	-2.6705258	,	0
58,16	,	28530	,	-26224	,	-23409	,	-1.4669625	,	0
58,16	,	28546	,	-26233	,	-23416	,	-0.67296326	,	1
58,16	,	28562	,	-26253	,	-23416	,	-0.8091688	,	1
58,16	,	28594	,	-26247	,	-23422	,	-2.1798964	,	1
58,16	,	28609	,	-26257	,	-23420	,	-4.672509	,	1
58,17	,	28625	,	-26263	,	-23424	,	-7.8472767	,	1
58,17	,	28657	,	-26269	,	-23420	,	-11.244606	,	1
58,17	,	28673	,	-26273	,	-23416	,	-14.480166	,	1
58,17	,	28689	,	-26296	,	-23431	,	-17.323675	,	1
58,17	,	28721	,	-26295	,	-23440	,	-19.796284	,	1
58,17	,	28737	,	-26292	,	-23437	,	-21.904179	,	0
58,17	,	28770	,	-26304	,	-23443	,	-23.431778	,	0
58,17	,	28786	,	-26308	,	-23443	,	-24.214542	,	0
58,17	,	28802	,	-26320	,	-23456	,	-24.34169	,	0
58,17	,	28833	,	-26334	,	-23447	,	-24.092712	,	0
58,17	,	28849	,	-26340	,	-23464	,	-23.823336	,	0
58,17	,	28865	,	-26356	,	-23457	,	-23.819357	,	0
58,17	,	28897	,	-26357	,	-23459	,	-24.209742	,	0
58,17	,	28913	,	-26349	,	-23459	,	-24.849186	,	0
58,17	,	28945	,	-26302	,	-23431	,	-25.041367	,	0
58,17	,	28961	,	-26266	,	-23435	,	-23.445587	,	0
58,17	,	28977	,	-26232	,	-23391	,	-18.624134	,	1
58,17	,	29009	,	-26204	,	-23405	,	-9.851304	,	5
58,17	,	29025	,	-26192	,	-23399	,	2.5061436	,	13
58,17	,	29041	,	-26209	,	-23399	,	16.93612	,	25
58,17	,	29073	,	-26194	,	-23399	,	31.127403	,	39
58,17	,	29089	,	-26190	,	-23404	,	42.93349	,	53
58,17	,	29105	,	-26192	,	-23402	,	51.06655	,	64
58,17	,	29138	,	-26198	,	-23401	,	54.98532	,	72
58,17	,	29153	,	-26215	,	-23400	,	54.597927	,	75
58,17	,	29185	,	-26228	,	-23408	,	50.12224	,	74
58,17	,	29201	,	-26227	,	-23427	,	42.147476	,	70
58,17	,	29217	,	-26226	,	-23403	,	31.792141	,	62
58,17	,	29250	,	-26200	,	-23407	,	20.670013	,	50
58,17	,	29265	,	-26196	,	-23420	,	10.584038	,	36
58,17	,	29281	,	-26205	,	-23402	,	2.8893929	,	22
58,17	,	29313	,	-26219	,	-23408	,	-2.0842133	,	11
58,17	,	29329	,	-26213	,	-23411	,	-4.8505135	,	3
58,17	,	29361	,	-26218	,	-23409	,	-6.100625	,	0
58,17	,	29377	,	-26222	,	-23412	,	-6.3892107	,	0
58,17	,	29393	,	-26228	,	-23406	,	-6.195321	,	0
58,17	,	29425	,	-26229	,	-23407	,	-5.918705	,	0
58,17	,	29441	,	-26233	,	-23424	,	-5.800683	,	0
58,17	,	29457	,	-26236	,	-23405	,	-5.930272	,	0
58,17	,	29489	,	-26272	,	-23438	,	-6.462714	,	0
58,17	,	29505	,	-26267	,	-23436	,	-7.7681837	,	0
58,17	,	29521	,	-26274	,	-23437	,	-10.040823	,	0
58,17	,	29553	,	-26271	,	-23439	,	-12.949607	,	0
58,17	,	29569	,	-26278	,	-23440	,	-15.885048	,	0
58,17	,	29601	,	-26299	,	-23451	,	-18.412472	,	0
58,18	,	29617	,	-26306	,	-23448	,	-20.505604	,	0
58,18	,	29633	,	-26308	,	-23442	,	-22.317558	,	0
58,18	,	29665	,	-26302	,	-23449	,	-23.782755	,	0
58,18	,	29681	,	-26330	,	-23466	,	-24.70169	,	0
58,18	,	29697	,	-26314	,	-23436	,	-25.052856	,	0
58,18	,	29729	,	-26343	,	-23458	,	-24.948946	,	0
58,18	,	29745	,	-26323	,	-23452	,	-24.490383	,	0
58,18	,	29777	,	-26297	,	-23444	,	-23.493935	,	0
58,18	,	29793	,	-26249	,	-23419	,	-21.130983	,	0
58,18	,	29809	,	-26221	,	-23408	,	-16.194721	,	2
58,18	,	29841	,	-26188	,	-23402	,	-7.87869	,	6
58,18	,	29857	,	-26180	,	-23390	,	3.6614304	,	14
58,18	,	29873	,	-26184	,	-23389	,	17.170628	,	25
58,18	,	29905	,	-26173	,	-23396	,	30.649902	,	38
58,18	,	29921	,	-26175	,	-23416	,	42.135696	,	51
58,18	,	29953	,	-26173	,	-23382	,	50.258442	,	62
58,18	,	29969	,	-26182	,	-23386	,	54.306534	,	70
58,18	,	29985	,	-26185	,	-23398	,	54.13565	,	74
58,18	,	30017	,	-26198	,	-23392	,	50.07256	,	72
58,18	,	30033	,	-26203	,	-23410	,	42.806156	,	68
58,18	,	30049	,	-26195	,	-23397	,	33.36012	,	60
58,18	,	30081	,	-26188	,	-23393	,	23.094046	,	49
58,18	,	30097	,	-26177	,	-23393	,	13.48312	,	36
58,18	,	30113	,	-26168	,	-23387	,	5.7709303	,	23
58,18	,	30145	,	-26169	,	-23395	,	0.6861601	,	12
58,18	,	30161	,	-26171	,	-23407	,	-1.7338877	,	4
58,18	,	30193	,	-26182	,	-23378	,	-2.084265	,	0
58,18	,	30209	,	-26194	,	-23393	,	-1.3422753	,	0
58,18	,	30225	,	-26187	,	-23391	,	-0.47643006	,	0
58,18	,	30257	,	-26184	,	-23398	,	-0.0053042173	,	0
58,18	,	30273	,	-26192	,	-23409	,	0.02387923	,	0
58,18	,	30289	,	-26207	,	-23404	,	-0.38966525	,	0
58,18	,	30321	,	-26216	,	-23402	,	-1.4320112	,	0
58,18	,	30337	,	-26223	,	-23401	,	-3.290278	,	0
58,18	,	30369	,	-26233	,	-23407	,	-5.94935	,	0
58,18	,	30385	,	-26238	,	-23409	,	-9.199699	,	0
58,18	,	30401	,	-26251	,	-23430	,	-12.741942	,	0
58,18	,	30433	,	-26264	,	-23406	,	-16.325172	,	0
58,18	,	30449	,	-26265	,	-23420	,	-19.773743	,	0
58,18	,	30465	,	-26269	,	-23431	,	-22.841516	,	0
58,18	,	30497	,	-26278	,	-23427	,	-25.222471	,	0
58,18	,	30513	,	-26285	,	-23432	,	-26.749084	,	0
58,18	,	30529	,	-26290	,	-23438	,	-27.443447	,	0
58,18	,	30561	,	-26304	,	-23438	,	-27.458889	,	0
58,18	,	30577	,	-26314	,	-23437	,	-27.079567	,	0
58,19	,	30609	,	-26304	,	-23435	,	-26.552004	,	0
58,19	,	30625	,	-26267	,	-23427	,	-25.627407	,	0
58,19	,	30641	,	-26217	,	-23405	,	-23.260246	,	0
58,19	,	30673	,	-26184	,	-23383	,	-18.003704	,	2
58,19	,	30689	,	-26150	,	-23374	,	-8.90755	,	7
58,19	,	30705	,	-26151	,	-23375	,	3.798356	,	16
58,19	,	30737	,	-26141	,	-23364	,	18.615767	,	28
58,19	,	30753	,	-26125	,	-23372	,	33.408794	,	42
58,19	,	30785	,	-26124	,	-23371	,	46.270065	,	56
58,19	,	30801	,	-26126	,	-23367	,	55.83132	,	68
58,19	,	30817	,	-26130	,	-23367	,	61.220345	,	77
58,19	,	30849	,	-26146	,	-23369	,	62.05504	,	82
58,19	,	30865	,	-26165	,	-23378	,	58.358128	,	80
58,19	,	30881	,	-26156	,	-23388	,	50.601738	,	75
58,19	,	30913	,	-26157	,	-23383	,	39.93252	,	66
58,19	,	30929	,	-26128	,	-23370	,	28.123285	,	54
58,19	,	30961	,	-26126	,	-23370	,	17.154512	,	40
58,19	,	30977	,	-26136	,	-23371	,	8.504528	,	26
58,19	,	30993	,	-26137	,	-23376	,	2.6105871	,	14
58,19	,	31025	,	-26137	,	-23383	,	-0.87661266	,	5
58,19	,	31041	,	-26141	,	-23376	,	-2.5464308	,	0
58,19	,	31056	,	-26140	,	-23379	,	-2.9961038	,	0
58,19	,	31089	,	-26135	,	-23377	,	-2.7126994	,	0
58,19	,	31105	,	-26147	,	-23377	,	-2.0486813	,	0
58,19	,	31121	,	-26148	,	-23361	,	-1.3581278	,	0
58,19	,	31153	,	-26154	,	-23373	,	-0.9903765	,	0
58,19	,	31169	,	-26176	,	-23389	,	-1.2422277	,	0
58,19	,	31200	,	-26186	,	-23388	,	-2.4412506	,	0
58,19	,	31216	,	-26193	,	-23396	,	-4.805902	,	0
58,19	,	31232	,	-26201	,	-23399	,	-8.210683	,	0
58,19	,	31264	,	-26203	,	-23401	,	-12.22261	,	0
58,19	,	31281	,	-26204	,	-23400	,	-16.243355	,	0
58,19	,	31297	,	-26223	,	-23409	,	-19.73394	,	0
58,19	,	31329	,	-26233	,	-23411	,	-22.504753	,	0
58,19	,	31345	,	-26242	,	-23427	,	-24.677114	,	0
58,19	,	31376	,	-26246	,	-23408	,	-26.376331	,	0
58,19	,	31392	,	-26268	,	-23424	,	-27.667974	,	0
58,19	,	31408	,	-26270	,	-23413	,	-28.68301	,	0
58,19	,	31440	,	-26240	,	-23402	,	-29.344841	,	0
58,19	,	31457	,	-26199	,	-23390	,	-28.854496	,	0
58,19	,	31472	,	-26158	,	-23369	,	-25.799675	,	0
58,19	,	31504	,	-26135	,	-23371	,	-18.9853	,	3
58,19	,	31520	,	-26134	,	-23363	,	-8.320434	,	9
58,19	,	31536	,	-26126	,	-23373	,	4.929284	,	19
58,19	,	31569	,	-26114	,	-23364	,	18.777576	,	32
58,19	,	31585	,	-26116	,	-23376	,	31.34437	,	45
58,20	,	31616	,	-26111	,	-23348	,	41.206715	,	57
58,20	,	31632	,	-26125	,	-23359	,	47.43821	,	66
58,20	,	31648	,	-26141	,	-23371	,	49.5162	,	72
58,20	,	31680	,	-26145	,	-23375	,	47.307625	,	74
58,20	,	31696	,	-26151	,	-23374	,	41.26255	,	71
58,20	,	31712	,	-26136	,	-23372	,	32.49859	,	65
58,20	,	31744	,	-26134	,	-23365	,	22.605188	,	55
58,20	,	31761	,	-26123	,	-23371	,	13.216267	,	42
58,20	,	31792	,	-26135	,	-23365	,	5.525055	,	29
58,20	,	31809	,	-26128	,	-23360	,	0.033985138	,	17
58,20	,	31824	,	-26123	,	-23376	,	-3.2757583	,	8
58,20	,	31856	,	-26132	,	-23352	,	-4.6715913	,	2
58,20	,	31872	,	-26123	,	-23366	,	-4.5986896	,	0
58,20	,	31888	,	-26128	,	-23382	,	-3.5664663	,	0
58,20	,	31920	,	-26135	,	-23373	,	-2.0785735	,	1
58,20	,	31937	,	-26148	,	-23371	,	-0.71452284	,	2
58,20	,	31953	,	-26155	,	-23379	,	-0.061517715	,	3
58,20	,	31984	,	-26144	,	-23378	,	-0.41482902	,	3
58,20	,	32000	,	-26165	,	-23384	,	-1.6474681	,	3
58,20	,	32032	,	-26171	,	-23383	,	-3.5471709	,	3
58,20	,	32048	,	-26173	,	-23383	,	-6.0025406	,	3
58,20	,	32064	,	-26175	,	-23395	,	-8.778074	,	3
58,20	,	32096	,	-26190	,	-23374	,	-11.533924	,	3
58,20	,	32112	,	-26206	,	-23401	,	-14.129063	,	2
58,20	,	32128	,	-26217	,	-23399	,	-16.689892	,	1
58,20	,	32160	,	-26220	,	-23400	,	-19.341875	,	0
58,20	,	32176	,	-26223	,	-23399	,	-21.955168	,	0
58,20	,	32208	,	-26220	,	-23402	,	-24.152328	,	0
58,20	,	32224	,	-26202	,	-23390	,	-25.399193	,	0
58,20	,	32240	,	-26153	,	-23378	,	-24.890877	,	0
58,20	,	32272	,	-26122	,	-23359	,	-21.517551	,	0
58,20	,	32288	,	-26100	,	-23363	,	-14.440349	,	3
58,20	,	32304	,	-26102	,	-23380	,	-3.8778963	,	10
58,20	,	32336	,	-26097	,	-23346	,	8.747404	,	20
58,20	,	32352	,	-26091	,	-23356	,	21.436357	,	32
58,20	,	32384	,	-26090	,	-23350	,	32.390987	,	44
58,20	,	32400	,	-26088	,	-23357	,	40.383846	,	54
58,20	,	32416	,	-26097	,	-23354	,	44.77391	,	61
58,20	,	32448	,	-26122	,	-23364	,	45.303688	,	65
58,20	,	32464	,	-26118	,	-23362	,	41.98488	,	65
58,20	,	32480	,	-26117	,	-23360	,	35.380096	,	62
58,20	,	32512	,	-26106	,	-23349	,	26.748028	,	55
58,20	,	32528	,	-26103	,	-23353	,	17.672152	,	45
58,20	,	32544	,	-26098	,	-23360	,	9.55267	,	33
58,20	,	32576	,	-26100	,	-23347	,	3.2770958	,	21
58,20	,	32592	,	-26105	,	-23351	,	-0.88534737	,	11
58,21	,	32624	,	-26097	,	-23337	,	-3.1404953	,	4
58,21	,	32640	,	-26110	,	-23344	,	-3.91964	,	0
58,21	,	32656	,	-26103	,	-23347	,	-3.746824	,	0
58,21	,	32688	,	-26103	,	-23350	,	-3.088266	,	0
58,21	,	32704	,	-26120	,	-23354	,	-2.304453	,	0
58,21	,	32720	,	-26115	,	-23356	,	-1.7684569	,	0
58,21	,	32752	,	-26125	,	-23359	,	-1.7596986	,	0
58,21	,	32768	,	-26128	,	-23353	,	-2.3577557	,	0
58,21	,	32800	,	-26139	,	-23361	,	-3.5535195	,	0
58,21	,	32816	,	-26147	,	-23363	,	-5.3233786	,	0
58,21	,	32832	,	-26164	,	-23383	,	-7.6574683	,	0
58,21	,	32864	,	-26167	,	-23386	,	-10.532398	,	0
58,21	,	32880	,	-26173	,	-23378	,	-13.778209	,	0
58,21	,	32896	,	-26184	,	-23381	,	-17.073135	,	0
58,21	,	32928	,	-26187	,	-23395	,	-20.103434	,	0
58,21	,	32944	,	-26201	,	-23394	,	-22.654915	,	0
58,21	,	32960	,	-26214	,	-23390	,	-24.678802	,	0
58,21	,	32992	,	-26174	,	-23374	,	-26.068518	,	0
58,21	,	33008	,	-26130	,	-23369	,	-26.038519	,	0
58,21	,	33040	,	-26101	,	-23353	,	-23.181107	,	0
58,21	,	33056	,	-26075	,	-23352	,	-16.46184	,	2
58,21	,	33072	,	-26060	,	-23343	,	-5.93653	,	8
58,21	,	33104	,	-26066	,	-23337	,	7.201374	,	18
58,21	,	33120	,	-26064	,	-23345	,	20.931854	,	31
58,21	,	33136	,	-26050	,	-23329	,	33.15599	,	44
58,21	,	33168	,	-26059	,	-23337	,	42.405483	,	56
58,21	,	33184	,	-26044	,	-23334	,	47.962776	,	65
58,21	,	33216	,	-26049	,	-23329	,	49.769398	,	70
58,21	,	33232	,	-26062	,	-23337	,	48.20378	,	71
58,21	,	33248	,	-26060	,	-23344	,	43.772324	,	69
58,21	,	33280	,	-26056	,	-23333	,	37.167885	,	63
58,21	,	33296	,	-26060	,	-23343	,	29.347277	,	53
58,21	,	33312	,	-26041	,	-23336	,	21.36141	,	40
58,21	,	33344	,	-26047	,	-23335	,	14.197474	,	27
58,21	,	33360	,	-26054	,	-23338	,	8.484385	,	15
58,21	,	33376	,	-26059	,	-23335	,	4.2678213	,	6
58,21	,	33408	,	-26068	,	-23345	,	1.2017288	,	1
58,21	,	33424	,	-26061	,	-23346	,	-1.109654	,	0
58,21	,	33456	,	-26059	,	-23339	,	-2.852228	,	0
58,21	,	33472	,	-26062	,	-23343	,	-4.006632	,	0
58,21	,	33488	,	-26080	,	-23352	,	-4.6595197	,	0
58,21	,	33519	,	-26093	,	-23337	,	-5.2270346	,	0
58,21	,	33536	,	-26094	,	-23365	,	-6.226575	,	0
58,21	,	33552	,	-26112	,	-23357	,	-7.914305	,	0
58,21	,	33584	,	-26124	,	-23354	,	-10.327241	,	0
58,21	,	33600	,	-26120	,	-23366	,	-13.369243	,	0
58,22	,	33631	,	-26133	,	-23368	,	-16.700237	,	0
58,22	,	33648	,	-26131	,	-23368	,	-19.843813	,	0
58,22	,	33664	,	-26143	,	-23378	,	-22.400383	,	0
58,22	,	33736	,	-26170	,	-23407	,	-25.340134	,	0
58,22	,	33760	,	-26177	,	-23378	,	-25.230717	,	0
58,22	,	33776	,	-26160	,	-23393	,	-24.965252	,	0
58,22	,	33807	,	-26134	,	-23372	,	-24.207567	,	0
58,22	,	33824	,	-26104	,	-23363	,	-22.063622	,	0
58,22	,	33840	,	-26090	,	-23356	,	-17.625309	,	2
58,22	,	33871	,	-26081	,	-23345	,	-10.619767	,	6
58,22	,	33887	,	-26064	,	-23334	,	-1.5851393	,	13
58,22	,	33903	,	-26062	,	-23346	,	8.460006	,	22
58,22	,	33936	,	-26054	,	-23340	,	18.34116	,	32
58,22	,	33951	,	-26038	,	-23343	,	27.014969	,	41
58,22	,	33968	,	-26047	,	-23360	,	33.779587	,	49
58,22	,	34000	,	-26044	,	-23336	,	38.15962	,	55
58,22	,	34015	,	-26075	,	-23349	,	39.727596	,	59
58,22	,	34047	,	-26076	,	-23355	,	38.12459	,	58
58,22	,	34063	,	-26072	,	-23358	,	33.41944	,	54
58,22	,	34080	,	-26085	,	-23354	,	26.361582	,	47
58,22	,	34112	,	-26081	,	-23354	,	18.032732	,	38
58,22	,	34128	,	-26073	,	-23348	,	9.547587	,	28
58,22	,	34144	,	-26071	,	-23361	,	2.0024643	,	19
58,22	,	34176	,	-26086	,	-23362	,	-3.8434086	,	11
58,22	,	34191	,	-26086	,	-23357	,	-7.8515463	,	5
58,22	,	34223	,	-26079	,	-23377	,	-10.250048	,	1
58,22	,	34239	,	-26088	,	-23355	,	-11.283443	,	0
58,22	,	34255	,	-26099	,	-23365	,	-11.292171	,	0
58,22	,	34287	,	-26110	,	-23378	,	-10.8391695	,	0
58,22	,	34303	,	-26119	,	-23378	,	-10.536682	,	0
58,22	,	34320	,	-26125	,	-23380	,	-10.803793	,	0
58,22	,	34352	,	-26138	,	-23392	,	-11.79587	,	0
58,22	,	34367	,	-26138	,	-23383	,	-13.455231	,	0
58,22	,	34383	,	-26143	,	-23404	,	-15.519064	,	0
58,22	,	34415	,	-26162	,	-23393	,	-17.661182	,	0
58,22	,	34431	,	-26165	,	-23397	,	-19.728128	,	0
58,22	,	34463	,	-26167	,	-23417	,	-21.640038	,	0
58,22	,	34479	,	-26174	,	-23395	,	-23.210392	,	0
58,22	,	34495	,	-26195	,	-23403	,	-24.33012	,	0
58,22	,	34528	,	-26196	,	-23415	,	-25.134098	,	0
58,22	,	34543	,	-26216	,	-23414	,	-25.845734	,	0
58,22	,	34559	,	-26229	,	-23416	,	-26.674149	,	0
58,22	,	34591	,	-26228	,	-23425	,	-27.745052	,	0
58,23	,	34607	,	-26216	,	-23417	,	-28.822922	,	0
58,23	,	34639	,	-26201	,	-23402	,	-29.21135	,	0
58,23	,	34655	,	-26173	,	-23390	,	-27.996479	,	0
58,23	,	34671	,	-26134	,	-23391	,	-24.268738	,	1
58,23	,	34703	,	-26127	,	-23395	,	-17.419548	,	4
58,23	,	34719	,	-26129	,	-23388	,	-7.719466	,	10
58,23	,	34735	,	-26122	,	-23396	,	3.522973	,	19
58,23	,	34767	,	-26113	,	-23393	,	14.631938	,	30
58,23	,	34783	,	-26123	,	-23391	,	24.194546	,	41
58,23	,	34815	,	-26135	,	-23386	,	31.101519	,	50
58,23	,	34831	,	-26140	,	-23386	,	34.54886	,	56
58,23	,	34847	,	-26144	,	-23404	,	34.294285	,	59
58,23	,	34879	,	-26162	,	-23403	,	30.685596	,	58
58,23	,	34895	,	-26151	,	-23393	,	24.456102	,	55
58,23	,	34911	,	-26135	,	-23390	,	16.773108	,	49
58,23	,	34943	,	-26146	,	-23392	,	9.103239	,	40
58,23	,	34959	,	-26160	,	-23390	,	2.498806	,	29
58,23	,	34975	,	-26153	,	-23392	,	-2.7353196	,	18
58,23	,	35007	,	-26147	,	-23396	,	-6.561797	,	9
58,23	,	35023	,	-26148	,	-23401	,	-8.8764925	,	3
58,23	,	35055	,	-26166	,	-23401	,	-9.772406	,	0
58,23	,	35071	,	-26166	,	-23410	,	-9.743107	,	0
58,23	,	35087	,	-26170	,	-23422	,	-9.383074	,	0
58,23	,	35119	,	-26188	,	-23421	,	-9.12608	,	0
58,23	,	35135	,	-26176	,	-23417	,	-9.246656	,	0
58,23	,	35151	,	-26204	,	-23426	,	-9.839749	,	0
58,23	,	35183	,	-26195	,	-23412	,	-10.9039345	,	0
58,23	,	35199	,	-26205	,	-23439	,	-12.346117	,	0
58,23	,	35231	,	-26218	,	-23429	,	-13.972281	,	0
58,23	,	35247	,	-26239	,	-23425	,	-15.753724	,	0
58,23	,	35263	,	-26234	,	-23423	,	-17.814526	,	0
58,23	,	35295	,	-26245	,	-23434	,	-20.079739	,	0
58,23	,	35311	,	-26263	,	-23432	,	-22.315857	,	0
58,23	,	35327	,	-26261	,	-23443	,	-24.389997	,	0
58,23	,	35359	,	-26270	,	-23442	,	-26.176205	,	0
58,23	,	35375	,	-26266	,	-23449	,	-27.432598	,	0
58,23	,	35391	,	-26269	,	-23458	,	-27.883434	,	0
58,23	,	35423	,	-26277	,	-23443	,	-27.370514	,	0
58,23	,	35439	,	-26270	,	-23444	,	-25.940613	,	0
58,23	,	35471	,	-26210	,	-23414	,	-23.428009	,	1
58,23	,	35487	,	-26195	,	-23413	,	-19.044884	,	3
58,23	,	35503	,	-26195	,	-23416	,	-12.115725	,	7
58,23	,	35535	,	-26187	,	-23408	,	-3.034896	,	13
58,23	,	35551	,	-26184	,	-23416	,	6.950919	,	22
58,23	,	35567	,	-26189	,	-23409	,	16.418861	,	31
58,23	,	35599	,	-26201	,	-23412	,	24.054138	,	40
58,24	,	35615	,	-26192	,	-23407	,	28.876043	,	47
58,24	,	35647	,	-26190	,	-23425	,	30.586552	,	51
58,24	,	35663	,	-26204	,	-23400	,	29.521667	,	51
58,24	,	35679	,	-26226	,	-23429	,	26.112041	,	49
58,24	,	35711	,	-26212	,	-23416	,	20.72133	,	45
58,24	,	35727	,	-26213	,	-23419	,	14.05257	,	39
58,24	,	35743	,	-26213	,	-23422	,	7.161215	,	30
58,24	,	35775	,	-26211	,	-23426	,	0.9969139	,	21
58,24	,	35791	,	-26217	,	-23419	,	-3.8496828	,	12
58,24	,	35807	,	-26218	,	-23428	,	-7.183754	,	5
58,24	,	35839	,	-26222	,	-23425	,	-9.126626	,	1
58,24	,	35855	,	-26226	,	-23435	,	-9.964683	,	0
58,24	,	35887	,	-26234	,	-23441	,	-10.075677	,	0
58,24	,	35903	,	-26231	,	-23418	,	-9.83941	,	0
58,24	,	35919	,	-26251	,	-23432	,	-9.572696	,	0
58,24	,	35951	,	-26253	,	-23432	,	-9.592022	,	0
58,24	,	35967	,	-26269	,	-23448	,	-10.179321	,	0
58,24	,	35983	,	-26274	,	-23445	,	-11.466354	,	0
58,24	,	36015	,	-26287	,	-23452	,	-13.425627	,	0
58,24	,	36031	,	-26292	,	-23448	,	-15.901273	,	0
58,24	,	36063	,	-26295	,	-23456	,	-18.604277	,	0
58,24	,	36079	,	-26296	,	-23461	,	-21.117409	,	0
58,24	,	36095	,	-26316	,	-23473	,	-23.088995	,	0
58,24	,	36127	,	-26317	,	-23482	,	-24.452812	,	0
58,24	,	36143	,	-26319	,	-23452	,	-25.278145	,	0
58,24	,	36159	,	-26336	,	-23468	,	-25.602009	,	0
58,24	,	36191	,	-26342	,	-23474	,	-25.562298	,	0
58,24	,	36207	,	-26343	,	-23479	,	-25.35221	,	0
58,24	,	36223	,	-26355	,	-23479	,	-25.039501	,	0
58,24	,	36255	,	-26363	,	-23484	,	-24.66238	,	0
58,24	,	36271	,	-26360	,	-23487	,	-24.278385	,	0
58,24	,	36302	,	-26357	,	-23483	,	-23.777683	,	0
58,24	,	36318	,	-26350	,	-23477	,	-22.843601	,	0
58,24	,	36335	,	-26307	,	-23462	,	-20.95343	,	0
58,24	,	36367	,	-26288	,	-23470	,	-17.3148	,	1
58,24	,	36383	,	-26277	,	-23435	,	-11.304382	,	4
58,24	,	36399	,	-26263	,	-23443	,	-3.060567	,	10
58,24	,	36431	,	-26258	,	-23447	,	6.5740137	,	18
58,24	,	36447	,	-26257	,	-23448	,	16.406425	,	27
58,24	,	36478	,	-26243	,	-23436	,	25.225836	,	36
58,24	,	36494	,	-26242	,	-23445	,	32.159515	,	44
58,24	,	36510	,	-26238	,	-23443	,	36.76499	,	50
58,24	,	36543	,	-26250	,	-23448	,	38.84559	,	54
58,24	,	36559	,	-26272	,	-23441	,	38.226532	,	55
58,24	,	36575	,	-26256	,	-23438	,	34.845573	,	52
58,24	,	36606	,	-26260	,	-23461	,	29.18463	,	46
58,25	,	36622	,	-26256	,	-23427	,	22.266354	,	38
58,25	,	36639	,	-26258	,	-23429	,	15.164618	,	29
58,25	,	36671	,	-26254	,	-23434	,	8.713842	,	20
58,25	,	36687	,	-26256	,	-23427	,	3.4517155	,	12
58,25	,	36718	,	-26252	,	-23432	,	-0.37459755	,	6
58,25	,	36735	,	-26260	,	-23440	,	-2.7723827	,	2
58,25	,	36750	,	-26249	,	-23436	,	-3.9301567	,	0
58,25	,	36782	,	-26275	,	-23445	,	-4.183157	,	0
58,25	,	36798	,	-26272	,	-23452	,	-4.065801	,	0
58,25	,	36815	,	-26267	,	-23438	,	-4.065754	,	0
58,25	,	36847	,	-26274	,	-23472	,	-4.3055525	,	0
58,25	,	36863	,	-26294	,	-23440	,	-4.800048	,	0
58,25	,	36894	,	-26292	,	-23455	,	-5.7340074	,	0
58,25	,	36910	,	-26289	,	-23454	,	-7.1697755	,	0
58,25	,	36926	,	-26292	,	-23460	,	-8.8157625	,	0
58,25	,	36958	,	-26299	,	-23454	,	-10.296588	,	0
58,25	,	36974	,	-26307	,	-23455	,	-11.462253	,	0
58,25	,	36990	,	-26303	,	-23457	,	-12.340509	,	0
58,25	,	37023	,	-26305	,	-23469	,	-12.910473	,	0
58,25	,	37039	,	-26312	,	-23459	,	-13.096457	,	0
58,25	,	37070	,	-26315	,	-23462	,	-12.934341	,	0
58,25	,	37086	,	-26322	,	-23471	,	-12.581417	,	0
58,25	,	37102	,	-26326	,	-23458	,	-12.221238	,	0
58,25	,	37134	,	-26328	,	-23469	,	-11.983257	,	0
58,25	,	37150	,	-26340	,	-23465	,	-11.929823	,	0
58,25	,	37166	,	-26346	,	-23475	,	-12.139906	,	0
58,25	,	37199	,	-26343	,	-23478	,	-12.65662	,	0
58,25	,	37215	,	-26366	,	-23475	,	-13.426165	,	0
58,25	,	37231	,	-26353	,	-23475	,	-14.385941	,	0
58,25	,	37262	,	-26332	,	-23467	,	-15.2441845	,	0
58,25	,	37278	,	-26285	,	-23446	,	-15.105545	,	0
58,25	,	37310	,	-26263	,	-23434	,	-12.676537	,	0
58,25	,	37326	,	-26253	,	-23447	,	-7.1076455	,	2
58,25	,	37342	,	-26234	,	-23413	,	1.385129	,	7
58,25	,	37374	,	-26228	,	-23420	,	11.736425	,	15
58,25	,	37390	,	-26213	,	-23417	,	22.566278	,	25
58,25	,	37406	,	-26225	,	-23415	,	32.47728	,	35
58,25	,	37438	,	-26220	,	-23409	,	40.18888	,	44
58,25	,	37454	,	-26221	,	-23421	,	44.789783	,	51
58,25	,	37486	,	-26216	,	-23410	,	46.004543	,	55
58,25	,	37502	,	-26230	,	-23408	,	44.09599	,	56
58,25	,	37518	,	-26248	,	-23408	,	39.483364	,	54
58,25	,	37550	,	-26232	,	-23415	,	32.65925	,	49
58,25	,	37566	,	-26222	,	-23421	,	24.545248	,	41
58,25	,	37582	,	-26213	,	-23393	,	16.494715	,	31
58,26	,	37614	,	-26212	,	-23408	,	9.73201	,	21
58,26	,	37630	,	-26195	,	-23396	,	4.9896173	,	12
58,26	,	37646	,	-26203	,	-23393	,	2.5122113	,	5
58,26	,	37678	,	-26208	,	-23393	,	2.0141635	,	1
58,26	,	37694	,	-26208	,	-23397	,	2.7526593	,	0
58,26	,	37726	,	-26209	,	-23395	,	3.9234502	,	0
58,26	,	37742	,	-26218	,	-23401	,	4.922117	,	1
58,26	,	37758	,	-26227	,	-23395	,	5.2915783	,	1
58,26	,	37790	,	-26214	,	-23398	,	4.7794256	,	1
58,26	,	37806	,	-26232	,	-23410	,	3.463984	,	1
58,26	,	37822	,	-26243	,	-23406	,	1.4999735	,	1
58,26	,	37854	,	-26249	,	-23397	,	-1.1054456	,	1
58,26	,	37870	,	-26247	,	-23404	,	-4.253833	,	1
58,26	,	37902	,	-26254	,	-23405	,	-7.5961065	,	1
58,26	,	37918	,	-26242	,	-23409	,	-10.653747	,	1
58,26	,	37934	,	-26268	,	-23409	,	-13.033463	,	0
58,26	,	37966	,	-26257	,	-23415	,	-14.63471	,	0
58,26	,	37982	,	-26252	,	-23412	,	-15.470036	,	0
58,26	,	37998	,	-26278	,	-23414	,	-15.534092	,	0
58,26	,	38030	,	-26286	,	-23414	,	-15.146225	,	0
58,26	,	38046	,	-26282	,	-23408	,	-14.837561	,	0
58,26	,	38062	,	-26298	,	-23416	,	-14.874579	,	0
58,26	,	38094	,	-26320	,	-23421	,	-15.390375	,	0
58,26	,	38110	,	-26316	,	-23431	,	-16.578804	,	0
58,26	,	38142	,	-26313	,	-23423	,	-18.34048	,	0
58,26	,	38158	,	-26300	,	-23416	,	-20.062916	,	0
58,26	,	38174	,	-26261	,	-23404	,	-20.755604	,	0
58,26	,	38206	,	-26233	,	-23386	,	-19.216923	,	0
58,26	,	38222	,	-26219	,	-23382	,	-14.524416	,	1
58,26	,	38238	,	-26201	,	-23374	,	-6.6291323	,	5
58,26	,	38270	,	-26199	,	-23374	,	3.6003895	,	12
58,26	,	38286	,	-26200	,	-23363	,	14.68536	,	22
58,26	,	38318	,	-26189	,	-23388	,	24.981478	,	33
58,26	,	38334	,	-26189	,	-23382	,	33.211414	,	43
58,26	,	38350	,	-26191	,	-23368	,	38.64518	,	51
58,26	,	38382	,	-26190	,	-23376	,	40.985714	,	56
58,26	,	38398	,	-26218	,	-23388	,	40.21786	,	58
58,26	,	38414	,	-26209	,	-23380	,	36.495037	,	57
58,26	,	38446	,	-26209	,	-23380	,	30.348541	,	53
58,26	,	38462	,	-26204	,	-23379	,	22.82059	,	46
58,26	,	38478	,	-26200	,	-23374	,	15.120754	,	36
58,26	,	38510	,	-26197	,	-23391	,	8.267848	,	25
58,26	,	38526	,	-26190	,	-23367	,	2.951973	,	15
58,26	,	38558	,	-26190	,	-23374	,	-0.4928651	,	7
58,26	,	38574	,	-26197	,	-23376	,	-2.126308	,	2
58,26	,	38590	,	-26210	,	-23383	,	-2.445828	,	0
58,27	,	38622	,	-26214	,	-23385	,	-2.2237186	,	0
58,27	,	38638	,	-26210	,	-23385	,	-2.1040869	,	0
58,27	,	38654	,	-26208	,	-23386	,	-2.2986476	,	0
58,27	,	38686	,	-26216	,	-23385	,	-2.7093363	,	0
58,27	,	38702	,	-26226	,	-23378	,	-3.2880769	,	0
58,27	,	38734	,	-26230	,	-23389	,	-4.1505795	,	0
58,27	,	38750	,	-26245	,	-23406	,	-5.439322	,	0
58,27	,	38766	,	-26258	,	-23380	,	-7.286346	,	0
58,27	,	38798	,	-26262	,	-23398	,	-9.777897	,	0
58,27	,	38814	,	-26276	,	-23399	,	-12.825142	,	0
58,27	,	38830	,	-26274	,	-23411	,	-16.156048	,	0
58,27	,	38862	,	-26284	,	-23410	,	-19.384434	,	0
58,27	,	38878	,	-26287	,	-23412	,	-22.125244	,	0
58,27	,	38894	,	-26284	,	-23412	,	-24.081068	,	0
58,27	,	38926	,	-26302	,	-23411	,	-25.08026	,	0
58,27	,	38942	,	-26308	,	-23423	,	-25.224358	,	0
58,27	,	38974	,	-26310	,	-23415	,	-24.823421	,	0
58,27	,	38990	,	-26318	,	-23435	,	-24.117603	,	0
58,27	,	39006	,	-26325	,	-23415	,	-23.253428	,	0
58,27	,	39037	,	-26320	,	-23424	,	-22.32219	,	0
58,27	,	39054	,	-26299	,	-23414	,	-21.160812	,	0
58,27	,	39070	,	-26256	,	-23399	,	-19.10513	,	1
58,27	,	39102	,	-26231	,	-23387	,	-15.100779	,	3
58,27	,	39118	,	-26202	,	-23376	,	-8.307722	,	7
58,27	,	39150	,	-26194	,	-23369	,	1.3127689	,	13
58,27	,	39166	,	-26179	,	-23375	,	12.894449	,	22
58,27	,	39182	,	-26174	,	-23374	,	25.004545	,	33
58,27	,	39214	,	-26167	,	-23369	,	36.115685	,	45
58,27	,	39229	,	-26158	,	-23376	,	44.97949	,	56
58,27	,	39246	,	-26165	,	-23348	,	50.80679	,	64
58,27	,	39278	,	-26166	,	-23364	,	53.20535	,	68
58,27	,	39294	,	-26165	,	-23365	,	52.155807	,	68
58,27	,	39325	,	-26186	,	-23372	,	47.99912	,	64
58,27	,	39341	,	-26183	,	-23368	,	41.26012	,	58
58,27	,	39357	,	-26186	,	-23354	,	32.66281	,	49
58,27	,	39389	,	-26168	,	-23369	,	23.279203	,	38
58,27	,	39405	,	-26156	,	-23356	,	14.453283	,	26
58,27	,	39422	,	-26156	,	-23355	,	7.416135	,	15
58,27	,	39454	,	-26159	,	-23361	,	2.7803497	,	7
58,27	,	39470	,	-26150	,	-23368	,	0.45753765	,	2
58,27	,	39486	,	-26153	,	-23335	,	0.0010750294	,	0
58,27	,	39517	,	-26164	,	-23356	,	0.7773376	,	0
58,27	,	39533	,	-26176	,	-23362	,	1.947064	,	0
58,27	,	39565	,	-26175	,	-23360	,	2.6824765	,	1
58,27	,	39581	,	-26173	,	-23363	,	2.555444	,	1
58,27	,	39597	,	-26198	,	-23370	,	1.5246127	,	1
58,28	,	39630	,	-26200	,	-23383	,	-0.42714727	,	1
58,28	,	39646	,	-26197	,	-23379	,	-3.2388391	,	1
58,28	,	39661	,	-26205	,	-23381	,	-6.520894	,	1
58,28	,	39693	,	-26215	,	-23379	,	-9.790799	,	1
58,28	,	39709	,	-26217	,	-23390	,	-12.762026	,	1
58,28	,	39741	,	-26220	,	-23376	,	-15.265208	,	1
58,28	,	39757	,	-26241	,	-23389	,	-17.225252	,	0
58,28	,	39773	,	-26248	,	-23385	,	-18.801785	,	0
58,28	,	39805	,	-26251	,	-23394	,	-20.240559	,	0
58,28	,	39821	,	-26261	,	-23396	,	-21.603611	,	0
58,28	,	39837	,	-26261	,	-23400	,	-22.790941	,	0
58,28	,	39869	,	-26268	,	-23403	,	-23.646763	,	0
58,28	,	39885	,	-26277	,	-23405	,	-24.054035	,	0
58,28	,	39901	,	-26284	,	-23412	,	-24.046907	,	0
58,28	,	39933	,	-26287	,	-23420	,	-23.759117	,	0
58,28	,	39949	,	-26302	,	-23420	,	-23.329504	,	0
58,28	,	39981	,	-26302	,	-23413	,	-22.898066	,	0
58,28	,	39997	,	-26224	,	-23377	,	-22.12949	,	0
58,28	,	40013	,	-26189	,	-23370	,	-19.61231	,	0
58,28	,	40045	,	-26174	,	-23367	,	-13.694886	,	2
58,28	,	40061	,	-26163	,	-23368	,	-4.0051374	,	7
58,28	,	40077	,	-26156	,	-23362	,	8.330693	,	16
58,28	,	40109	,	-26160	,	-23355	,	21.4049	,	28
58,28	,	40125	,	-26149	,	-23350	,	33.226826	,	41
58,28	,	40157	,	-26137	,	-23347	,	42.35438	,	52
58,28	,	40173	,	-26145	,	-23350	,	48.130505	,	61
58,28	,	40189	,	-26142	,	-23354	,	50.403133	,	66
58,28	,	40221	,	-26157	,	-23352	,	49.283226	,	68
58,28	,	40237	,	-26158	,	-23359	,	45.104237	,	66
58,28	,	40253	,	-26167	,	-23352	,	38.42697	,	61
58,28	,	40285	,	-26153	,	-23352	,	30.098783	,	52
58,28	,	40301	,	-26154	,	-23346	,	21.244751	,	40
58,28	,	40317	,	-26148	,	-23337	,	13.013559	,	27
58,28	,	40349	,	-26133	,	-23353	,	6.3257885	,	16
58,28	,	40365	,	-26145	,	-23352	,	1.7451582	,	7
58,28	,	40397	,	-26150	,	-23342	,	-0.7509842	,	2
58,28	,	40413	,	-26161	,	-23341	,	-1.7733185	,	0
58,28	,	40429	,	-26157	,	-23352	,	-2.0970573	,	0
58,28	,	40461	,	-26155	,	-23356	,	-2.2322176	,	0
58,28	,	40477	,	-26168	,	-23351	,	-2.3852866	,	0
58,28	,	40493	,	-26176	,	-23356	,	-2.7486181	,	0
58,28	,	40525	,	-26187	,	-23366	,	-3.598995	,	0
58,28	,	40541	,	-26185	,	-23350	,	-5.0938544	,	0
58,28	,	40573	,	-26204	,	-23367	,	-7.1774845	,	0
58,28	,	40589	,	-26203	,	-23373	,	-9.70512	,	0
58,28	,	40605	,	-26213	,	-23372	,	-12.480409	,	0
58,29	,	40637	,	-26215	,	-23379	,	-15.223511	,	0
58,29	,	40653	,	-26221	,	-23376	,	-17.642641	,	0
58,29	,	40669	,	-26241	,	-23372	,	-19.587305	,	0
58,29	,	40701	,	-26247	,	-23384	,	-21.16993	,	0
58,29	,	40717	,	-26264	,	-23381	,	-22.643965	,	0
58,29	,	40749	,	-26252	,	-23386	,	-24.110453	,	0
58,29	,	40765	,	-26274	,	-23393	,	-25.410248	,	0
58,29	,	40781	,	-26265	,	-23395	,	-26.315662	,	0
58,29	,	40813	,	-26280	,	-23401	,	-26.684834	,	0
58,29	,	40829	,	-26297	,	-23404	,	-26.56343	,	0
58,29	,	40845	,	-26280	,	-23402	,	-26.145359	,	0
58,29	,	40877	,	-26255	,	-23389	,	-25.26137	,	0
58,29	,	40893	,	-26214	,	-23380	,	-23.057556	,	0
58,29	,	40909	,	-26178	,	-23355	,	-18.35771	,	2
58,29	,	40941	,	-26172	,	-23355	,	-10.41919	,	6
58,29	,	40957	,	-26171	,	-23352	,	0.34980774	,	13
58,29	,	40989	,	-26167	,	-23364	,	12.419752	,	23
58,29	,	41005	,	-26183	,	-23357	,	23.822172	,	35
58,29	,	41021	,	-26159	,	-23351	,	32.86003	,	46
58,29	,	41053	,	-26173	,	-23354	,	38.615265	,	55
58,29	,	41069	,	-26178	,	-23361	,	40.862877	,	60
58,29	,	41085	,	-26206	,	-23367	,	39.600655	,	62
58,29	,	41117	,	-26204	,	-23373	,	34.964203	,	60
58,29	,	41133	,	-26200	,	-23372	,	27.572548	,	56
58,29	,	41165	,	-26202	,	-23352	,	18.64935	,	49
58,29	,	41181	,	-26184	,	-23360	,	9.669716	,	39
58,29	,	41197	,	-26183	,	-23358	,	1.990632	,	27
58,29	,	41229	,	-26189	,	-23369	,	-3.5045767	,	16
58,29	,	41245	,	-26184	,	-23368	,	-6.643366	,	7
58,29	,	41261	,	-26195	,	-23362	,	-7.7794847	,	2
58,29	,	41293	,	-26193	,	-23376	,	-7.515604	,	0
58,29	,	41309	,	-26191	,	-23367	,	-6.4627614	,	0
58,29	,	41325	,	-26214	,	-23368	,	-5.1571846	,	1
58,29	,	41357	,	-26209	,	-23372	,	-4.1638436	,	2
58,29	,	41373	,	-26221	,	-23378	,	-3.914897	,	2
58,29	,	41405	,	-26234	,	-23364	,	-4.574844	,	2
58,29	,	41421	,	-26239	,	-23386	,	-6.1743584	,	2
58,29	,	41437	,	-26247	,	-23386	,	-8.598114	,	2
58,29	,	41469	,	-26269	,	-23382	,	-11.628472	,	2
58,29	,	41485	,	-26269	,	-23386	,	-15.095848	,	2
58,29	,	41501	,	-26276	,	-23384	,	-18.753216	,	2
58,29	,	41533	,	-26279	,	-23392	,	-22.173775	,	1
58,29	,	41549	,	-26286	,	-23396	,	-24.926945	,	0
58,29	,	41580	,	-26295	,	-23386	,	-26.764828	,	0
58,29	,	41597	,	-26290	,	-23400	,	-27.627731	,	0
58,30	,	41613	,	-26307	,	-23418	,	-27.564302	,	0
58,30	,	41645	,	-26312	,	-23397	,	-26.780956	,	0
58,30	,	41661	,	-26259	,	-23384	,	-25.336056	,	0
58,30	,	41677	,	-26234	,	-23380	,	-22.544449	,	1
58,30	,	41709	,	-26202	,	-23352	,	-17.308437	,	3
58,30	,	41725	,	-26197	,	-23357	,	-9.113219	,	8
58,30	,	41740	,	-26187	,	-23356	,	1.4998207	,	16
58,30	,	41773	,	-26181	,	-23355	,	13.181065	,	26
58,30	,	41789	,	-26187	,	-23351	,	24.308306	,	37
58,30	,	41821	,	-26177	,	-23349	,	33.42696	,	48
58,30	,	41837	,	-26162	,	-23346	,	39.67108	,	57
58,30	,	41853	,	-26169	,	-23372	,	42.90996	,	63
58,30	,	41884	,	-26195	,	-23342	,	43.24256	,	65
58,30	,	41900	,	-26212	,	-23364	,	40.534992	,	63
58,30	,	41917	,	-26202	,	-23373	,	34.77948	,	58
58,30	,	41949	,	-26196	,	-23356	,	26.72533	,	50
58,30	,	41965	,	-26183	,	-23360	,	17.829824	,	40
58,30	,	41996	,	-26186	,	-23358	,	9.618149	,	29
58,30	,	42013	,	-26180	,	-23350	,	3.1320648	,	18
58,30	,	42028	,	-26178	,	-23353	,	-1.180851	,	9
58,30	,	42060	,	-26198	,	-23351	,	-3.4207125	,	3
58,30	,	42076	,	-26198	,	-23368	,	-4.2085524	,	0
58,30	,	42093	,	-26188	,	-23382	,	-4.271517	,	0
58,30	,	42124	,	-26201	,	-23344	,	-4.017558	,	0
58,30	,	42141	,	-26210	,	-23374	,	-3.7283812	,	0
58,30	,	42157	,	-26209	,	-23367	,	-3.7385426	,	0
58,30	,	42189	,	-26218	,	-23371	,	-4.241588	,	0
58,30	,	42205	,	-26233	,	-23380	,	-5.297022	,	0
58,30	,	42236	,	-26227	,	-23378	,	-6.925862	,	0
58,30	,	42252	,	-26247	,	-23382	,	-9.021129	,	0
58,30	,	42268	,	-26245	,	-23386	,	-11.397653	,	0
58,30	,	42300	,	-26250	,	-23393	,	-13.841529	,	0
58,30	,	42316	,	-26259	,	-23367	,	-16.08628	,	0
58,30	,	42332	,	-26268	,	-23401	,	-17.962198	,	0
58,30	,	42365	,	-26273	,	-23384	,	-19.456383	,	0
58,30	,	42381	,	-26291	,	-23391	,	-20.651606	,	0
58,30	,	42412	,	-26291	,	-23405	,	-21.69968	,	0
58,30	,	42428	,	-26294	,	-23393	,	-22.658195	,	0
58,30	,	42444	,	-26259	,	-23384	,	-23.19923	,	0
58,30	,	42476	,	-26216	,	-23373	,	-22.369087	,	0
58,30	,	42492	,	-26190	,	-23354	,	-18.841084	,	0
58,30	,	42508	,	-26173	,	-23342	,	-11.793056	,	3
58,30	,	42541	,	-26168	,	-23348	,	-1.5602179	,	10
58,30	,	42557	,	-26160	,	-23343	,	10.499396	,	20
58,30	,	42572	,	-26145	,	-23353	,	22.657269	,	32
58,30	,	42604	,	-26144	,	-23333	,	33.427925	,	44
58,31	,	42620	,	-26132	,	-23330	,	41.78941	,	54
58,31	,	42653	,	-26139	,	-23338	,	47.164543	,	62
58,31	,	42669	,	-26144	,	-23340	,	49.296806	,	67
58,31	,	42684	,	-26150	,	-23339	,	48.154514	,	69
58,31	,	42716	,	-26158	,	-23351	,	43.98372	,	66
58,31	,	42732	,	-26143	,	-23336	,	37.41816	,	59
58,31	,	42748	,	-26141	,	-23338	,	29.52595	,	49
58,31	,	42780	,	-26146	,	-23332	,	21.503056	,	37
58,31	,	42796	,	-26135	,	-23337	,	14.253168	,	25
58,31	,	42828	,	-26138	,	-23349	,	8.349788	,	15
58,31	,	42844	,	-26131	,	-23328	,	4.100275	,	7
58,31	,	42860	,	-26148	,	-23341	,	1.4593201	,	2
58,31	,	42892	,	-26145	,	-23341	,	0.015998363	,	0
58,31	,	42908	,	-26144	,	-23346	,	-0.7353928	,	0
58,31	,	42925	,	-26139	,	-23340	,	-1.0854073	,	0
58,31	,	42956	,	-26145	,	-23354	,	-1.1433388	,	0
58,31	,	42972	,	-26163	,	-23341	,	-1.1114018	,	0
58,31	,	43004	,	-26166	,	-23343	,	-1.397001	,	0
58,31	,	43020	,	-26174	,	-23348	,	-2.3662512	,	0
58,31	,	43036	,	-26183	,	-23350	,	-4.1265783	,	0
58,31	,	43068	,	-26183	,	-23356	,	-6.5566454	,	0
58,31	,	43084	,	-26186	,	-23356	,	-9.3342	,	0
58,31	,	43100	,	-26202	,	-23362	,	-12.083467	,	0
58,31	,	43132	,	-26207	,	-23363	,	-14.624095	,	0
58,31	,	43148	,	-26221	,	-23368	,	-16.96538	,	0
58,31	,	43164	,	-26219	,	-23370	,	-19.120625	,	0
58,31	,	43196	,	-26229	,	-23366	,	-20.995289	,	0
58,31	,	43212	,	-26232	,	-23370	,	-22.438719	,	0
58,31	,	43244	,	-26232	,	-23373	,	-23.32162	,	0
58,31	,	43260	,	-26213	,	-23362	,	-23.421503	,	0
58,31	,	43276	,	-26185	,	-23361	,	-22.23188	,	0
58,31	,	43308	,	-26156	,	-23327	,	-19.001041	,	1
58,31	,	43324	,	-26123	,	-23332	,	-13.051161	,	4
58,31	,	43340	,	-26115	,	-23335	,	-4.208477	,	9
58,31	,	43372	,	-26107	,	-23322	,	6.8562784	,	17
58,31	,	43388	,	-26104	,	-23328	,	18.717522	,	28
58,31	,	43420	,	-26098	,	-23318	,	29.7267	,	39
58,31	,	43436	,	-26089	,	-23317	,	38.56069	,	50
58,31	,	43452	,	-26090	,	-23316	,	44.474255	,	58
58,31	,	43484	,	-26095	,	-23327	,	47.185837	,	63
58,31	,	43500	,	-26116	,	-23333	,	46.612537	,	64
58,31	,	43516	,	-26110	,	-23335	,	42.838257	,	61
58,31	,	43548	,	-26110	,	-23311	,	36.393425	,	56
58,31	,	43564	,	-26101	,	-23318	,	28.337776	,	48
58,31	,	43580	,	-26101	,	-23313	,	19.926476	,	37
58,31	,	43612	,	-26096	,	-23317	,	12.269432	,	26
58,32	,	43628	,	-26095	,	-23322	,	6.1416674	,	15
58,32	,	43660	,	-26098	,	-23313	,	1.868104	,	7
58,32	,	43676	,	-26102	,	-23321	,	-0.6757288	,	2
58,32	,	43692	,	-26100	,	-23327	,	-1.8918519	,	0
58,32	,	43724	,	-26105	,	-23323	,	-2.2333727	,	0
58,32	,	43740	,	-26102	,	-23327	,	-2.0857067	,	0
58,32	,	43756	,	-26120	,	-23339	,	-1.7999068	,	0
58,32	,	43788	,	-26133	,	-23324	,	-1.8291235	,	0
58,32	,	43804	,	-26138	,	-23336	,	-2.6563907	,	0
58,32	,	43836	,	-26139	,	-23343	,	-4.461768	,	0
58,32	,	43852	,	-26139	,	-23343	,	-6.9751177	,	0
58,32	,	43868	,	-26145	,	-23342	,	-9.68005	,	0
58,32	,	43900	,	-26158	,	-23349	,	-12.168927	,	0
58,32	,	43916	,	-26158	,	-23340	,	-14.304412	,	0
58,32	,	43932	,	-26146	,	-23342	,	-15.970921	,	0
58,32	,	43964	,	-26167	,	-23345	,	-16.945805	,	0
58,32	,	43980	,	-26160	,	-23346	,	-17.173584	,	0
58,32	,	43996	,	-26181	,	-23369	,	-16.868752	,	0
58,32	,	44028	,	-26182	,	-23337	,	-16.387512	,	0
58,32	,	44044	,	-26155	,	-23343	,	-15.902354	,	0
58,32	,	44076	,	-26127	,	-23331	,	-14.9314995	,	0
58,32	,	44092	,	-26115	,	-23324	,	-12.534546	,	0
58,32	,	44108	,	-26085	,	-23321	,	-8.0216675	,	2
58,32	,	44140	,	-26074	,	-23311	,	-1.2644973	,	6
58,32	,	44156	,	-26075	,	-23314	,	7.2354836	,	12
58,32	,	44172	,	-26071	,	-23317	,	16.349377	,	20
58,32	,	44204	,	-26075	,	-23315	,	24.685762	,	29
58,32	,	44220	,	-26076	,	-23309	,	31.043865	,	37
58,32	,	44251	,	-26084	,	-23327	,	34.637238	,	43
58,32	,	44268	,	-26078	,	-23303	,	35.196846	,	46
58,32	,	44284	,	-26101	,	-23331	,	32.911415	,	46
58,32	,	44316	,	-26101	,	-23318	,	28.187447	,	44
58,32	,	44332	,	-26092	,	-23316	,	21.668043	,	40
58,32	,	44348	,	-26088	,	-23324	,	14.396547	,	34
58,32	,	44380	,	-26085	,	-23318	,	7.5406017	,	26
58,32	,	44396	,	-26086	,	-23322	,	1.9521589	,	17
58,32	,	44427	,	-26088	,	-23332	,	-1.9953575	,	9
58,32	,	44444	,	-26090	,	-23328	,	-4.339462	,	3
58,32	,	44460	,	-26088	,	-23324	,	-5.35008	,	0
58,32	,	44492	,	-26098	,	-23342	,	-5.40831	,	0
58,32	,	44508	,	-26101	,	-23318	,	-4.981228	,	0
58,32	,	44524	,	-26122	,	-23341	,	-4.601548	,	0
58,32	,	44556	,	-26126	,	-23337	,	-4.806026	,	0
58,32	,	44572	,	-26138	,	-23332	,	-5.9571886	,	0
58,32	,	44588	,	-26146	,	-23345	,	-8.10637	,	0
58,33	,	44620	,	-26151	,	-23346	,	-11.039699	,	0
58,33	,	44636	,	-26148	,	-23348	,	-14.32305	,	0
58,33	,	44667	,	-26166	,	-23352	,	-17.436977	,	0
58,33	,	44684	,	-26173	,	-23359	,	-20.07413	,	0
58,33	,	44700	,	-26172	,	-23363	,	-22.156673	,	0
58,33	,	44731	,	-26184	,	-23376	,	-23.621964	,	0
58,33	,	44747	,	-26194	,	-23365	,	-24.477211	,	0
58,33	,	44764	,	-26202	,	-23370	,	-24.898222	,	0
58,33	,	44796	,	-26227	,	-23373	,	-25.17338	,	0
58,33	,	44812	,	-26213	,	-23380	,	-25.567162	,	0
58,33	,	44843	,	-26211	,	-23377	,	-25.985682	,	0
58,33	,	44859	,	-26193	,	-23361	,	-25.864012	,	0
58,33	,	44875	,	-26157	,	-23356	,	-24.370262	,	0
58,33	,	44907	,	-26145	,	-23342	,	-20.64647	,	1
58,33	,	44923	,	-26122	,	-23334	,	-14.246909	,	4
58,33	,	44939	,	-26122	,	-23335	,	-5.4779034	,	10
58,33	,	44972	,	-26115	,	-23349	,	4.6566	,	18
58,33	,	44987	,	-26113	,	-23325	,	14.783678	,	28
58,33	,	45003	,	-26107	,	-23329	,	23.623697	,	38
58,33	,	45035	,	-26111	,	-23335	,	30.26791	,	46
58,33	,	45051	,	-26100	,	-23346	,	34.248055	,	52
58,33	,	45083	,	-26118	,	-23334	,	35.496468	,	55
58,33	,	45099	,	-26127	,	-23339	,	34.111076	,	55
58,33	,	45116	,	-26131	,	-23346	,	30.264793	,	52
58,33	,	45148	,	-26137	,	-23339	,	24.393812	,	46
58,33	,	45164	,	-26133	,	-23343	,	17.25225	,	38
58,33	,	45179	,	-26125	,	-23348	,	9.817798	,	28
58,33	,	45211	,	-26127	,	-23347	,	3.1026955	,	18
58,33	,	45227	,	-26128	,	-23342	,	-2.1692762	,	10
58,33	,	45259	,	-26132	,	-23340	,	-5.7377877	,	4
58,33	,	45275	,	-26136	,	-23352	,	-7.738287	,	1
58,33	,	45292	,	-26149	,	-23362	,	-8.58884	,	0
58,33	,	45324	,	-26154	,	-23359	,	-8.865226	,	0
58,33	,	45340	,	-26157	,	-23359	,	-9.077847	,	0
58,33	,	45356	,	-26162	,	-23366	,	-9.488533	,	0
58,33	,	45387	,	-26182	,	-23364	,	-10.2168045	,	0
58,33	,	45403	,	-26189	,	-23369	,	-11.438528	,	0
58,33	,	45419	,	-26184	,	-23374	,	-13.224215	,	0
58,33	,	45451	,	-26188	,	-23374	,	-15.280602	,	0
58,33	,	45467	,	-26214	,	-23382	,	-17.234434	,	0
58,33	,	45499	,	-26204	,	-23383	,	-18.992249	,	0
58,33	,	45515	,	-26215	,	-23387	,	-20.517103	,	0
58,33	,	45531	,	-26216	,	-23386	,	-21.64283	,	0
58,33	,	45563	,	-26226	,	-23395	,	-22.258259	,	0
58,33	,	45579	,	-26231	,	-23395	,	-22.3991	,	0
58,33	,	45595	,	-26238	,	-23393	,	-22.185944	,	0
58,34	,	45627	,	-26247	,	-23392	,	-21.771255	,	0
58,34	,	45643	,	-26257	,	-23401	,	-21.340504	,	0
58,34	,	45675	,	-26250	,	-23406	,	-21.01841	,	0
58,34	,	45691	,	-26256	,	-23396	,	-20.713242	,	0
58,34	,	45707	,	-26249	,	-23397	,	-20.175789	,	0
58,34	,	45739	,	-26195	,	-23373	,	-18.896526	,	0
58,34	,	45755	,	-26171	,	-23380	,	-15.860827	,	1
58,34	,	45771	,	-26162	,	-23370	,	-10.124413	,	4
58,34	,	45803	,	-26168	,	-23373	,	-1.8009243	,	9
58,34	,	45819	,	-26159	,	-23366	,	7.8738327	,	17
58,34	,	45835	,	-26147	,	-23363	,	17.36659	,	26
58,34	,	45867	,	-26148	,	-23371	,	25.520693	,	35
58,34	,	45883	,	-26138	,	-23369	,	31.64014	,	43
58,34	,	45915	,	-26147	,	-23368	,	35.365803	,	49
58,34	,	45931	,	-26150	,	-23355	,	36.547092	,	52
58,34	,	45947	,	-26151	,	-23371	,	35.21729	,	52
58,34	,	45979	,	-26153	,	-23361	,	31.703705	,	49
58,34	,	45995	,	-26146	,	-23362	,	26.63906	,	44
58,34	,	46011	,	-26148	,	-23361	,	20.834312	,	36
58,34	,	46043	,	-26153	,	-23364	,	15.032488	,	27
58,34	,	46059	,	-26147	,	-23371	,	9.735185	,	18
58,34	,	46091	,	-26159	,	-23361	,	5.2251863	,	10
58,34	,	46107	,	-26150	,	-23376	,	1.6074271	,	4
58,34	,	46123	,	-26161	,	-23377	,	-1.1305585	,	1
58,34	,	46155	,	-26163	,	-23381	,	-3.1018996	,	0
58,34	,	46171	,	-26155	,	-23362	,	-4.465013	,	0
58,34	,	46187	,	-26163	,	-23374	,	-5.285789	,	0
58,34	,	46219	,	-26171	,	-23379	,	-5.6570244	,	0
58,34	,	46235	,	-26178	,	-23387	,	-5.855677	,	0
58,34	,	46251	,	-26189	,	-23387	,	-6.235696	,	0
58,34	,	46283	,	-26201	,	-23387	,	-7.1115117	,	0
58,34	,	46299	,	-26200	,	-23387	,	-8.650549	,	0
58,34	,	46331	,	-26204	,	-23392	,	-10.7200165	,	0
58,34	,	46347	,	-26208	,	-23392	,	-12.945404	,	0
58,34	,	46363	,	-26222	,	-23394	,	-15.000568	,	0
58,34	,	46395	,	-26221	,	-23410	,	-16.761255	,	0
58,34	,	46411	,	-26221	,	-23389	,	-18.140938	,	0
58,34	,	46427	,	-26233	,	-23402	,	-19.006323	,	0
58,34	,	46459	,	-26246	,	-23411	,	-19.402378	,	0
58,34	,	46475	,	-26244	,	-23408	,	-19.571684	,	0
58,34	,	46507	,	-26249	,	-23407	,	-19.64827	,	0
58,34	,	46523	,	-26250	,	-23409	,	-19.565798	,	0
58,34	,	46539	,	-26263	,	-23418	,	-19.258202	,	0
58,34	,	46571	,	-26267	,	-23416	,	-18.808697	,	0
58,34	,	46587	,	-26264	,	-23415	,	-18.336605	,	0
58,34	,	46603	,	-26241	,	-23405	,	-17.685715	,	0
58,35	,	46635	,	-26223	,	-23409	,	-16.281624	,	0
58,35	,	46651	,	-26177	,	-23363	,	-13.275423	,	1
58,35	,	46683	,	-26161	,	-23365	,	-7.8424053	,	4
58,35	,	46699	,	-26163	,	-23373	,	0.2076745	,	9
58,35	,	46715	,	-26153	,	-23373	,	10.001709	,	17
58,35	,	46747	,	-26157	,	-23355	,	20.019487	,	26
58,35	,	46763	,	-26144	,	-23362	,	28.798697	,	36
58,35	,	46779	,	-26140	,	-23357	,	35.36751	,	44
58,35	,	46811	,	-26140	,	-23367	,	39.32343	,	50
58,35	,	46827	,	-26145	,	-23366	,	40.60768	,	53
58,35	,	46843	,	-26159	,	-23371	,	39.28147	,	53
58,35	,	46875	,	-26152	,	-23381	,	35.532066	,	50
58,35	,	46891	,	-26140	,	-23344	,	29.935806	,	45
58,35	,	46923	,	-26130	,	-23354	,	23.560343	,	37
58,35	,	46939	,	-26125	,	-23349	,	17.588943	,	28
58,35	,	46955	,	-26130	,	-23358	,	12.820433	,	18
58,35	,	46987	,	-26134	,	-23352	,	9.436042	,	10
58,35	,	47003	,	-26135	,	-23352	,	7.151932	,	4
58,35	,	47019	,	-26144	,	-23352	,	5.527607	,	1
58,35	,	47051	,	-26145	,	-23350	,	4.137413	,	0
58,35	,	47067	,	-26151	,	-23364	,	2.6685534	,	0
58,35	,	47098	,	-26142	,	-23360	,	1.030338	,	0
58,35	,	47115	,	-26159	,	-23375	,	-0.6845331	,	0
58,35	,	47131	,	-26164	,	-23347	,	-2.44437	,	0
58,35	,	47163	,	-26172	,	-23366	,	-4.359256	,	0
58,35	,	47179	,	-26181	,	-23371	,	-6.518936	,	0
58,35	,	47195	,	-26180	,	-23370	,	-8.88666	,	0
58,35	,	47227	,	-26186	,	-23378	,	-11.270252	,	0
58,35	,	47242	,	-26188	,	-23368	,	-13.400482	,	0
58,35	,	47259	,	-26186	,	-23372	,	-15.034475	,	0
58,35	,	47291	,	-26198	,	-23374	,	-16.014725	,	0
58,35	,	47307	,	-26206	,	-23369	,	-16.405222	,	0
58,35	,	47339	,	-26203	,	-23372	,	-16.441273	,	0
58,35	,	47355	,	-26209	,	-23386	,	-16.267372	,	0
58,35	,	47371	,	-26218	,	-23364	,	-15.933929	,	0
58,35	,	47403	,	-26227	,	-23381	,	-15.5820675	,	0
58,35	,	47419	,	-26237	,	-23388	,	-15.447263	,	0
58,35	,	47435	,	-26224	,	-23376	,	-15.629099	,	0
58,35	,	47467	,	-26196	,	-23368	,	-15.737646	,	0
58,35	,	47483	,	-26171	,	-23357	,	-14.826683	,	0
58,35	,	47514	,	-26147	,	-23341	,	-11.8600235	,	0
58,35	,	47530	,	-26128	,	-23328	,	-6.272091	,	2
58,35	,	47546	,	-26127	,	-23342	,	1.7270789	,	7
58,35	,	47578	,	-26127	,	-23340	,	11.109953	,	14
58,35	,	47595	,	-26111	,	-23339	,	20.437044	,	23
58,35	,	47611	,	-26118	,	-23326	,	28.459957	,	32
58,36	,	47642	,	-26114	,	-23325	,	34.31402	,	40
58,36	,	47658	,	-26118	,	-23329	,	37.481365	,	45
58,36	,	47691	,	-26134	,	-23336	,	37.76277	,	48
58,36	,	47707	,	-26132	,	-23344	,	35.2169	,	48
58,36	,	47723	,	-26130	,	-23334	,	30.281834	,	46
58,36	,	47754	,	-26122	,	-23337	,	23.861496	,	41
58,36	,	47770	,	-26121	,	-23331	,	17.067312	,	34
58,36	,	47786	,	-26121	,	-23328	,	10.845508	,	25
58,36	,	47819	,	-26114	,	-23328	,	5.801487	,	16
58,36	,	47835	,	-26119	,	-23340	,	2.2121983	,	8
58,36	,	47851	,	-26123	,	-23333	,	0.019486427	,	3
58,36	,	47882	,	-26125	,	-23333	,	-1.110322	,	0
58,36	,	47898	,	-26133	,	-23339	,	-1.6112889	,	0
58,36	,	47931	,	-26141	,	-23342	,	-1.9337659	,	0
58,36	,	47947	,	-26138	,	-23341	,	-2.446562	,	0
58,36	,	47963	,	-26143	,	-23348	,	-3.2737095	,	0
58,36	,	47994	,	-26158	,	-23346	,	-4.395314	,	0
58,36	,	48010	,	-26164	,	-23352	,	-5.877678	,	0
58,36	,	48026	,	-26167	,	-23343	,	-7.7878113	,	0
58,36	,	48058	,	-26172	,	-23345	,	-10.003026	,	0
58,36	,	48074	,	-26177	,	-23342	,	-12.264713	,	0
58,36	,	48106	,	-26181	,	-23356	,	-14.323948	,	0
58,36	,	48123	,	-26204	,	-23358	,	-16.08969	,	0
58,36	,	48139	,	-26192	,	-23361	,	-17.64259	,	0
58,36	,	48170	,	-26208	,	-23364	,	-18.995365	,	0
58,36	,	48187	,	-26210	,	-23360	,	-20.058027	,	0
58,36	,	48202	,	-26224	,	-23374	,	-20.83323	,	0
58,36	,	48234	,	-26227	,	-23367	,	-21.421059	,	0
58,36	,	48250	,	-26234	,	-23372	,	-21.898708	,	0
58,36	,	48266	,	-26233	,	-23374	,	-22.232536	,	0
58,36	,	48298	,	-26245	,	-23384	,	-22.320023	,	0
58,36	,	48314	,	-26231	,	-23362	,	-22.053421	,	0
58,36	,	48346	,	-26196	,	-23355	,	-21.068712	,	0
58,36	,	48362	,	-26147	,	-23326	,	-18.426947	,	0
58,36	,	48378	,	-26126	,	-23322	,	-12.947502	,	2
58,36	,	48410	,	-26120	,	-23321	,	-4.1624603	,	7
58,36	,	48426	,	-26114	,	-23325	,	7.1234026	,	15
58,36	,	48442	,	-26116	,	-23323	,	19.200298	,	26
58,36	,	48474	,	-26117	,	-23325	,	30.15997	,	38
58,36	,	48490	,	-26114	,	-23319	,	38.45463	,	48
58,36	,	48522	,	-26100	,	-23322	,	43.304993	,	56
58,36	,	48538	,	-26109	,	-23340	,	44.743458	,	60
58,36	,	48554	,	-26122	,	-23308	,	43.158863	,	61
58,36	,	48586	,	-26122	,	-23327	,	38.947773	,	59
58,36	,	48602	,	-26127	,	-23326	,	32.647316	,	54
58,37	,	48618	,	-26111	,	-23324	,	25.110756	,	46
58,37	,	48650	,	-26111	,	-23317	,	17.442204	,	35
58,37	,	48666	,	-26108	,	-23321	,	10.674007	,	23
58,37	,	48682	,	-26121	,	-23320	,	5.370365	,	13
58,37	,	48714	,	-26118	,	-23316	,	1.5425167	,	5
58,37	,	48730	,	-26119	,	-23318	,	-1.0629554	,	1
58,37	,	48762	,	-26118	,	-23314	,	-2.6768904	,	0
58,37	,	48778	,	-26129	,	-23337	,	-3.5249352	,	0
58,37	,	48794	,	-26142	,	-23312	,	-3.9952486	,	0
58,37	,	48826	,	-26133	,	-23329	,	-4.533699	,	0
58,37	,	48842	,	-26150	,	-23331	,	-5.360149	,	0
58,37	,	48858	,	-26158	,	-23340	,	-6.5470567	,	0
58,37	,	48890	,	-26156	,	-23333	,	-8.141397	,	0
58,37	,	48906	,	-26162	,	-23343	,	-10.003165	,	0
58,37	,	48938	,	-26177	,	-23341	,	-11.905358	,	0
58,37	,	48954	,	-26182	,	-23349	,	-13.790403	,	0
58,37	,	48970	,	-26186	,	-23352	,	-15.672396	,	0
58,37	,	49002	,	-26195	,	-23354	,	-17.468374	,	0
58,37	,	49018	,	-26198	,	-23368	,	-19.05314	,	0
58,37	,	49034	,	-26203	,	-23340	,	-20.312405	,	0
58,37	,	49066	,	-26221	,	-23360	,	-21.203945	,	0
58,37	,	49082	,	-26226	,	-23362	,	-21.859274	,	0
58,37	,	49114	,	-26226	,	-23363	,	-22.428837	,	0
58,37	,	49130	,	-26240	,	-23366	,	-22.906107	,	0
58,37	,	49146	,	-26235	,	-23363	,	-23.214417	,	0
58,37	,	49178	,	-26254	,	-23381	,	-23.298698	,	0
58,37	,	49194	,	-26254	,	-23376	,	-23.189432	,	0
58,37	,	49210	,	-26248	,	-23367	,	-22.915218	,	0
58,37	,	49242	,	-26222	,	-23359	,	-22.181194	,	0
58,37	,	49258	,	-26192	,	-23362	,	-20.234425	,	0
58,37	,	49274	,	-26165	,	-23316	,	-16.151226	,	1
58,37	,	49306	,	-26137	,	-23326	,	-9.322886	,	5
58,37	,	49322	,	-26139	,	-23321	,	0.134305	,	11
58,37	,	49354	,	-26131	,	-23318	,	11.209097	,	20
58,37	,	49370	,	-26136	,	-23312	,	22.286386	,	31
58,37	,	49386	,	-26132	,	-23316	,	31.739532	,	42
58,37	,	49418	,	-26131	,	-23311	,	38.401432	,	51
58,37	,	49434	,	-26131	,	-23315	,	41.755356	,	57
58,37	,	49450	,	-26145	,	-23312	,	41.79377	,	60
58,37	,	49482	,	-26146	,	-23327	,	38.789642	,	59
58,37	,	49498	,	-26151	,	-23336	,	33.280327	,	55
58,37	,	49530	,	-26144	,	-23311	,	26.111261	,	49
58,37	,	49546	,	-26133	,	-23316	,	18.378965	,	40
58,37	,	49562	,	-26142	,	-23311	,	11.196765	,	29
58,37	,	49594	,	-26131	,	-23317	,	5.3462286	,	18
58,38	,	49610	,	-26140	,	-23316	,	1.1614199	,	9
58,38	,	49626	,	-26152	,	-23313	,	-1.4670596	,	3
58,38	,	49658	,	-26148	,	-23320	,	-3.0135095	,	0
58,38	,	49674	,	-26153	,	-23327	,	-3.960661	,	0
58,38	,	49690	,	-26154	,	-23325	,	-4.5878787	,	0
58,38	,	49722	,	-26162	,	-23318	,	-5.074006	,	0
58,38	,	49738	,	-26158	,	-23329	,	-5.5477476	,	0
58,38	,	49770	,	-26159	,	-23318	,	-6.015406	,	0
58,38	,	49786	,	-26184	,	-23333	,	-6.488058	,	0
58,38	,	49802	,	-26178	,	-23333	,	-7.175329	,	0
58,38	,	49834	,	-26185	,	-23339	,	-8.2488985	,	0
58,38	,	49850	,	-26193	,	-23339	,	-9.636757	,	0
58,38	,	49866	,	-26204	,	-23344	,	-11.233608	,	0
58,38	,	49898	,	-26210	,	-23352	,	-13.015799	,	0
58,38	,	49914	,	-26210	,	-23345	,	-14.90913	,	0
58,38	,	49946	,	-26216	,	-23354	,	-16.701283	,	0
58,38	,	49962	,	-26220	,	-23352	,	-18.147558	,	0
58,38	,	49978	,	-26229	,	-23363	,	-19.126331	,	0
58,38	,	50010	,	-26224	,	-23358	,	-19.622595	,	0
58,38	,	50026	,	-26246	,	-23359	,	-19.683712	,	0
58,38	,	50042	,	-26255	,	-23363	,	-19.541552	,	0
58,38	,	50074	,	-26264	,	-23366	,	-19.570435	,	0
58,38	,	50090	,	-26262	,	-23371	,	-19.966436	,	0
58,38	,	50106	,	-26250	,	-23355	,	-20.510773	,	0
58,38	,	50138	,	-26200	,	-23337	,	-20.408472	,	0
58,38	,	50154	,	-26178	,	-23324	,	-18.363165	,	0
58,38	,	50185	,	-26152	,	-23321	,	-13.26521	,	2
58,38	,	50202	,	-26155	,	-23316	,	-4.9851713	,	7
58,38	,	50218	,	-26140	,	-23317	,	5.4973116	,	15
58,38	,	50250	,	-26139	,	-23323	,	16.623058	,	25
58,38	,	50266	,	-26137	,	-23315	,	26.831406	,	36
58,38	,	50282	,	-26128	,	-23307	,	34.892597	,	46
58,38	,	50314	,	-26136	,	-23308	,	40.086327	,	54
58,38	,	50329	,	-26147	,	-23321	,	42.09363	,	59
58,38	,	50361	,	-26152	,	-23324	,	40.838753	,	61
58,38	,	50377	,	-26165	,	-23327	,	36.549046	,	59
58,38	,	50394	,	-26155	,	-23316	,	29.840767	,	54
58,38	,	50426	,	-26146	,	-23319	,	21.788752	,	46
58,38	,	50442	,	-26148	,	-23313	,	13.725164	,	36
58,38	,	50458	,	-26138	,	-23306	,	6.7643604	,	25
58,38	,	50490	,	-26144	,	-23311	,	1.5606804	,	15
58,38	,	50506	,	-26136	,	-23315	,	-1.6887412	,	7
58,38	,	50522	,	-26149	,	-23317	,	-3.1871655	,	2
58,38	,	50554	,	-26149	,	-23316	,	-3.441169	,	0
58,38	,	50570	,	-26157	,	-23326	,	-3.088474	,	0
58,38	,	50602	,	-26164	,	-23318	,	-2.7083557	,	0
58,39	,	50618	,	-26163	,	-23322	,	-2.7008746	,	0
58,39	,	50634	,	-26177	,	-23329	,	-3.2443142	,	0
58,39	,	50665	,	-26183	,	-23333	,	-4.402438	,	0
58,39	,	50681	,	-26186	,	-23340	,	-6.1692324	,	0
58,39	,	50697	,	-26178	,	-23321	,	-8.312559	,	0
58,39	,	50730	,	-26200	,	-23336	,	-10.441609	,	0
58,39	,	50745	,	-26209	,	-23343	,	-12.390338	,	0
58,39	,	50777	,	-26209	,	-23343	,	-14.253226	,	0
58,39	,	50794	,	-26226	,	-23339	,	-16.082195	,	0
58,39	,	50809	,	-26218	,	-23347	,	-17.809074	,	0
58,39	,	50841	,	-26245	,	-23346	,	-19.345716	,	0
58,39	,	50857	,	-26245	,	-23350	,	-20.726826	,	0
58,39	,	50873	,	-26239	,	-23348	,	-21.9813	,	0
58,39	,	50905	,	-26256	,	-23354	,	-22.92272	,	0
58,39	,	50921	,	-26265	,	-23371	,	-23.43643	,	0
58,39	,	50937	,	-26270	,	-23344	,	-23.659187	,	0
58,39	,	50970	,	-26276	,	-23367	,	-23.7328	,	0
58,39	,	50986	,	-26290	,	-23366	,	-23.728954	,	0
58,39	,	51017	,	-26273	,	-23350	,	-23.641926	,	0
58,39	,	51033	,	-26236	,	-23345	,	-23.03323	,	0
58,39	,	51049	,	-26191	,	-23334	,	-20.779362	,	0
58,39	,	51081	,	-26169	,	-23323	,	-15.577087	,	2
58,39	,	51097	,	-26154	,	-23324	,	-6.8814936	,	7
58,39	,	51113	,	-26148	,	-23313	,	4.6319733	,	15
58,39	,	51145	,	-26148	,	-23318	,	17.348507	,	26
58,39	,	51161	,	-26141	,	-23319	,	29.349174	,	38
58,39	,	51193	,	-26142	,	-23288	,	39.021408	,	50
58,39	,	51209	,	-26128	,	-23307	,	45.423477	,	59
58,39	,	51225	,	-26138	,	-23298	,	48.311874	,	65
58,39	,	51257	,	-26142	,	-23310	,	47.85708	,	67
58,39	,	51273	,	-26164	,	-23319	,	44.329147	,	65
58,39	,	51289	,	-26153	,	-23311	,	38.122887	,	60
58,39	,	51321	,	-26147	,	-23308	,	30.065363	,	52
58,39	,	51337	,	-26152	,	-23291	,	21.378176	,	41
58,39	,	51369	,	-26138	,	-23303	,	13.225775	,	29
58,39	,	51385	,	-26127	,	-23304	,	6.5436983	,	17
58,39	,	51401	,	-26132	,	-23326	,	1.9777241	,	8
58,39	,	51433	,	-26145	,	-23288	,	-0.43474483	,	2
58,39	,	51449	,	-26150	,	-23300	,	-1.3108797	,	0
58,39	,	51465	,	-26157	,	-23303	,	-1.4983563	,	0
58,39	,	51497	,	-26169	,	-23312	,	-1.7168132	,	0
58,39	,	51513	,	-26156	,	-23307	,	-2.3841732	,	0
58,39	,	51529	,	-26165	,	-23309	,	-3.4901977	,	0
58,39	,	51561	,	-26165	,	-23319	,	-4.7757154	,	0
58,39	,	51577	,	-26185	,	-23317	,	-6.1048613	,	0
58,40	,	51609	,	-26182	,	-23321	,	-7.5557404	,	0
58,40	,	51625	,	-26190	,	-23324	,	-9.19276	,	0
58,40	,	51641	,	-26199	,	-23337	,	-10.951034	,	0
58,40	,	51673	,	-26194	,	-23314	,	-12.706007	,	0
58,40	,	51689	,	-26206	,	-23342	,	-14.281258	,	0
58,40	,	51705	,	-26228	,	-23342	,	-15.6292925	,	0
58,40	,	51737	,	-26231	,	-23342	,	-16.98389	,	0
58,40	,	51753	,	-26231	,	-23341	,	-18.521076	,	0
58,40	,	51785	,	-26235	,	-23339	,	-20.070362	,	0
58,40	,	51801	,	-26245	,	-23336	,	-21.333458	,	0
58,40	,	51817	,	-26251	,	-23345	,	-22.173946	,	0
58,40	,	51849	,	-26250	,	-23349	,	-22.586157	,	0
58,40	,	51865	,	-26252	,	-23359	,	-22.52415	,	0
58,40	,	51881	,	-26277	,	-23361	,	-22.012024	,	0
58,40	,	51913	,	-26277	,	-23341	,	-21.351734	,	0
58,40	,	51929	,	-26234	,	-23335	,	-20.658478	,	0
58,40	,	51945	,	-26186	,	-23312	,	-19.088383	,	0
58,40	,	51977	,	-26168	,	-23314	,	-15.152834	,	1
58,40	,	51993	,	-26148	,	-23297	,	-7.9471197	,	4
58,40	,	52025	,	-26135	,	-23297	,	2.2334347	,	11
58,40	,	52041	,	-26131	,	-23293	,	14.169801	,	21
58,40	,	52057	,	-26120	,	-23302	,	26.225529	,	32
58,40	,	52089	,	-26132	,	-23296	,	36.772236	,	44
58,40	,	52105	,	-26125	,	-23296	,	44.465305	,	54
58,40	,	52121	,	-26121	,	-23313	,	48.544037	,	61
58,40	,	52153	,	-26140	,	-23287	,	48.918106	,	65
58,40	,	52169	,	-26158	,	-23310	,	45.77388	,	64
58,40	,	52201	,	-26152	,	-23306	,	39.447216	,	61
58,40	,	52217	,	-26155	,	-23295	,	30.755991	,	54
58,40	,	52233	,	-26143	,	-23295	,	21.01588	,	44
58,40	,	52265	,	-26147	,	-23293	,	11.640741	,	33
58,40	,	52281	,	-26135	,	-23292	,	3.7646704	,	21
58,40	,	52297	,	-26134	,	-23290	,	-1.908678	,	11
58,40	,	52329	,	-26134	,	-23288	,	-5.140824	,	4
58,40	,	52345	,	-26137	,	-23290	,	-6.1798697	,	0
58,40	,	52361	,	-26141	,	-23301	,	-5.636115	,	0
58,40	,	52393	,	-26145	,	-23287	,	-4.2492466	,	0
58,40	,	52409	,	-26147	,	-23303	,	-2.6943898	,	1
58,40	,	52441	,	-26141	,	-23288	,	-1.4150629	,	2
58,40	,	52457	,	-26149	,	-23301	,	-0.5706291	,	3
58,40	,	52473	,	-26159	,	-23311	,	-0.22783887	,	3
58,40	,	52505	,	-26170	,	-23308	,	-0.55508125	,	3
58,40	,	52521	,	-26179	,	-23306	,	-1.7557378	,	3
58,40	,	52537	,	-26180	,	-23312	,	-3.8603375	,	3
58,40	,	52569	,	-26195	,	-23314	,	-6.664711	,	3
58,40	,	52585	,	-26208	,	-23313	,	-9.931381	,	3
58,41	,	52617	,	-26214	,	-23327	,	-13.508198	,	2
58,41	,	52633	,	-26217	,	-23323	,	-17.165602	,	1
58,41	,	52649	,	-26211	,	-23330	,	-20.465984	,	0
58,41	,	52681	,	-26223	,	-23320	,	-22.909939	,	0
58,41	,	52697	,	-26237	,	-23332	,	-24.291748	,	0
58,41	,	52713	,	-26236	,	-23333	,	-24.79626	,	0
58,41	,	52745	,	-26244	,	-23336	,	-24.687462	,	0
58,41	,	52761	,	-26247	,	-23332	,	-24.127531	,	0
58,41	,	52777	,	-26248	,	-23348	,	-23.218287	,	0
58,41	,	52809	,	-26232	,	-23332	,	-21.92321	,	0
58,41	,	52825	,	-26210	,	-23329	,	-19.90464	,	1
58,41	,	52856	,	-26168	,	-23309	,	-16.471428	,	3
58,41	,	52873	,	-26156	,	-23296	,	-10.850689	,	6
58,41	,	52889	,	-26122	,	-23291	,	-2.7054625	,	11
58,41	,	52920	,	-26129	,	-23284	,	7.5532184	,	19
58,41	,	52937	,	-26118	,	-23288	,	18.766495	,	29
58,41	,	52952	,	-26118	,	-23297	,	29.379047	,	40
58,41	,	52984	,	-26120	,	-23296	,	37.97529	,	50
58,41	,	53001	,	-26118	,	-23295	,	43.57128	,	58
58,41	,	53033	,	-26131	,	-23295	,	45.68534	,	62
58,41	,	53049	,	-26147	,	-23297	,	44.22821	,	62
58,41	,	53065	,	-26149	,	-23304	,	39.408897	,	59
58,41	,	53097	,	-26148	,	-23293	,	31.889875	,	54
58,41	,	53112	,	-26132	,	-23301	,	22.882383	,	46
58,41	,	53128	,	-26124	,	-23295	,	13.931459	,	36
58,41	,	53160	,	-26136	,	-23296	,	6.3714876	,	25
58,41	,	53176	,	-26134	,	-23290	,	0.8121891	,	15
58,41	,	53193	,	-26128	,	-23283	,	-2.7575717	,	7
58,41	,	53225	,	-26127	,	-23296	,	-4.542573	,	2
58,41	,	53241	,	-26123	,	-23294	,	-4.806596	,	0
58,41	,	53272	,	-26139	,	-23298	,	-3.9757166	,	0
58,41	,	53288	,	-26138	,	-23294	,	-2.678442	,	0
58,41	,	53304	,	-26148	,	-23297	,	-1.5571423	,	1
58,41	,	53336	,	-26157	,	-23295	,	-1.0863383	,	2
58,41	,	53352	,	-26160	,	-23300	,	-1.5412195	,	2
58,41	,	53368	,	-26186	,	-23308	,	-3.0343628	,	2
58,41	,	53401	,	-26182	,	-23312	,	-5.584054	,	2
58,41	,	53417	,	-26191	,	-23312	,	-8.992578	,	2
58,41	,	53448	,	-26199	,	-23313	,	-12.802757	,	2
58,41	,	53464	,	-26205	,	-23319	,	-16.544634	,	2
58,41	,	53480	,	-26204	,	-23322	,	-19.825138	,	2
58,41	,	53512	,	-26219	,	-23330	,	-22.328478	,	1
58,41	,	53529	,	-26216	,	-23330	,	-23.922684	,	0
58,41	,	53545	,	-26219	,	-23336	,	-24.601202	,	0
58,41	,	53577	,	-26236	,	-23312	,	-24.438986	,	0
58,41	,	53592	,	-26231	,	-23332	,	-23.6757	,	0
58,42	,	53624	,	-26177	,	-23311	,	-22.277702	,	0
58,42	,	53640	,	-26133	,	-23296	,	-19.309334	,	1
58,42	,	53656	,	-26121	,	-23288	,	-13.460205	,	3
58,42	,	53688	,	-26098	,	-23289	,	-4.2792406	,	8
58,42	,	53704	,	-26098	,	-23294	,	7.4434233	,	17
58,42	,	53720	,	-26093	,	-23285	,	20.095188	,	28
58,42	,	53752	,	-26099	,	-23284	,	31.776484	,	40
58,42	,	53768	,	-26095	,	-23276	,	40.83223	,	51
58,42	,	53784	,	-26092	,	-23290	,	46.277554	,	60
58,42	,	53816	,	-26095	,	-23269	,	47.912918	,	65
58,42	,	53832	,	-26117	,	-23281	,	46.001495	,	65
58,42	,	53864	,	-26124	,	-23290	,	40.901485	,	63
58,42	,	53881	,	-26126	,	-23297	,	33.15802	,	58
58,42	,	53896	,	-26109	,	-23287	,	23.806387	,	49
58,42	,	53928	,	-26102	,	-23277	,	14.334171	,	38
58,42	,	53944	,	-26102	,	-23276	,	6.181981	,	26
58,42	,	53960	,	-26096	,	-23280	,	0.23536777	,	15
58,42	,	53992	,	-26098	,	-23282	,	-3.2624373	,	6
58,42	,	54008	,	-26106	,	-23274	,	-4.592088	,	1
58,42	,	54040	,	-26105	,	-23297	,	-4.4013886	,	0
58,42	,	54056	,	-26102	,	-23275	,	-3.3894196	,	0
58,42	,	54072	,	-26120	,	-23298	,	-2.1376085	,	1
58,42	,	54104	,	-26115	,	-23292	,	-1.1659262	,	2
58,42	,	54120	,	-26133	,	-23296	,	-0.8716202	,	2
58,42	,	54136	,	-26142	,	-23301	,	-1.5068419	,	2
58,42	,	54168	,	-26139	,	-23303	,	-3.1594343	,	2
58,42	,	54184	,	-26146	,	-23299	,	-5.6012053	,	2
58,42	,	54200	,	-26157	,	-23305	,	-8.423795	,	2
58,42	,	54232	,	-26168	,	-23305	,	-11.350485	,	2
58,42	,	54248	,	-26170	,	-23302	,	-14.245516	,	2
58,42	,	54280	,	-26189	,	-23316	,	-16.998806	,	1
58,42	,	54296	,	-26190	,	-23294	,	-19.54632	,	0
58,42	,	54312	,	-26187	,	-23321	,	-21.773941	,	0
58,42	,	54344	,	-26203	,	-23318	,	-23.444725	,	0
58,42	,	54360	,	-26208	,	-23315	,	-24.44606	,	0
58,42	,	54376	,	-26181	,	-23308	,	-24.7301	,	0
58,42	,	54408	,	-26153	,	-23297	,	-23.8252	,	0
58,42	,	54424	,	-26112	,	-23286	,	-20.77612	,	0
58,42	,	54456	,	-26093	,	-23276	,	-14.692869	,	3
58,42	,	54472	,	-26082	,	-23264	,	-5.43079	,	9
58,42	,	54488	,	-26063	,	-23261	,	6.1779776	,	18
58,42	,	54520	,	-26071	,	-23273	,	18.659636	,	29
58,42	,	54536	,	-26058	,	-23247	,	30.334705	,	41
58,42	,	54552	,	-26051	,	-23269	,	39.79418	,	52
58,42	,	54584	,	-26049	,	-23267	,	46.24532	,	61
58,42	,	54600	,	-26045	,	-23264	,	49.44223	,	67
58,43	,	54616	,	-26067	,	-23267	,	49.423786	,	70
58,43	,	54648	,	-26071	,	-23258	,	46.297012	,	67
58,43	,	54664	,	-26073	,	-23271	,	40.352367	,	61
58,43	,	54696	,	-26063	,	-23262	,	32.36845	,	52
58,43	,	54712	,	-26063	,	-23263	,	23.547438	,	41
58,43	,	54728	,	-26050	,	-23251	,	15.14856	,	29
58,43	,	54760	,	-26051	,	-23271	,	8.190701	,	18
58,43	,	54776	,	-26054	,	-23252	,	3.21743	,	9
58,43	,	54792	,	-26061	,	-23266	,	0.17186308	,	3
58,43	,	54824	,	-26060	,	-23266	,	-1.40938	,	0
58,43	,	54840	,	-26052	,	-23266	,	-2.0089836	,	0
58,43	,	54872	,	-26062	,	-23267	,	-1.9504955	,	0
58,43	,	54888	,	-26056	,	-23275	,	-1.5059438	,	0
58,43	,	54904	,	-26074	,	-23261	,	-0.99438065	,	0
58,43	,	54936	,	-26082	,	-23272	,	-0.8212332	,	0
58,43	,	54952	,	-26090	,	-23262	,	-1.3982601	,	0
58,43	,	54968	,	-26091	,	-23274	,	-2.8950794	,	0
58,43	,	55000	,	-26094	,	-23279	,	-5.1303973	,	0
58,43	,	55016	,	-26095	,	-23274	,	-7.6963935	,	0
58,43	,	55048	,	-26121	,	-23281	,	-10.25509	,	0
58,43	,	55064	,	-26127	,	-23286	,	-12.795196	,	0
58,43	,	55080	,	-26129	,	-23293	,	-15.42765	,	0
58,43	,	55112	,	-26137	,	-23299	,	-18.040833	,	0
58,43	,	55128	,	-26144	,	-23298	,	-20.381638	,	0
58,43	,	55144	,	-26149	,	-23293	,	-22.262774	,	0
58,43	,	55176	,	-26121	,	-23287	,	-23.425676	,	0
58,43	,	55192	,	-26082	,	-23273	,	-23.1612	,	0
58,43	,	55208	,	-26047	,	-23259	,	-20.312212	,	0
58,43	,	55240	,	-26041	,	-23246	,	-14.018817	,	2
58,43	,	55256	,	-26026	,	-23246	,	-4.4891605	,	8
58,43	,	55288	,	-26012	,	-23235	,	7.0915813	,	17
58,43	,	55304	,	-26006	,	-23234	,	19.191116	,	28
58,43	,	55320	,	-26014	,	-23239	,	30.275702	,	40
58,43	,	55352	,	-26003	,	-23250	,	38.98366	,	51
58,43	,	55368	,	-26006	,	-23243	,	44.45469	,	59
58,43	,	55384	,	-26012	,	-23243	,	46.4267	,	64
58,43	,	55416	,	-26024	,	-23249	,	44.99385	,	65
58,43	,	55432	,	-26016	,	-23256	,	40.53454	,	63
58,43	,	55464	,	-26027	,	-23250	,	33.79708	,	57
58,43	,	55480	,	-26014	,	-23231	,	25.798565	,	48
58,43	,	55496	,	-26005	,	-23252	,	17.69478	,	37
58,43	,	55528	,	-26009	,	-23246	,	10.582098	,	25
58,43	,	55544	,	-26013	,	-23250	,	5.0993347	,	14
58,43	,	55560	,	-26015	,	-23239	,	1.2983809	,	6
58,43	,	55592	,	-26024	,	-23244	,	-1.131988	,	1
58,43	,	55607	,	-26023	,	-23241	,	-2.6399436	,	0
58,44	,	55624	,	-26014	,	-23245	,	-3.5630813	,	0
58,44	,	55656	,	-26035	,	-23248	,	-4.0688024	,	0
58,44	,	55672	,	-26041	,	-23244	,	-4.434401	,	0
58,44	,	55704	,	-26042	,	-23257	,	-5.043692	,	0
58,44	,	55720	,	-26060	,	-23244	,	-6.1201496	,	0
58,44	,	55736	,	-26061	,	-23264	,	-7.743238	,	0
58,44	,	55767	,	-26075	,	-23265	,	-9.90449	,	0
58,44	,	55783	,	-26075	,	-23269	,	-12.459135	,	0
58,44	,	55800	,	-26092	,	-23276	,	-15.176309	,	0
58,44	,	55832	,	-26079	,	-23279	,	-17.776758	,	0
58,44	,	55848	,	-26095	,	-23281	,	-19.918627	,	0
58,44	,	55879	,	-26098	,	-23287	,	-21.362268	,	0
58,44	,	55896	,	-26108	,	-23288	,	-22.123016	,	0
58,44	,	55912	,	-26096	,	-23286	,	-22.283	,	0
58,44	,	55943	,	-26066	,	-23275	,	-21.614666	,	0
58,44	,	55959	,	-26042	,	-23243	,	-19.427805	,	0
58,44	,	55976	,	-26012	,	-23246	,	-14.915832	,	2
58,44	,	56008	,	-26014	,	-23242	,	-7.766762	,	6
58,44	,	56024	,	-25994	,	-23247	,	1.4909344	,	13
58,44	,	56040	,	-25996	,	-23245	,	11.706408	,	22
58,44	,	56072	,	-26004	,	-23245	,	21.473635	,	32
58,44	,	56087	,	-26013	,	-23241	,	29.328793	,	41
58,44	,	56119	,	-26010	,	-23246	,	34.121933	,	48
58,44	,	56135	,	-26017	,	-23252	,	35.411663	,	52
58,44	,	56151	,	-26031	,	-23257	,	33.386787	,	53
58,44	,	56184	,	-26034	,	-23267	,	28.552757	,	51
58,44	,	56200	,	-26029	,	-23244	,	21.70279	,	47
58,44	,	56216	,	-26028	,	-23252	,	13.955513	,	40
58,44	,	56248	,	-26021	,	-23249	,	6.510478	,	31
58,44	,	56263	,	-26022	,	-23252	,	0.3296795	,	21
58,44	,	56295	,	-26021	,	-23251	,	-4.057725	,	12
58,44	,	56311	,	-26021	,	-23249	,	-6.574478	,	5
58,44	,	56327	,	-26027	,	-23254	,	-7.4785557	,	1
58,44	,	56359	,	-26025	,	-23266	,	-7.2184157	,	0
58,44	,	56375	,	-26037	,	-23264	,	-6.30995	,	0
58,44	,	56392	,	-26040	,	-23264	,	-5.284499	,	0
58,44	,	56424	,	-26052	,	-23286	,	-4.6322393	,	1
58,44	,	56439	,	-26060	,	-23261	,	-4.7170563	,	1
58,44	,	56471	,	-26063	,	-23273	,	-5.6971135	,	1
58,44	,	56487	,	-26072	,	-23275	,	-7.476914	,	1
58,44	,	56503	,	-26077	,	-23285	,	-9.799991	,	1
58,44	,	56535	,	-26087	,	-23291	,	-12.388665	,	1
58,44	,	56551	,	-26103	,	-23288	,	-15.05767	,	1
58,44	,	56567	,	-26108	,	-23295	,	-17.756647	,	1
58,44	,	56600	,	-26116	,	-23297	,	-20.425652	,	1
58,45	,	56615	,	-26118	,	-23302	,	-22.869186	,	0
58,45	,	56631	,	-26119	,	-23290	,	-24.790577	,	0
58,45	,	56663	,	-26098	,	-23299	,	-25.780369	,	0
58,45	,	56679	,	-26072	,	-23265	,	-25.208878	,	0
58,45	,	56711	,	-26029	,	-23258	,	-22.22018	,	0
58,45	,	56727	,	-26036	,	-23259	,	-16.161903	,	2
58,45	,	56743	,	-26022	,	-23256	,	-7.291795	,	8
58,45	,	56775	,	-26019	,	-23259	,	3.1881886	,	16
58,45	,	56791	,	-26035	,	-23248	,	13.672332	,	26
58,45	,	56807	,	-26027	,	-23254	,	22.54743	,	36
58,45	,	56839	,	-26026	,	-23262	,	28.667116	,	44
58,45	,	56855	,	-26030	,	-23262	,	31.643023	,	50
58,45	,	56887	,	-26058	,	-23273	,	31.498102	,	52
58,45	,	56903	,	-26064	,	-23277	,	28.305687	,	52
58,45	,	56919	,	-26068	,	-23266	,	22.384388	,	50
58,45	,	56951	,	-26046	,	-23268	,	14.681161	,	44
58,45	,	56967	,	-26049	,	-23279	,	6.6821966	,	36
58,45	,	56983	,	-26037	,	-23267	,	-0.17267227	,	26
58,45	,	57015	,	-26044	,	-23266	,	-4.9922523	,	16
58,45	,	57031	,	-26054	,	-23280	,	-7.614812	,	8
58,45	,	57047	,	-26054	,	-23277	,	-8.493957	,	2
58,45	,	57079	,	-26051	,	-23284	,	-8.256568	,	0
58,45	,	57095	,	-26070	,	-23279	,	-7.440734	,	0
58,45	,	57127	,	-26069	,	-23275	,	-6.5858793	,	0
58,45	,	57143	,	-26085	,	-23289	,	-6.179833	,	0
58,45	,	57159	,	-26074	,	-23283	,	-6.457099	,	0
58,45	,	57191	,	-26088	,	-23279	,	-7.3320265	,	0
58,45	,	57207	,	-26095	,	-23295	,	-8.600159	,	0
58,45	,	57223	,	-26101	,	-23293	,	-10.146202	,	0
58,45	,	57255	,	-26107	,	-23298	,	-11.879237	,	0
58,45	,	57271	,	-26126	,	-23291	,	-13.724337	,	0
58,45	,	57303	,	-26129	,	-23291	,	-15.7132015	,	0
58,45	,	57319	,	-26125	,	-23301	,	-17.801697	,	0
58,45	,	57335	,	-26125	,	-23308	,	-19.652834	,	0
58,45	,	57367	,	-26130	,	-23308	,	-20.818933	,	0
58,45	,	57383	,	-26146	,	-23317	,	-21.131376	,	0
58,45	,	57399	,	-26151	,	-23309	,	-20.834053	,	0
58,45	,	57431	,	-26164	,	-23314	,	-20.358059	,	0
58,45	,	57447	,	-26161	,	-23321	,	-20.017563	,	0
58,45	,	57463	,	-26156	,	-23304	,	-19.80481	,	0
58,45	,	57495	,	-26110	,	-23297	,	-19.189835	,	0
58,45	,	57511	,	-26096	,	-23288	,	-17.142803	,	0
58,45	,	57543	,	-26079	,	-23279	,	-12.76369	,	2
58,45	,	57559	,	-26065	,	-23271	,	-5.920558	,	6
58,45	,	57575	,	-26069	,	-23273	,	2.719922	,	12
58,46	,	57607	,	-26058	,	-23274	,	11.969528	,	20
58,46	,	57623	,	-26054	,	-23275	,	20.567265	,	29
58,46	,	57639	,	-26057	,	-23272	,	27.536058	,	37
58,46	,	57671	,	-26063	,	-23270	,	32.17987	,	43
58,46	,	57687	,	-26060	,	-23271	,	34.095737	,	47
58,46	,	57719	,	-26064	,	-23274	,	33.308228	,	48
58,46	,	57735	,	-26073	,	-23268	,	30.197515	,	46
58,46	,	57751	,	-26069	,	-23271	,	25.316689	,	42
58,46	,	57783	,	-26068	,	-23274	,	19.381401	,	36
58,46	,	57799	,	-26059	,	-23269	,	13.256754	,	28
58,46	,	57815	,	-26060	,	-23264	,	7.772134	,	19
58,46	,	57847	,	-26058	,	-23271	,	3.4901247	,	11
58,46	,	57863	,	-26066	,	-23254	,	0.57249117	,	5
58,46	,	57879	,	-26068	,	-23274	,	-1.1831021	,	1
58,46	,	57911	,	-26071	,	-23275	,	-2.152396	,	0
58,46	,	57927	,	-26072	,	-23274	,	-2.6832078	,	0
58,46	,	57959	,	-26079	,	-23278	,	-3.0355644	,	0
58,46	,	57975	,	-26087	,	-23272	,	-3.440804	,	0
58,46	,	57991	,	-26099	,	-23282	,	-4.154134	,	0
58,46	,	58023	,	-26100	,	-23282	,	-5.3840427	,	0
58,46	,	58039	,	-26106	,	-23294	,	-7.1409416	,	0
58,46	,	58055	,	-26100	,	-23293	,	-9.177281	,	0
58,46	,	58087	,	-26120	,	-23299	,	-11.154496	,	0
58,46	,	58103	,	-26111	,	-23285	,	-12.872856	,	0
58,46	,	58135	,	-26124	,	-23299	,	-14.243976	,	0
58,46	,	58151	,	-26135	,	-23296	,	-15.2663355	,	0
58,46	,	58167	,	-26128	,	-23285	,	-16.043222	,	0
58,46	,	58199	,	-26149	,	-23294	,	-16.643417	,	0
58,46	,	58215	,	-26150	,	-23297	,	-17.146263	,	0
58,46	,	58230	,	-26165	,	-23310	,	-17.71585	,	0
58,46	,	58263	,	-26159	,	-23308	,	-18.43835	,	0
58,46	,	58279	,	-26167	,	-23318	,	-19.198906	,	0
58,46	,	58311	,	-26166	,	-23323	,	-19.76027	,	0
58,46	,	58327	,	-26182	,	-23322	,	-19.973398	,	0
58,46	,	58343	,	-26189	,	-23318	,	-19.923355	,	0
58,46	,	58375	,	-26203	,	-23325	,	-19.8709	,	0
58,46	,	58391	,	-26202	,	-23326	,	-20.040771	,	0
58,46	,	58406	,	-26179	,	-23321	,	-20.309597	,	0
58,46	,	58438	,	-26137	,	-23299	,	-19.889755	,	0
58,46	,	58454	,	-26123	,	-23292	,	-17.536854	,	0
58,46	,	58471	,	-26111	,	-23292	,	-12.423391	,	2
58,46	,	58503	,	-26095	,	-23282	,	-4.694914	,	7
58,46	,	58519	,	-26103	,	-23283	,	4.7051105	,	14
58,46	,	58551	,	-26093	,	-23276	,	14.39044	,	23
58,46	,	58567	,	-26088	,	-23292	,	23.001644	,	32
58,46	,	58583	,	-26091	,	-23273	,	29.600533	,	40
58,47	,	58614	,	-26093	,	-23279	,	33.649708	,	46
58,47	,	58630	,	-26091	,	-23273	,	34.945595	,	50
58,47	,	58646	,	-26092	,	-23283	,	33.677265	,	51
58,47	,	58679	,	-26101	,	-23282	,	30.319035	,	49
58,47	,	58695	,	-26100	,	-23285	,	25.42573	,	44
58,47	,	58726	,	-26098	,	-23274	,	19.61964	,	37
58,47	,	58743	,	-26081	,	-23267	,	13.691904	,	28
58,47	,	58759	,	-26083	,	-23294	,	8.512688	,	19
58,47	,	58790	,	-26081	,	-23275	,	4.6897163	,	11
58,47	,	58807	,	-26078	,	-23283	,	2.3756638	,	5
58,47	,	58823	,	-26077	,	-23263	,	1.414855	,	1
58,47	,	58854	,	-26088	,	-23275	,	1.4503434	,	0
58,47	,	58870	,	-26093	,	-23279	,	1.9194894	,	0
58,47	,	58886	,	-26096	,	-23273	,	2.224436	,	0
58,47	,	58918	,	-26094	,	-23272	,	2.012408	,	0
58,47	,	58934	,	-26101	,	-23288	,	1.2429166	,	0
58,47	,	58966	,	-26117	,	-23287	,	-0.05000353	,	0
58,47	,	58983	,	-26118	,	-23296	,	-1.9258611	,	0
58,47	,	58999	,	-26124	,	-23290	,	-4.3698955	,	0
58,47	,	59031	,	-26120	,	-23292	,	-7.122835	,	0
58,47	,	59046	,	-26131	,	-23312	,	-9.788687	,	0
58,47	,	59062	,	-26144	,	-23278	,	-12.120496	,	0
58,47	,	59094	,	-26141	,	-23290	,	-14.106999	,	0
58,47	,	59110	,	-26150	,	-23297	,	-15.753962	,	0
58,47	,	59142	,	-26156	,	-23304	,	-17.02478	,	0
58,47	,	59159	,	-26162	,	-23299	,	-17.945309	,	0
58,47	,	59175	,	-26155	,	-23303	,	-18.517393	,	0
58,47	,	59206	,	-26176	,	-23297	,	-18.688248	,	0
58,47	,	59222	,	-26168	,	-23303	,	-18.507965	,	0
58,47	,	59238	,	-26180	,	-23306	,	-18.093826	,	0
58,47	,	59270	,	-26176	,	-23305	,	-17.506536	,	0
58,47	,	59286	,	-26202	,	-23324	,	-16.86164	,	0
58,47	,	59302	,	-26198	,	-23306	,	-16.424337	,	0
58,47	,	59334	,	-26219	,	-23319	,	-16.460321	,	0
58,47	,	59350	,	-26206	,	-23321	,	-17.031168	,	0
58,47	,	59382	,	-26183	,	-23312	,	-17.74604	,	0
58,47	,	59398	,	-26168	,	-23300	,	-17.696886	,	0
58,47	,	59414	,	-26132	,	-23282	,	-15.843115	,	0
58,47	,	59446	,	-26118	,	-23266	,	-11.42975	,	1
58,47	,	59462	,	-26096	,	-23266	,	-4.2787848	,	5
58,47	,	59478	,	-26098	,	-23275	,	5.0284905	,	12
58,47	,	59511	,	-26092	,	-23275	,	15.253311	,	21
58,47	,	59527	,	-26090	,	-23278	,	24.899376	,	31
58,47	,	59558	,	-26085	,	-23259	,	32.707413	,	40
58,47	,	59574	,	-26091	,	-23259	,	37.878513	,	47
58,47	,	59590	,	-26087	,	-23262	,	40.054813	,	52
58,48	,	59622	,	-26102	,	-23259	,	39.25809	,	54
58,48	,	59638	,	-26097	,	-23267	,	35.80696	,	53
58,48	,	59654	,	-26092	,	-23264	,	30.341097	,	49
58,48	,	59686	,	-26070	,	-23259	,	23.90732	,	42
58,48	,	59702	,	-26087	,	-23253	,	17.685854	,	33
58,48	,	59734	,	-26074	,	-23255	,	12.451954	,	23
58,48	,	59750	,	-26079	,	-23256	,	8.475604	,	14
58,48	,	59766	,	-26078	,	-23256	,	5.7449303	,	7
58,48	,	59798	,	-26077	,	-23248	,	4.0625668	,	2
58,48	,	59814	,	-26077	,	-23259	,	3.1488101	,	0
58,48	,	59830	,	-26079	,	-23255	,	2.7306962	,	0
58,48	,	59862	,	-26087	,	-23254	,	2.5208693	,	0
58,48	,	59878	,	-26099	,	-23260	,	2.1642013	,	0
58,48	,	59894	,	-26088	,	-23255	,	1.3584994	,	0
58,48	,	59926	,	-26098	,	-23257	,	0.092279434	,	0
58,48	,	59942	,	-26118	,	-23266	,	-1.5334349	,	0
58,48	,	59974	,	-26113	,	-23265	,	-3.5773764	,	0
58,48	,	59990	,	-26111	,	-23276	,	-5.9856143	,	0
58,48	,	60006	,	-26120	,	-23268	,	-8.414434	,	0
58,48	,	60038	,	-26126	,	-23275	,	-10.554069	,	0
58,48	,	60054	,	-26133	,	-23279	,	-12.32546	,	0
58,48	,	60070	,	-26133	,	-23280	,	-13.747829	,	0
58,48	,	60102	,	-26149	,	-23284	,	-14.853821	,	0
58,48	,	60118	,	-26152	,	-23286	,	-15.759405	,	0
58,48	,	60150	,	-26152	,	-23287	,	-16.577393	,	0
58,48	,	60166	,	-26161	,	-23283	,	-17.274414	,	0
58,48	,	60182	,	-26163	,	-23288	,	-17.772655	,	0
58,48	,	60214	,	-26172	,	-23292	,	-18.057262	,	0
58,48	,	60230	,	-26178	,	-23294	,	-18.172958	,	0
58,48	,	60246	,	-26171	,	-23280	,	-18.14233	,	0
58,48	,	60278	,	-26165	,	-23289	,	-17.803188	,	0
58,48	,	60294	,	-26109	,	-23263	,	-16.598063	,	0
58,48	,	60310	,	-26072	,	-23253	,	-13.422731	,	1
58,48	,	60342	,	-26059	,	-23247	,	-7.177682	,	4
58,48	,	60358	,	-26054	,	-23243	,	2.1965113	,	10
58,48	,	60390	,	-26053	,	-23245	,	13.478886	,	19
58,48	,	60406	,	-26041	,	-23236	,	24.867176	,	30
58,48	,	60422	,	-26035	,	-23233	,	34.77884	,	41
58,48	,	60454	,	-26029	,	-23222	,	42.204315	,	50
58,48	,	60470	,	-26034	,	-23245	,	46.63607	,	57
58,48	,	60486	,	-26035	,	-23226	,	47.906788	,	61
58,48	,	60518	,	-26033	,	-23241	,	46.16375	,	61
58,48	,	60534	,	-26030	,	-23230	,	41.92754	,	58
58,48	,	60566	,	-26034	,	-23234	,	35.989796	,	52
58,48	,	60582	,	-26038	,	-23231	,	29.143684	,	43
58,48	,	60598	,	-26031	,	-23222	,	22.065592	,	32
58,49	,	60630	,	-26011	,	-23222	,	15.478739	,	21
58,49	,	60646	,	-26014	,	-23228	,	10.173893	,	12
58,49	,	60662	,	-26018	,	-23228	,	6.601534	,	5
58,49	,	60694	,	-26030	,	-23234	,	4.5627794	,	1
58,49	,	60710	,	-26021	,	-23237	,	3.4701095	,	0
58,49	,	60726	,	-26036	,	-23215	,	2.7804255	,	0
58,49	,	60758	,	-26034	,	-23230	,	2.1021848	,	0
58,49	,	60774	,	-26048	,	-23238	,	1.142239	,	0
58,49	,	60805	,	-26046	,	-23236	,	-0.27365196	,	0
58,49	,	60821	,	-26055	,	-23232	,	-2.1578195	,	0
58,49	,	60838	,	-26055	,	-23238	,	-4.3650565	,	0
58,49	,	60870	,	-26065	,	-23244	,	-6.685271	,	0
58,49	,	60885	,	-26066	,	-23249	,	-8.940148	,	0
58,49	,	60902	,	-26074	,	-23250	,	-10.996073	,	0
58,49	,	60934	,	-26085	,	-23262	,	-12.796297	,	0
58,49	,	60950	,	-26076	,	-23273	,	-14.334116	,	0
58,49	,	60982	,	-26086	,	-23243	,	-15.509838	,	0
58,49	,	60998	,	-26100	,	-23264	,	-16.25495	,	0
58,49	,	61014	,	-26103	,	-23265	,	-16.73375	,	0
58,49	,	61045	,	-26105	,	-23268	,	-17.143671	,	0
58,49	,	61061	,	-26122	,	-23277	,	-17.56041	,	0
58,49	,	61077	,	-26127	,	-23268	,	-18.07835	,	0
58,49	,	61109	,	-26127	,	-23273	,	-18.765371	,	0
58,49	,	61126	,	-26145	,	-23272	,	-19.559387	,	0
58,49	,	61158	,	-26151	,	-23288	,	-20.434067	,	0
58,49	,	61174	,	-26152	,	-23281	,	-21.400307	,	0
58,49	,	61190	,	-26135	,	-23288	,	-22.209492	,	0
58,49	,	61221	,	-26107	,	-23252	,	-22.169754	,	0
58,49	,	61238	,	-26044	,	-23243	,	-20.113274	,	0
58,49	,	61253	,	-26027	,	-23230	,	-14.714022	,	2
58,49	,	61286	,	-26026	,	-23227	,	-5.4862604	,	7
58,49	,	61302	,	-26023	,	-23231	,	6.519928	,	16
58,49	,	61318	,	-26019	,	-23223	,	19.27378	,	28
58,49	,	61349	,	-26007	,	-23222	,	30.799116	,	40
58,49	,	61365	,	-26008	,	-23218	,	39.748104	,	51
58,49	,	61397	,	-26003	,	-23220	,	45.437046	,	59
58,49	,	61413	,	-26008	,	-23226	,	47.68315	,	64
58,49	,	61429	,	-26011	,	-23237	,	46.654068	,	66
58,49	,	61462	,	-26018	,	-23223	,	42.75699	,	64
58,49	,	61478	,	-26018	,	-23226	,	36.613613	,	59
58,49	,	61494	,	-26002	,	-23223	,	29.12501	,	50
58,49	,	61526	,	-25996	,	-23219	,	21.459225	,	38
58,49	,	61541	,	-25991	,	-23225	,	14.743992	,	26
58,49	,	61573	,	-25991	,	-23231	,	9.682211	,	15
58,49	,	61589	,	-25989	,	-23225	,	6.4402514	,	7
58,49	,	61605	,	-26003	,	-23220	,	4.719186	,	2
58,50	,	61637	,	-26013	,	-23224	,	3.855363	,	0
58,50	,	61654	,	-26008	,	-23230	,	3.1210427	,	0
58,50	,	61670	,	-26026	,	-23226	,	2.0549936	,	0
58,50	,	61701	,	-26030	,	-23222	,	0.41740787	,	0
58,50	,	61718	,	-26034	,	-23225	,	-1.8861969	,	0
58,50	,	61733	,	-26049	,	-23237	,	-4.7601132	,	0
58,50	,	61765	,	-26051	,	-23237	,	-8.023543	,	0
58,50	,	61781	,	-26051	,	-23242	,	-11.411617	,	0
58,50	,	61813	,	-26063	,	-23246	,	-14.549589	,	0
58,50	,	61829	,	-26071	,	-23247	,	-17.178093	,	0
58,50	,	61845	,	-26076	,	-23255	,	-19.253088	,	0
58,50	,	61877	,	-26086	,	-23266	,	-20.818146	,	0
58,50	,	61894	,	-26081	,	-23254	,	-21.897087	,	0
58,50	,	61910	,	-26091	,	-23258	,	-22.438164	,	0
58,50	,	61942	,	-26110	,	-23265	,	-22.479801	,	0
58,50	,	61957	,	-26118	,	-23269	,	-22.342415	,	0
58,50	,	61989	,	-26119	,	-23268	,	-22.375538	,	0
58,50	,	62005	,	-26121	,	-23275	,	-22.611069	,	0
58,50	,	62021	,	-26130	,	-23277	,	-22.842222	,	0
58,50	,	62053	,	-26143	,	-23283	,	-22.940266	,	0
58,50	,	62069	,	-26162	,	-23284	,	-23.036976	,	0
58,50	,	62085	,	-26161	,	-23281	,	-23.39053	,	0
58,50	,	62117	,	-26124	,	-23270	,	-23.855911	,	0
58,50	,	62133	,	-26093	,	-23265	,	-23.454575	,	0
58,50	,	62165	,	-26077	,	-23242	,	-20.840996	,	0
58,50	,	62181	,	-26059	,	-23241	,	-15.257031	,	2
58,50	,	62197	,	-26042	,	-23245	,	-6.874899	,	7
58,50	,	62229	,	-26032	,	-23229	,	3.4686003	,	15
58,50	,	62245	,	-26029	,	-23238	,	14.544303	,	25
58,50	,	62261	,	-26031	,	-23232	,	24.93267	,	36
58,50	,	62293	,	-26015	,	-23231	,	33.38353	,	46
58,50	,	62310	,	-26012	,	-23237	,	39.210133	,	54
58,50	,	62325	,	-26044	,	-23243	,	42.126152	,	59
58,50	,	62357	,	-26044	,	-23243	,	41.82058	,	61
58,50	,	62373	,	-26053	,	-23250	,	38.191315	,	59
58,50	,	62405	,	-26054	,	-23238	,	31.740282	,	54
58,50	,	62421	,	-26053	,	-23252	,	23.461264	,	46
58,50	,	62437	,	-26042	,	-23241	,	14.606852	,	36
58,50	,	62469	,	-26045	,	-23241	,	6.4420843	,	25
58,50	,	62485	,	-26040	,	-23235	,	-0.09703064	,	15
58,50	,	62501	,	-26047	,	-23240	,	-4.5974164	,	7
58,50	,	62533	,	-26057	,	-23247	,	-7.1815944	,	2
58,50	,	62549	,	-26059	,	-23244	,	-8.368343	,	0
58,50	,	62581	,	-26069	,	-23250	,	-8.779428	,	0
58,50	,	62597	,	-26065	,	-23244	,	-8.901671	,	0
58,51	,	62613	,	-26056	,	-23261	,	-8.919458	,	0
58,51	,	62645	,	-26075	,	-23244	,	-8.776083	,	0
58,51	,	62661	,	-26091	,	-23259	,	-8.603479	,	0
58,51	,	62677	,	-26090	,	-23251	,	-8.808258	,	0
58,51	,	62709	,	-26106	,	-23271	,	-9.67285	,	0
58,51	,	62725	,	-26114	,	-23277	,	-11.2448635	,	0
58,51	,	62741	,	-26108	,	-23275	,	-13.387181	,	0
58,51	,	62773	,	-26111	,	-23272	,	-15.680112	,	0
58,51	,	62789	,	-26125	,	-23276	,	-17.632044	,	0
58,51	,	62821	,	-26137	,	-23280	,	-19.080727	,	0
58,51	,	62837	,	-26147	,	-23276	,	-20.205114	,	0
58,51	,	62853	,	-26133	,	-23295	,	-21.142422	,	0
58,51	,	62885	,	-26159	,	-23270	,	-21.793903	,	0
58,51	,	62901	,	-26167	,	-23286	,	-22.159168	,	0
58,51	,	62917	,	-26173	,	-23294	,	-22.479828	,	0
58,51	,	62949	,	-26184	,	-23295	,	-22.937279	,	0
58,51	,	62965	,	-26176	,	-23300	,	-23.488037	,	0
58,51	,	62997	,	-26182	,	-23290	,	-23.868998	,	0
58,51	,	63013	,	-26142	,	-23276	,	-23.56657	,	0
58,51	,	63029	,	-26112	,	-23269	,	-21.706177	,	0
58,51	,	63061	,	-26097	,	-23264	,	-17.324093	,	1
58,51	,	63077	,	-26095	,	-23260	,	-10.145635	,	5
58,51	,	63093	,	-26098	,	-23265	,	-0.971159	,	12
58,51	,	63125	,	-26091	,	-23240	,	8.730114	,	21
58,51	,	63141	,	-26093	,	-23252	,	17.50077	,	30
58,51	,	63157	,	-26091	,	-23249	,	24.282415	,	38
58,51	,	63189	,	-26104	,	-23255	,	28.436518	,	44
58,51	,	63205	,	-26118	,	-23259	,	29.616676	,	48
58,51	,	63237	,	-26128	,	-23259	,	27.712933	,	49
58,51	,	63253	,	-26128	,	-23259	,	23.006058	,	48
58,51	,	63269	,	-26110	,	-23252	,	16.383322	,	44
58,51	,	63301	,	-26108	,	-23244	,	9.247833	,	37
58,51	,	63317	,	-26113	,	-23248	,	2.9348202	,	28
58,51	,	63333	,	-26122	,	-23257	,	-1.8764467	,	19
58,51	,	63365	,	-26121	,	-23231	,	-5.1652503	,	11
58,51	,	63381	,	-26145	,	-23246	,	-7.2819614	,	5
58,51	,	63413	,	-26142	,	-23257	,	-8.769237	,	1
58,51	,	63429	,	-26149	,	-23250	,	-10.085809	,	0
58,51	,	63445	,	-26157	,	-23263	,	-11.413732	,	0
58,51	,	63476	,	-26183	,	-23273	,	-12.886156	,	0
58,51	,	63493	,	-26198	,	-23280	,	-14.822046	,	0
58,51	,	63509	,	-26195	,	-23273	,	-17.475391	,	0
58,51	,	63541	,	-26204	,	-23279	,	-20.649921	,	0
58,51	,	63557	,	-26223	,	-23295	,	-23.887074	,	0
58,51	,	63573	,	-26231	,	-23316	,	-26.903908	,	0
58,51	,	63605	,	-26236	,	-23285	,	-29.569082	,	0
58,52	,	63621	,	-26256	,	-23315	,	-31.755276	,	0
58,52	,	63653	,	-26268	,	-23317	,	-33.46321	,	0
58,52	,	63669	,	-26276	,	-23320	,	-34.823807	,	0
58,52	,	63685	,	-26289	,	-23333	,	-35.91445	,	0
58,52	,	63717	,	-26295	,	-23329	,	-36.72119	,	0
58,52	,	63732	,	-26307	,	-23339	,	-37.19599	,	0
58,52	,	63748	,	-26316	,	-23343	,	-37.31523	,	0
58,52	,	63781	,	-26329	,	-23340	,	-37.12729	,	0
58,52	,	63797	,	-26334	,	-23350	,	-36.717216	,	0
58,52	,	63829	,	-26346	,	-23364	,	-36.142357	,	0
58,52	,	63845	,	-26344	,	-23341	,	-35.395004	,	0
58,52	,	63861	,	-26286	,	-23331	,	-34.066338	,	0
58,52	,	63892	,	-26258	,	-23317	,	-30.975744	,	1
58,52	,	63909	,	-26251	,	-23315	,	-24.870785	,	4
58,52	,	63925	,	-26238	,	-23314	,	-15.580521	,	10
58,52	,	63956	,	-26239	,	-23312	,	-4.1235256	,	19
58,52	,	63973	,	-26239	,	-23308	,	7.872592	,	30
58,52	,	63989	,	-26234	,	-23308	,	18.735022	,	41
58,52	,	64021	,	-26242	,	-23314	,	27.175402	,	51
58,52	,	64037	,	-26242	,	-23312	,	32.42451	,	59
58,52	,	64068	,	-26242	,	-23326	,	34.254524	,	64
58,52	,	64084	,	-26262	,	-23307	,	32.89924	,	64
58,52	,	64100	,	-26269	,	-23318	,	28.774124	,	61
58,52	,	64132	,	-26267	,	-23313	,	22.448624	,	55
58,52	,	64149	,	-26257	,	-23316	,	14.87369	,	46
58,52	,	64165	,	-26256	,	-23324	,	7.28885	,	35
58,52	,	64197	,	-26254	,	-23324	,	0.79368305	,	24
58,52	,	64213	,	-26269	,	-23336	,	-4.03222	,	14
58,52	,	64244	,	-26271	,	-23322	,	-7.2206545	,	6
58,52	,	64260	,	-26260	,	-23327	,	-9.07912	,	1
58,52	,	64276	,	-26262	,	-23334	,	-9.792557	,	0
58,52	,	64308	,	-26269	,	-23333	,	-9.502997	,	0
58,52	,	64324	,	-26275	,	-23330	,	-8.5542	,	0
58,52	,	64341	,	-26281	,	-23333	,	-7.433795	,	0
58,52	,	64373	,	-26291	,	-23329	,	-6.601339	,	1
58,52	,	64389	,	-26300	,	-23337	,	-6.4140863	,	1
58,52	,	64420	,	-26303	,	-23334	,	-7.0540895	,	1
58,52	,	64436	,	-26316	,	-23346	,	-8.486112	,	1
58,52	,	64452	,	-26322	,	-23344	,	-10.558513	,	1
58,52	,	64484	,	-26327	,	-23352	,	-13.063131	,	1
58,52	,	64500	,	-26328	,	-23345	,	-15.681826	,	1
58,52	,	64516	,	-26325	,	-23355	,	-17.98314	,	1
58,52	,	64549	,	-26351	,	-23355	,	-19.635368	,	1
58,52	,	64564	,	-26346	,	-23348	,	-20.655851	,	0
58,52	,	64580	,	-26353	,	-23360	,	-21.227676	,	0
58,53	,	64612	,	-26352	,	-23362	,	-21.400898	,	0
58,53	,	64628	,	-26369	,	-23361	,	-21.187906	,	0
58,53	,	64660	,	-26360	,	-23368	,	-20.68599	,	0
58,53	,	64676	,	-26372	,	-23370	,	-19.969048	,	0
58,53	,	64692	,	-26376	,	-23370	,	-19.090376	,	0
58,53	,	64724	,	-26364	,	-23362	,	-18.093468	,	0
58,53	,	64740	,	-26323	,	-23350	,	-16.65168	,	0
58,53	,	64757	,	-26292	,	-23330	,	-13.835899	,	1
58,53	,	64789	,	-26274	,	-23326	,	-8.645117	,	3
58,53	,	64804	,	-26277	,	-23321	,	-0.8823862	,	8
58,53	,	64836	,	-26260	,	-23318	,	8.600974	,	15
58,53	,	64852	,	-26260	,	-23318	,	18.454166	,	24
58,53	,	64868	,	-26260	,	-23314	,	27.345148	,	33
58,53	,	64900	,	-26249	,	-23321	,	34.209553	,	41
58,53	,	64916	,	-26254	,	-23314	,	38.466484	,	47
58,53	,	64932	,	-26260	,	-23315	,	39.9464	,	51
58,53	,	64964	,	-26262	,	-23309	,	38.694794	,	51
58,53	,	64980	,	-26278	,	-23314	,	34.952454	,	49
58,53	,	64996	,	-26269	,	-23333	,	29.180182	,	44
58,53	,	65028	,	-26262	,	-23301	,	22.16951	,	37
58,53	,	65044	,	-26256	,	-23308	,	15.013876	,	28
58,53	,	65076	,	-26242	,	-23305	,	8.795874	,	19
58,53	,	65092	,	-26257	,	-23313	,	4.2419043	,	11
58,53	,	65108	,	-26259	,	-23311	,	1.4462337	,	5
58,53	,	65140	,	-26252	,	-23312	,	0.014197826	,	1
58,53	,	65156	,	-26266	,	-23306	,	-0.5268345	,	0
58,53	,	65172	,	-26257	,	-23318	,	-0.6093959	,	0
58,53	,	65204	,	-26260	,	-23315	,	-0.5487209	,	0
58,53	,	65220	,	-26271	,	-23322	,	-0.51665044	,	0
58,53	,	65252	,	-26283	,	-23329	,	-0.76122177	,	0
58,53	,	65268	,	-26293	,	-23313	,	-1.6399462	,	0
58,53	,	65284	,	-26291	,	-23331	,	-3.3537805	,	0
58,53	,	65316	,	-26301	,	-23326	,	-5.772119	,	0
58,53	,	65332	,	-26305	,	-23329	,	-8.567351	,	0
58,53	,	65348	,	-26315	,	-23339	,	-11.430823	,	0
58,53	,	65380	,	-26324	,	-23333	,	-14.163883	,	0
58,53	,	65396	,	-26332	,	-23334	,	-16.683641	,	0
58,53	,	65412	,	-26341	,	-23334	,	-18.960869	,	0
58,53	,	65444	,	-26341	,	-23333	,	-20.929346	,	0
58,53	,	65460	,	-26335	,	-23332	,	-22.385998	,	0
58,53	,	65492	,	-26342	,	-23348	,	-23.029705	,	0
58,53	,	65508	,	-26355	,	-23326	,	-22.760483	,	0
58,53	,	65524	,	-26372	,	-23352	,	-21.90165	,	0
58,53	,	65556	,	-26377	,	-23350	,	-21.019999	,	0
58,53	,	65572	,	-26382	,	-23350	,	-20.533173	,	0
58,53	,	65588	,	-26367	,	-23349	,	-20.421608	,	0
58,54	,	65620	,	-26326	,	-23331	,	-20.029758	,	0
58,54	,	65636	,	-26308	,	-23315	,	-18.171932	,	0
58,54	,	65668	,	-26297	,	-23308	,	-13.869035	,	1
58,54	,	65684	,	-26276	,	-23308	,	-6.9790707	,	5
58,54	,	65700	,	-26260	,	-23304	,	1.9510508	,	11
58,54	,	65732	,	-26268	,	-23323	,	11.952629	,	19
58,54	,	65748	,	-26262	,	-23291	,	21.693985	,	29
58,54	,	65764	,	-26251	,	-23305	,	29.875612	,	38
58,54	,	65796	,	-26239	,	-23302	,	35.77742	,	46
58,54	,	65812	,	-26251	,	-23302	,	39.228836	,	51
58,54	,	65828	,	-26267	,	-23310	,	40.12149	,	54
58,54	,	65860	,	-26277	,	-23319	,	38.240597	,	53
58,54	,	65876	,	-26276	,	-23314	,	33.617744	,	49
58,54	,	65908	,	-26255	,	-23309	,	26.932884	,	43
58,54	,	65924	,	-26245	,	-23306	,	19.525644	,	35
58,54	,	65940	,	-26236	,	-23299	,	12.888125	,	25
58,54	,	65972	,	-26246	,	-23309	,	7.990096	,	16
58,54	,	65988	,	-26253	,	-23292	,	4.953369	,	8
58,54	,	66004	,	-26255	,	-23295	,	3.2813797	,	3
58,54	,	66036	,	-26253	,	-23312	,	2.3775969	,	0
58,54	,	66052	,	-26255	,	-23308	,	1.8439782	,	0
58,54	,	66084	,	-26257	,	-23306	,	1.452394	,	0
58,54	,	66100	,	-26261	,	-23317	,	1.0423968	,	0
58,54	,	66116	,	-26257	,	-23311	,	0.5197471	,	0
58,54	,	66148	,	-26262	,	-23317	,	-0.10542679	,	0
58,54	,	66164	,	-26282	,	-23323	,	-0.87265015	,	0
58,54	,	66180	,	-26285	,	-23313	,	-2.0265808	,	0
58,54	,	66212	,	-26289	,	-23349	,	-3.7828584	,	0
58,54	,	66228	,	-26292	,	-23326	,	-6.0581846	,	0
58,54	,	66244	,	-26299	,	-23327	,	-8.566755	,	0
58,54	,	66276	,	-26303	,	-23354	,	-11.022971	,	0
58,54	,	66292	,	-26314	,	-23358	,	-13.242685	,	0
58,54	,	66324	,	-26318	,	-23354	,	-15.164631	,	0
58,54	,	66340	,	-26319	,	-23360	,	-16.754839	,	0
58,54	,	66356	,	-26331	,	-23358	,	-17.949556	,	0
58,54	,	66388	,	-26333	,	-23361	,	-18.74929	,	0
58,54	,	66404	,	-26326	,	-23315	,	-19.156364	,	0
58,54	,	66420	,	-26307	,	-23348	,	-18.926456	,	0
58,54	,	66452	,	-26276	,	-23346	,	-17.462273	,	0
58,54	,	66468	,	-26248	,	-23315	,	-13.969956	,	1
58,54	,	66499	,	-26229	,	-23313	,	-7.8697224	,	4
58,54	,	66515	,	-26214	,	-23317	,	0.7759876	,	10
58,54	,	66531	,	-26210	,	-23308	,	11.150799	,	18
58,54	,	66564	,	-26205	,	-23307	,	21.908978	,	28
58,54	,	66580	,	-26199	,	-23308	,	31.603718	,	38
58,54	,	66596	,	-26203	,	-23321	,	39.07001	,	47
58,55	,	66628	,	-26208	,	-23313	,	43.53634	,	54
58,55	,	66643	,	-26215	,	-23322	,	44.620968	,	58
58,55	,	66676	,	-26223	,	-23323	,	42.355095	,	58
58,55	,	66692	,	-26225	,	-23335	,	37.171196	,	55
58,55	,	66708	,	-26217	,	-23319	,	29.904118	,	49
58,55	,	66740	,	-26199	,	-23314	,	21.796852	,	41
58,55	,	66756	,	-26191	,	-23305	,	14.291477	,	31
58,55	,	66772	,	-26195	,	-23302	,	8.511763	,	21
58,55	,	66804	,	-26195	,	-23302	,	4.8406315	,	12
58,55	,	66819	,	-26192	,	-23305	,	3.0311437	,	5
58,55	,	66836	,	-26197	,	-23312	,	2.5716498	,	1
58,55	,	66868	,	-26199	,	-23314	,	2.872636	,	0
58,55	,	66884	,	-26193	,	-23318	,	3.4144568	,	0
58,55	,	66915	,	-26207	,	-23313	,	3.850875	,	0
58,55	,	66932	,	-26205	,	-23330	,	3.9126568	,	0
58,55	,	66947	,	-26218	,	-23311	,	3.3718822	,	0
58,55	,	66979	,	-26230	,	-23322	,	2.059546	,	0
58,55	,	66995	,	-26237	,	-23327	,	-0.14799225	,	0
58,55	,	67011	,	-26249	,	-23334	,	-3.2403316	,	0
58,55	,	67044	,	-26248	,	-23326	,	-6.992751	,	0
58,55	,	67060	,	-26250	,	-23332	,	-10.952575	,	0
58,55	,	67091	,	-26261	,	-23337	,	-14.586867	,	0
58,55	,	67108	,	-26259	,	-23338	,	-17.523111	,	0
58,55	,	67123	,	-26269	,	-23342	,	-19.58687	,	0
58,55	,	67155	,	-26277	,	-23347	,	-20.785051	,	0
58,55	,	67171	,	-26283	,	-23354	,	-21.307335	,	0
58,55	,	67188	,	-26281	,	-23330	,	-21.3587	,	0
58,55	,	67220	,	-26220	,	-23316	,	-20.691746	,	0
58,55	,	67236	,	-26181	,	-23309	,	-18.191101	,	0
58,55	,	67252	,	-26166	,	-23297	,	-12.510988	,	2
58,55	,	67283	,	-26148	,	-23295	,	-3.2978706	,	7
58,55	,	67300	,	-26139	,	-23294	,	8.541669	,	16
58,55	,	67331	,	-26142	,	-23281	,	21.34439	,	27
58,55	,	67347	,	-26137	,	-23285	,	33.203934	,	39
58,55	,	67363	,	-26135	,	-23281	,	42.50294	,	50
58,55	,	67395	,	-26126	,	-23288	,	48.32455	,	59
58,55	,	67411	,	-26134	,	-23281	,	50.472504	,	64
58,55	,	67427	,	-26133	,	-23291	,	49.20616	,	66
58,55	,	67459	,	-26145	,	-23295	,	45.014465	,	64
58,55	,	67475	,	-26150	,	-23289	,	38.51191	,	59
58,55	,	67507	,	-26144	,	-23292	,	30.454584	,	50
58,55	,	67523	,	-26136	,	-23288	,	21.83991	,	39
58,55	,	67539	,	-26142	,	-23284	,	13.743574	,	27
58,55	,	67571	,	-26140	,	-23285	,	6.9315786	,	16
58,55	,	67588	,	-26144	,	-23290	,	1.7234612	,	7
58,55	,	67603	,	-26144	,	-23292	,	-1.8844485	,	2
58,56	,	67635	,	-26146	,	-23294	,	-4.0880265	,	0
58,56	,	67651	,	-26154	,	-23287	,	-5.2106256	,	0
58,56	,	67667	,	-26157	,	-23298	,	-5.6702056	,	0
58,56	,	67699	,	-26166	,	-23304	,	-5.8982086	,	0
58,56	,	67715	,	-26171	,	-23307	,	-6.2491455	,	0
58,56	,	67747	,	-26170	,	-23309	,	-6.9105463	,	0
58,56	,	67763	,	-26192	,	-23303	,	-7.923351	,	0
58,56	,	67779	,	-26200	,	-23304	,	-9.386023	,	0
58,56	,	67811	,	-26206	,	-23314	,	-11.422224	,	0
58,56	,	67827	,	-26221	,	-23328	,	-13.981542	,	0
58,56	,	67843	,	-26209	,	-23321	,	-16.809948	,	0
58,56	,	67875	,	-26216	,	-23327	,	-19.432308	,	0
58,56	,	67891	,	-26234	,	-23316	,	-21.3975	,	0
58,56	,	67923	,	-26236	,	-23327	,	-22.641905	,	0
58,56	,	67939	,	-26251	,	-23341	,	-23.376034	,	0
58,56	,	67955	,	-26264	,	-23350	,	-23.87752	,	0
58,56	,	67987	,	-26254	,	-23339	,	-24.35074	,	0
58,56	,	68003	,	-26216	,	-23322	,	-24.481821	,	0
58,56	,	68019	,	-26183	,	-23308	,	-23.197845	,	0
58,56	,	68051	,	-26164	,	-23296	,	-19.25545	,	1
58,56	,	68067	,	-26153	,	-23288	,	-12.142327	,	4
58,56	,	68099	,	-26136	,	-23292	,	-2.36403	,	11
58,56	,	68115	,	-26133	,	-23297	,	8.899953	,	20
58,56	,	68131	,	-26132	,	-23276	,	20.167412	,	31
58,56	,	68163	,	-26114	,	-23284	,	30.029839	,	42
58,56	,	68179	,	-26120	,	-23281	,	37.54294	,	51
58,56	,	68195	,	-26127	,	-23280	,	42.172752	,	58
58,56	,	68227	,	-26130	,	-23287	,	43.593567	,	62
58,56	,	68243	,	-26142	,	-23287	,	41.77572	,	62
58,56	,	68259	,	-26128	,	-23284	,	37.1293	,	59
58,56	,	68291	,	-26131	,	-23284	,	30.541828	,	52
58,56	,	68307	,	-26129	,	-23286	,	23.138338	,	43
58,56	,	68339	,	-26122	,	-23279	,	15.936758	,	32
58,56	,	68355	,	-26125	,	-23302	,	9.712662	,	21
58,56	,	68371	,	-26120	,	-23267	,	4.9184227	,	12
58,56	,	68403	,	-26129	,	-23290	,	1.6426072	,	5
58,56	,	68419	,	-26142	,	-23289	,	-0.39464808	,	1
58,56	,	68435	,	-26135	,	-23285	,	-1.7079754	,	0
58,56	,	68467	,	-26140	,	-23303	,	-2.6861224	,	0
58,56	,	68483	,	-26147	,	-23297	,	-3.5015695	,	0
58,56	,	68515	,	-26155	,	-23297	,	-4.3237205	,	0
58,56	,	68531	,	-26163	,	-23299	,	-5.3617573	,	0
58,56	,	68547	,	-26164	,	-23306	,	-6.7353926	,	0
58,56	,	68579	,	-26175	,	-23305	,	-8.412213	,	0
58,56	,	68595	,	-26170	,	-23325	,	-10.244086	,	0
58,56	,	68611	,	-26181	,	-23299	,	-12.00699	,	0
58,57	,	68643	,	-26201	,	-23326	,	-13.589853	,	0
58,57	,	68659	,	-26204	,	-23328	,	-15.150656	,	0
58,57	,	68675	,	-26217	,	-23323	,	-16.889645	,	0
58,57	,	68707	,	-26216	,	-23331	,	-18.807304	,	0
58,57	,	68723	,	-26222	,	-23324	,	-20.693695	,	0
58,57	,	68755	,	-26231	,	-23336	,	-22.270351	,	0
58,57	,	68771	,	-26231	,	-23331	,	-23.359272	,	0
58,57	,	68787	,	-26214	,	-23323	,	-23.765606	,	0
58,57	,	68819	,	-26175	,	-23303	,	-22.94207	,	0
58,57	,	68835	,	-26151	,	-23313	,	-19.964687	,	0
58,57	,	68851	,	-26137	,	-23288	,	-14.114923	,	2
58,57	,	68883	,	-26128	,	-23282	,	-5.5186815	,	7
58,57	,	68899	,	-26133	,	-23286	,	4.7812023	,	15
58,57	,	68931	,	-26132	,	-23292	,	15.192476	,	25
58,57	,	68947	,	-26126	,	-23285	,	24.153185	,	35
58,57	,	68963	,	-26134	,	-23295	,	30.594252	,	43
58,57	,	68995	,	-26141	,	-23293	,	33.956905	,	49
58,57	,	69011	,	-26159	,	-23298	,	34.01972	,	52
58,57	,	69027	,	-26150	,	-23300	,	30.918552	,	52
58,57	,	69059	,	-26161	,	-23311	,	25.285316	,	50
58,57	,	69075	,	-26144	,	-23309	,	18.181679	,	45
58,57	,	69091	,	-26151	,	-23294	,	10.830626	,	37
58,57	,	69123	,	-26146	,	-23298	,	4.281204	,	27
58,57	,	69139	,	-26155	,	-23301	,	-0.8609934	,	17
58,57	,	69171	,	-26153	,	-23299	,	-4.4469466	,	9
58,57	,	69187	,	-26166	,	-23310	,	-6.656137	,	3
58,57	,	69203	,	-26172	,	-23305	,	-7.9039598	,	0
58,57	,	69235	,	-26158	,	-23301	,	-8.605366	,	0
58,57	,	69251	,	-26176	,	-23302	,	-8.941687	,	0
58,57	,	69267	,	-26185	,	-23293	,	-9.079647	,	0
58,57	,	69299	,	-26186	,	-23312	,	-9.332027	,	0
58,57	,	69315	,	-26194	,	-23320	,	-9.901594	,	0
58,57	,	69347	,	-26205	,	-23311	,	-10.8239	,	0
58,57	,	69363	,	-26218	,	-23332	,	-12.145686	,	0
58,57	,	69379	,	-26223	,	-23332	,	-13.9191265	,	0
58,57	,	69411	,	-26234	,	-23338	,	-16.082176	,	0
58,57	,	69427	,	-26243	,	-23337	,	-18.477375	,	0
58,57	,	69442	,	-26255	,	-23336	,	-20.950533	,	0
58,57	,	69474	,	-26250	,	-23342	,	-23.311516	,	0
58,57	,	69491	,	-26278	,	-23352	,	-25.340576	,	0
58,57	,	69523	,	-26268	,	-23345	,	-26.940716	,	0
58,57	,	69538	,	-26267	,	-23350	,	-27.991695	,	0
58,57	,	69555	,	-26237	,	-23323	,	-28.038334	,	0
58,57	,	69587	,	-26201	,	-23321	,	-26.23938	,	0
58,57	,	69603	,	-26170	,	-23307	,	-21.60961	,	1
58,58	,	69619	,	-26171	,	-23314	,	-13.677387	,	5
58,58	,	69651	,	-26173	,	-23319	,	-3.1321745	,	12
58,58	,	69666	,	-26175	,	-23311	,	8.335977	,	22
58,58	,	69682	,	-26163	,	-23324	,	18.88971	,	33
58,58	,	69715	,	-26179	,	-23312	,	27.17363	,	43
58,58	,	69731	,	-26169	,	-23326	,	32.385033	,	51
58,58	,	69763	,	-26179	,	-23319	,	34.269844	,	56
58,58	,	69779	,	-26196	,	-23325	,	33.00201	,	57
58,58	,	69795	,	-26209	,	-23320	,	28.878975	,	56
58,58	,	69826	,	-26217	,	-23317	,	22.315117	,	52
58,58	,	69842	,	-26190	,	-23318	,	14.165752	,	45
58,58	,	69858	,	-26198	,	-23321	,	5.82191	,	35
58,58	,	69890	,	-26191	,	-23314	,	-1.3313789	,	24
58,58	,	69906	,	-26202	,	-23322	,	-6.525516	,	14
58,58	,	69938	,	-26207	,	-23318	,	-9.694828	,	6
58,58	,	69955	,	-26206	,	-23323	,	-11.205199	,	1
58,58	,	69971	,	-26210	,	-23324	,	-11.51292	,	0
58,58	,	70002	,	-26226	,	-23343	,	-11.0943985	,	0
58,58	,	70019	,	-26218	,	-23349	,	-10.461906	,	0
58,58	,	70034	,	-26228	,	-23325	,	-9.956432	,	0
58,58	,	70066	,	-26235	,	-23344	,	-9.720182	,	0
58,58	,	70082	,	-26248	,	-23342	,	-9.894415	,	0
58,58	,	70098	,	-26250	,	-23344	,	-10.6172905	,	0
58,58	,	70131	,	-26251	,	-23345	,	-11.841377	,	0
58,58	,	70147	,	-26264	,	-23352	,	-13.331926	,	0
58,58	,	70178	,	-26268	,	-23362	,	-14.888349	,	0
58,58	,	70194	,	-26275	,	-23359	,	-16.412294	,	0
58,58	,	70210	,	-26276	,	-23363	,	-17.791449	,	0
58,58	,	70242	,	-26289	,	-23352	,	-18.904198	,	0
58,58	,	70258	,	-26289	,	-23365	,	-19.708614	,	0
58,58	,	70274	,	-26298	,	-23345	,	-20.214758	,	0
58,58	,	70306	,	-26307	,	-23365	,	-20.46225	,	0
58,58	,	70322	,	-26277	,	-23357	,	-20.395752	,	0
58,58	,	70354	,	-26251	,	-23338	,	-19.490154	,	0
58,58	,	70370	,	-26222	,	-23339	,	-16.78377	,	0
58,58	,	70386	,	-26217	,	-23329	,	-11.561584	,	2
58,58	,	70418	,	-26211	,	-23291	,	-3.9684467	,	7
58,58	,	70434	,	-26216	,	-23324	,	4.9690256	,	14
58,58	,	70450	,	-26206	,	-23319	,	13.839994	,	22
58,58	,	70482	,	-26191	,	-23318	,	21.501352	,	30
58,58	,	70498	,	-26198	,	-23335	,	27.353119	,	37
58,58	,	70514	,	-26189	,	-23305	,	31.127743	,	42
58,58	,	70546	,	-26202	,	-23327	,	32.701595	,	45
58,58	,	70562	,	-26203	,	-23329	,	32.062252	,	46
58,58	,	70594	,	-26206	,	-23324	,	29.360111	,	44
58,58	,	70610	,	-26203	,	-23329	,	25.020304	,	39
58,59	,	70626	,	-26197	,	-23322	,	19.730738	,	32
58,59	,	70658	,	-26190	,	-23325	,	14.324009	,	24
58,59	,	70674	,	-26194	,	-23319	,	9.554689	,	16
58,59	,	70690	,	-26186	,	-23327	,	5.871521	,	9
58,59	,	70722	,	-26192	,	-23332	,	3.3953857	,	4
58,59	,	70738	,	-26184	,	-23335	,	2.0213785	,	1
58,59	,	70770	,	-26196	,	-23309	,	1.5012813	,	0
58,59	,	70786	,	-26223	,	-23330	,	1.3357428	,	0
58,59	,	70802	,	-26216	,	-23322	,	0.790816	,	0
58,59	,	70834	,	-26226	,	-23330	,	-0.6128336	,	0
58,59	,	70850	,	-26219	,	-23344	,	-2.806198	,	0
58,59	,	70866	,	-26245	,	-23338	,	-5.4696054	,	0
58,59	,	70898	,	-26245	,	-23337	,	-8.405543	,	0
58,59	,	70914	,	-26252	,	-23345	,	-11.503439	,	0
58,59	,	70930	,	-26254	,	-23343	,	-14.527107	,	0
58,59	,	70962	,	-26255	,	-23346	,	-17.14002	,	0
58,59	,	70978	,	-26264	,	-23368	,	-19.059404	,	0
58,59	,	71010	,	-26262	,	-23340	,	-20.156773	,	0
58,59	,	71026	,	-26283	,	-23351	,	-20.502686	,	0
58,59	,	71042	,	-26285	,	-23356	,	-20.385853	,	0
58,59	,	71074	,	-26289	,	-23357	,	-20.138605	,	0
58,59	,	71090	,	-26295	,	-23362	,	-19.907171	,	0
58,59	,	71106	,	-26297	,	-23367	,	-19.684578	,	0
58,59	,	71138	,	-26303	,	-23361	,	-19.417221	,	0
58,59	,	71154	,	-26293	,	-23352	,	-18.99282	,	0
58,59	,	71186	,	-26264	,	-23339	,	-18.049423	,	0
58,59	,	71202	,	-26222	,	-23328	,	-15.764102	,	0
58,59	,	71218	,	-26211	,	-23338	,	-11.155138	,	2
58,59	,	71250	,	-26204	,	-23303	,	-3.893652	,	6
58,59	,	71266	,	-26180	,	-23308	,	5.3933496	,	13
58,59	,	71282	,	-26182	,	-23316	,	15.593334	,	22
58,59	,	71314	,	-26165	,	-23310	,	25.504383	,	32
58,59	,	71330	,	-26162	,	-23311	,	34.057983	,	41
58,59	,	71346	,	-26163	,	-23304	,	40.47693	,	49
58,59	,	71378	,	-26179	,	-23308	,	44.175194	,	55
58,59	,	71394	,	-26178	,	-23306	,	44.72248	,	58
58,59	,	71426	,	-26189	,	-23312	,	42.053688	,	56
58,59	,	71442	,	-26178	,	-23320	,	36.633076	,	52
58,59	,	71458	,	-26174	,	-23324	,	29.437222	,	45
58,59	,	71490	,	-26170	,	-23304	,	21.707201	,	36
58,59	,	71506	,	-26167	,	-23305	,	14.548103	,	26
58,59	,	71522	,	-26169	,	-23309	,	8.670407	,	17
58,59	,	71554	,	-26168	,	-23309	,	4.351678	,	9
58,59	,	71570	,	-26169	,	-23310	,	1.533484	,	3
58,59	,	71602	,	-26168	,	-23308	,	-0.032143116	,	0
59,0	,	71618	,	-26182	,	-23307	,	-0.72334576	,	0
59,0	,	71634	,	-26181	,	-23308	,	-1.0248134	,	0
59,0	,	71666	,	-26185	,	-23309	,	-1.3558007	,	0
59,0	,	71682	,	-26189	,	-23315	,	-1.9238476	,	0
59,0	,	71698	,	-26193	,	-23321	,	-2.785541	,	0
59,0	,	71730	,	-26215	,	-23297	,	-4.006321	,	0
59,0	,	71746	,	-26212	,	-23323	,	-5.7246366	,	0
59,0	,	71778	,	-26221	,	-23321	,	-7.9601717	,	0
59,0	,	71794	,	-26226	,	-23322	,	-10.511192	,	0
59,0	,	71810	,	-26230	,	-23327	,	-13.105135	,	0
59,0	,	71842	,	-26234	,	-23332	,	-15.474754	,	0
59,0	,	71858	,	-26245	,	-23328	,	-17.412079	,	0
59,0	,	71874	,	-26253	,	-23328	,	-18.876392	,	0
59,0	,	71906	,	-26257	,	-23338	,	-19.954323	,	0
59,0	,	71922	,	-26257	,	-23349	,	-20.6865	,	0
59,0	,	71938	,	-26264	,	-23344	,	-21.016935	,	0
59,0	,	71970	,	-26273	,	-23338	,	-20.94114	,	0
59,0	,	71986	,	-26274	,	-23346	,	-20.575596	,	0
59,0	,	72017	,	-26243	,	-23335	,	-19.85876	,	0
59,0	,	72034	,	-26211	,	-23315	,	-18.160454	,	0
59,0	,	72050	,	-26187	,	-23306	,	-14.4778595	,	1
59,0	,	72082	,	-26155	,	-23289	,	-8.084066	,	4
59,0	,	72098	,	-26146	,	-23302	,	1.049716	,	10
59,0	,	72114	,	-26146	,	-23296	,	12.091139	,	19
59,0	,	72146	,	-26140	,	-23294	,	23.49648	,	30
59,0	,	72162	,	-26137	,	-23294	,	33.604633	,	41
59,0	,	72193	,	-26134	,	-23283	,	41.181545	,	51
59,0	,	72209	,	-26131	,	-23297	,	45.593117	,	58
59,0	,	72225	,	-26135	,	-23300	,	46.734844	,	62
59,0	,	72258	,	-26145	,	-23295	,	44.82663	,	62
59,0	,	72274	,	-26148	,	-23299	,	40.264473	,	59
59,0	,	72290	,	-26133	,	-23297	,	33.72832	,	53
59,0	,	72322	,	-26134	,	-23292	,	26.264078	,	44
59,0	,	72338	,	-26126	,	-23290	,	18.98893	,	33
59,0	,	72353	,	-26118	,	-23295	,	12.778738	,	22
59,0	,	72385	,	-26129	,	-23296	,	8.129947	,	12
59,0	,	72401	,	-26127	,	-23290	,	5.0371313	,	5
59,0	,	72433	,	-26132	,	-23281	,	3.1298928	,	1
59,0	,	72450	,	-26130	,	-23287	,	1.9883082	,	0
59,0	,	72466	,	-26148	,	-23289	,	1.2157373	,	0
59,0	,	72497	,	-26148	,	-23289	,	0.37959468	,	0
59,0	,	72513	,	-26152	,	-23295	,	-0.83667046	,	0
59,0	,	72529	,	-26165	,	-23294	,	-2.5151825	,	0
59,0	,	72562	,	-26174	,	-23293	,	-4.671119	,	0
59,0	,	72578	,	-26176	,	-23292	,	-7.2912307	,	0
59,0	,	72609	,	-26179	,	-23306	,	-10.1768055	,	0
59,1	,	72625	,	-26183	,	-23319	,	-12.967697	,	0
59,1	,	72641	,	-26200	,	-23328	,	-15.382658	,	0
59,1	,	72673	,	-26208	,	-23311	,	-17.408854	,	0
59,1	,	72690	,	-26211	,	-23322	,	-19.176132	,	0
59,1	,	72706	,	-26224	,	-23331	,	-20.7397	,	0
59,1	,	72737	,	-26229	,	-23337	,	-22.097805	,	0
59,1	,	72753	,	-26242	,	-23334	,	-23.26844	,	0
59,1	,	72785	,	-26243	,	-23331	,	-24.268333	,	0
59,1	,	72801	,	-26243	,	-23344	,	-25.016691	,	0
59,1	,	72817	,	-26220	,	-23339	,	-25.177265	,	0
59,1	,	72850	,	-26185	,	-23321	,	-24.019009	,	0
59,1	,	72866	,	-26161	,	-23314	,	-20.565437	,	1
59,1	,	72881	,	-26161	,	-23317	,	-14.250715	,	4
59,1	,	72913	,	-26144	,	-23296	,	-5.4641	,	10
59,1	,	72929	,	-26139	,	-23308	,	4.689892	,	18
59,1	,	72945	,	-26130	,	-23294	,	14.932459	,	28
59,1	,	72977	,	-26136	,	-23295	,	24.06376	,	38
59,1	,	72993	,	-26131	,	-23297	,	31.07937	,	47
59,1	,	73025	,	-26139	,	-23295	,	35.32277	,	54
59,1	,	73042	,	-26148	,	-23315	,	36.514114	,	58
59,1	,	73057	,	-26152	,	-23312	,	34.68857	,	58
59,1	,	73089	,	-26171	,	-23312	,	30.164799	,	55
59,1	,	73105	,	-26150	,	-23306	,	23.574368	,	49
59,1	,	73121	,	-26156	,	-23319	,	15.954786	,	41
59,1	,	73154	,	-26147	,	-23288	,	8.533624	,	31
59,1	,	73169	,	-26146	,	-23313	,	2.299696	,	21
59,1	,	73201	,	-26150	,	-23311	,	-2.1993842	,	12
59,1	,	73217	,	-26164	,	-23313	,	-4.958624	,	5
59,1	,	73233	,	-26149	,	-23313	,	-6.3696527	,	1
59,1	,	73265	,	-26170	,	-23306	,	-6.8633	,	0
59,1	,	73282	,	-26157	,	-23318	,	-6.8163757	,	0
59,1	,	73298	,	-26158	,	-23319	,	-6.4848347	,	0
59,1	,	73329	,	-26163	,	-23319	,	-5.9389277	,	0
59,1	,	73345	,	-26166	,	-23318	,	-5.265626	,	0
59,1	,	73361	,	-26178	,	-23333	,	-4.6880007	,	0
59,1	,	73393	,	-26188	,	-23305	,	-4.5205235	,	0
59,1	,	73409	,	-26202	,	-23323	,	-5.1006184	,	0
59,1	,	73441	,	-26203	,	-23322	,	-6.6250443	,	0
59,1	,	73457	,	-26217	,	-23333	,	-9.020247	,	0
59,1	,	73473	,	-26215	,	-23340	,	-11.989449	,	0
59,1	,	73505	,	-26223	,	-23342	,	-15.105703	,	0
59,1	,	73521	,	-26233	,	-23341	,	-17.953054	,	0
59,1	,	73537	,	-26247	,	-23341	,	-20.343569	,	0
59,1	,	73585	,	-26252	,	-23347	,	-23.902735	,	0
59,2	,	73617	,	-26239	,	-23355	,	-24.887665	,	0
59,2	,	73633	,	-26207	,	-23309	,	-24.711775	,	0
59,2	,	73649	,	-26146	,	-23318	,	-22.334417	,	0
59,2	,	73681	,	-26145	,	-23306	,	-16.592402	,	2
59,2	,	73697	,	-26134	,	-23303	,	-7.249915	,	7
59,2	,	73713	,	-26126	,	-23301	,	4.5675535	,	16
59,2	,	73745	,	-26127	,	-23301	,	17.040981	,	27
59,2	,	73761	,	-26127	,	-23301	,	28.334923	,	39
59,2	,	73777	,	-26111	,	-23297	,	37.049118	,	50
59,2	,	73809	,	-26102	,	-23294	,	42.594357	,	58
59,2	,	73825	,	-26110	,	-23302	,	45.058933	,	63
59,2	,	73857	,	-26128	,	-23316	,	44.644974	,	65
59,2	,	73873	,	-26122	,	-23307	,	41.476578	,	63
59,2	,	73889	,	-26139	,	-23305	,	35.879517	,	58
59,2	,	73921	,	-26140	,	-23311	,	28.451172	,	49
59,2	,	73937	,	-26125	,	-23313	,	20.03198	,	38
59,2	,	73953	,	-26118	,	-23315	,	11.775797	,	26
59,2	,	73985	,	-26132	,	-23308	,	4.778634	,	15
59,2	,	74001	,	-26131	,	-23310	,	-0.46852875	,	7
59,2	,	74033	,	-26129	,	-23316	,	-4.0087237	,	2
59,2	,	74049	,	-26129	,	-23314	,	-6.030971	,	0
59,2	,	74065	,	-26137	,	-23317	,	-6.8015776	,	0
59,2	,	74097	,	-26152	,	-23324	,	-6.7991166	,	0
59,2	,	74113	,	-26152	,	-23308	,	-6.6443043	,	0
59,2	,	74129	,	-26165	,	-23313	,	-6.828559	,	0
59,2	,	74161	,	-26178	,	-23317	,	-7.6432104	,	0
59,2	,	74177	,	-26181	,	-23327	,	-9.237033	,	0
59,2	,	74193	,	-26181	,	-23327	,	-11.488325	,	0
59,2	,	74225	,	-26197	,	-23336	,	-14.031769	,	0
59,2	,	74241	,	-26201	,	-23335	,	-16.556189	,	0
59,2	,	74273	,	-26216	,	-23344	,	-18.928265	,	0
59,2	,	74289	,	-26219	,	-23330	,	-21.09927	,	0
59,2	,	74305	,	-26220	,	-23346	,	-22.966421	,	0
59,2	,	74337	,	-26226	,	-23357	,	-24.31789	,	0
59,2	,	74353	,	-26240	,	-23345	,	-25.01985	,	0
59,2	,	74369	,	-26245	,	-23352	,	-25.185497	,	0
59,2	,	74401	,	-26262	,	-23352	,	-25.087189	,	0
59,2	,	74417	,	-26249	,	-23342	,	-24.92237	,	0
59,2	,	74449	,	-26217	,	-23340	,	-24.423954	,	0
59,2	,	74465	,	-26182	,	-23324	,	-22.639616	,	0
59,2	,	74481	,	-26144	,	-23313	,	-18.320312	,	1
59,2	,	74513	,	-26155	,	-23313	,	-10.782251	,	5
59,2	,	74529	,	-26140	,	-23309	,	-0.58498	,	12
59,2	,	74545	,	-26122	,	-23308	,	10.829081	,	22
59,2	,	74577	,	-26121	,	-23297	,	22.010742	,	33
59,2	,	74593	,	-26103	,	-23303	,	31.82712	,	44
59,3	,	74625	,	-26109	,	-23310	,	39.46769	,	53
59,3	,	74641	,	-26133	,	-23307	,	44.276627	,	60
59,3	,	74657	,	-26128	,	-23311	,	45.640816	,	64
59,3	,	74689	,	-26140	,	-23321	,	43.36435	,	64
