Data recorded on Mon Jul 24 11-02-27 CAT 2017
Time: 11:2:38
Time		Millis		IR PPG		Red PPG		Filtered		SSF
2,47	,	38578	,	-19633	,	-17225	,	-14.596173	,	2
2,47	,	38594	,	-19650	,	-17228	,	-15.123656	,	2
2,47	,	38626	,	-19648	,	-17229	,	-16.206024	,	2
2,47	,	38642	,	-19642	,	-17216	,	-17.62497	,	2
2,47	,	38658	,	-19617	,	-17208	,	-18.738892	,	2
2,47	,	38690	,	-19596	,	-17193	,	-18.572666	,	2
2,47	,	38706	,	-19559	,	-17196	,	-16.11884	,	1
2,47	,	38738	,	-19540	,	-17162	,	-10.680891	,	2
2,47	,	38754	,	-19530	,	-17167	,	-2.2573233	,	7
2,47	,	38770	,	-19537	,	-17167	,	8.199261	,	15
2,47	,	38802	,	-19522	,	-17171	,	19.064556	,	25
2,47	,	38818	,	-19516	,	-17159	,	28.785872	,	35
2,47	,	38834	,	-19516	,	-17164	,	36.32872	,	44
2,47	,	38866	,	-19500	,	-17155	,	41.176876	,	51
2,47	,	38882	,	-19496	,	-17148	,	43.337143	,	55
2,47	,	38898	,	-19496	,	-17142	,	43.190575	,	57
2,47	,	38930	,	-19493	,	-17152	,	41.184586	,	55
2,47	,	38946	,	-19500	,	-17167	,	37.710594	,	50
2,47	,	38978	,	-19490	,	-17124	,	33.143543	,	42
2,47	,	38994	,	-19484	,	-17108	,	27.98184	,	32
2,47	,	39010	,	-19493	,	-17143	,	22.79949	,	22
2,47	,	39042	,	-19485	,	-17113	,	17.990246	,	13
2,47	,	39058	,	-19477	,	-17107	,	13.816123	,	6
2,47	,	39074	,	-19480	,	-17104	,	10.53389	,	2
2,47	,	39106	,	-19484	,	-17143	,	8.2039995	,	0
2,47	,	39122	,	-19488	,	-17126	,	6.5810847	,	0
2,47	,	39154	,	-19493	,	-17139	,	5.2887135	,	0
2,47	,	39170	,	-19491	,	-17144	,	4.025649	,	0
2,47	,	39186	,	-19492	,	-17120	,	2.6791387	,	0
2,47	,	39218	,	-19501	,	-17117	,	1.2621841	,	0
2,47	,	39234	,	-19505	,	-17150	,	-0.247787	,	0
2,47	,	39250	,	-19513	,	-17144	,	-1.9256049	,	0
2,47	,	39282	,	-19519	,	-17102	,	-3.8270094	,	0
2,47	,	39298	,	-19512	,	-17118	,	-5.89376	,	0
2,47	,	39330	,	-19525	,	-17135	,	-7.90975	,	0
2,47	,	39346	,	-19526	,	-17144	,	-9.677617	,	0
2,47	,	39362	,	-19530	,	-17146	,	-11.124968	,	0
2,47	,	39394	,	-19530	,	-17140	,	-12.197058	,	0
2,47	,	39410	,	-19536	,	-17142	,	-12.8379345	,	0
2,47	,	39426	,	-19538	,	-17159	,	-13.065145	,	0
2,47	,	39458	,	-19529	,	-17125	,	-12.909414	,	0
2,47	,	39474	,	-19550	,	-17149	,	-12.389357	,	0
2,47	,	39490	,	-19552	,	-17111	,	-11.699002	,	0
2,47	,	39522	,	-19547	,	-17154	,	-11.118937	,	0
2,47	,	39538	,	-19576	,	-17160	,	-10.822426	,	0
2,47	,	39570	,	-19577	,	-17155	,	-11.045782	,	0
2,48	,	39586	,	-19587	,	-17137	,	-12.026102	,	0
2,48	,	39602	,	-19590	,	-17168	,	-13.715761	,	0
2,48	,	39634	,	-19585	,	-17163	,	-15.761527	,	0
2,48	,	39650	,	-19584	,	-17171	,	-17.608173	,	0
2,48	,	39666	,	-19579	,	-17179	,	-18.689293	,	0
2,48	,	39698	,	-19579	,	-17160	,	-18.640705	,	0
2,48	,	39714	,	-19517	,	-17132	,	-17.09468	,	0
2,48	,	39746	,	-19482	,	-17126	,	-13.2154	,	1
2,48	,	39762	,	-19486	,	-17135	,	-6.193516	,	4
2,48	,	39778	,	-19484	,	-17129	,	3.589961	,	11
2,48	,	39810	,	-19470	,	-17094	,	14.592089	,	20
2,48	,	39826	,	-19462	,	-17128	,	25.146524	,	31
2,48	,	39842	,	-19447	,	-17120	,	34.09023	,	41
2,48	,	39874	,	-19447	,	-17120	,	40.785744	,	49
2,48	,	39890	,	-19439	,	-17125	,	44.94684	,	55
2,48	,	39906	,	-19438	,	-17122	,	46.537758	,	59
2,48	,	39938	,	-19439	,	-17112	,	45.738842	,	59
2,48	,	39954	,	-19438	,	-17121	,	42.876152	,	56
2,48	,	39986	,	-19429	,	-17117	,	38.435257	,	49
2,48	,	40002	,	-19426	,	-17119	,	33.096405	,	40
2,48	,	40018	,	-19427	,	-17112	,	27.561638	,	29
2,48	,	40050	,	-19415	,	-17114	,	22.377245	,	19
2,48	,	40066	,	-19414	,	-17119	,	17.956524	,	11
2,48	,	40081	,	-19409	,	-17118	,	14.561393	,	5
2,48	,	40113	,	-19417	,	-17122	,	12.187116	,	1
2,48	,	40129	,	-19406	,	-17126	,	10.604439	,	0
2,48	,	40162	,	-19423	,	-17116	,	9.503697	,	0
2,48	,	40178	,	-19424	,	-17117	,	8.503857	,	0
2,48	,	40194	,	-19421	,	-17130	,	7.260893	,	0
2,48	,	40226	,	-19424	,	-17132	,	5.6944427	,	0
2,48	,	40242	,	-19434	,	-17125	,	3.8844893	,	0
2,48	,	40258	,	-19436	,	-17136	,	1.8526459	,	0
2,48	,	40290	,	-19457	,	-17138	,	-0.46987152	,	0
2,48	,	40306	,	-19440	,	-17136	,	-3.1218383	,	0
2,48	,	40322	,	-19468	,	-17141	,	-5.9716716	,	0
2,48	,	40354	,	-19476	,	-17137	,	-8.919201	,	0
2,48	,	40369	,	-19480	,	-17140	,	-12.015706	,	0
2,48	,	40401	,	-19495	,	-17142	,	-15.222888	,	0
2,48	,	40418	,	-19488	,	-17152	,	-18.337494	,	0
2,48	,	40434	,	-19504	,	-17153	,	-21.062769	,	0
2,48	,	40466	,	-19507	,	-17134	,	-23.154938	,	0
2,48	,	40482	,	-19513	,	-17157	,	-24.53862	,	0
2,48	,	40498	,	-19518	,	-17163	,	-25.225313	,	0
2,48	,	40529	,	-19522	,	-17159	,	-25.257698	,	0
2,48	,	40545	,	-19530	,	-17161	,	-24.729641	,	0
2,48	,	40577	,	-19546	,	-17162	,	-23.858856	,	0
2,49	,	40593	,	-19546	,	-17168	,	-22.975248	,	0
2,49	,	40610	,	-19543	,	-17180	,	-22.249905	,	0
2,49	,	40642	,	-19550	,	-17169	,	-21.557484	,	0
2,49	,	40658	,	-19555	,	-17180	,	-20.73067	,	0
2,49	,	40673	,	-19508	,	-17163	,	-19.51595	,	0
2,49	,	40705	,	-19478	,	-17147	,	-17.118855	,	1
2,49	,	40721	,	-19457	,	-17128	,	-12.451296	,	3
2,49	,	40737	,	-19448	,	-17129	,	-5.0502214	,	7
2,49	,	40769	,	-19450	,	-17132	,	4.470293	,	14
2,49	,	40785	,	-19432	,	-17127	,	14.764772	,	23
2,49	,	40818	,	-19425	,	-17121	,	24.476572	,	33
2,49	,	40833	,	-19425	,	-17123	,	32.614826	,	42
2,49	,	40849	,	-19414	,	-17124	,	38.513813	,	50
2,49	,	40882	,	-19412	,	-17115	,	41.873928	,	55
2,49	,	40897	,	-19397	,	-17110	,	42.827377	,	57
2,49	,	40913	,	-19406	,	-17115	,	41.79013	,	55
2,49	,	40945	,	-19402	,	-17105	,	39.183323	,	51
2,49	,	40961	,	-19414	,	-17117	,	35.295067	,	44
2,49	,	40993	,	-19410	,	-17099	,	30.35726	,	35
2,49	,	41009	,	-19406	,	-17088	,	24.717165	,	25
2,49	,	41025	,	-19401	,	-17111	,	18.935076	,	16
2,49	,	41057	,	-19393	,	-17117	,	13.66679	,	8
2,49	,	41073	,	-19401	,	-17098	,	9.412523	,	3
2,49	,	41089	,	-19403	,	-17078	,	6.294962	,	0
2,49	,	41121	,	-19411	,	-17083	,	4.0753956	,	0
2,49	,	41137	,	-19420	,	-17115	,	2.3446608	,	0
2,49	,	41169	,	-19427	,	-17115	,	0.6694269	,	0
2,49	,	41185	,	-19441	,	-17129	,	-1.3098769	,	0
2,49	,	41201	,	-19443	,	-17094	,	-3.8032308	,	0
2,49	,	41233	,	-19450	,	-17135	,	-6.7836895	,	0
2,49	,	41249	,	-19458	,	-17097	,	-10.0141	,	0
2,49	,	41265	,	-19463	,	-17132	,	-13.210608	,	0
2,49	,	41297	,	-19470	,	-17139	,	-16.129723	,	0
2,49	,	41313	,	-19477	,	-17132	,	-18.591778	,	0
2,49	,	41329	,	-19488	,	-17140	,	-20.530142	,	0
2,49	,	41361	,	-19483	,	-17125	,	-21.943422	,	0
2,49	,	41377	,	-19499	,	-17108	,	-22.805582	,	0
2,49	,	41409	,	-19508	,	-17130	,	-23.180676	,	0
2,49	,	41425	,	-19510	,	-17131	,	-23.266914	,	0
2,49	,	41441	,	-19518	,	-17143	,	-23.2016	,	0
2,49	,	41473	,	-19528	,	-17122	,	-23.040821	,	0
2,49	,	41489	,	-19523	,	-17146	,	-22.81926	,	0
2,49	,	41505	,	-19535	,	-17150	,	-22.491827	,	0
2,49	,	41537	,	-19550	,	-17148	,	-22.064526	,	0
2,49	,	41553	,	-19558	,	-17155	,	-21.740803	,	0
2,50	,	41585	,	-19563	,	-17154	,	-21.733671	,	0
2,50	,	41601	,	-19562	,	-17140	,	-22.024101	,	0
2,50	,	41617	,	-19563	,	-17158	,	-22.342926	,	0
2,50	,	41649	,	-19584	,	-17159	,	-22.428162	,	0
2,50	,	41665	,	-19571	,	-17173	,	-22.233076	,	0
2,50	,	41681	,	-19581	,	-17173	,	-21.741413	,	0
2,50	,	41713	,	-19603	,	-17175	,	-20.980686	,	0
2,50	,	41729	,	-19594	,	-17167	,	-20.206673	,	0
2,50	,	41745	,	-19567	,	-17160	,	-19.446262	,	0
2,50	,	41777	,	-19523	,	-17134	,	-17.932186	,	0
2,50	,	41793	,	-19494	,	-17130	,	-14.353478	,	1
2,50	,	41825	,	-19492	,	-17121	,	-7.8173532	,	4
2,50	,	41841	,	-19476	,	-17102	,	1.4048796	,	10
2,50	,	41857	,	-19468	,	-17125	,	12.118285	,	19
2,50	,	41889	,	-19463	,	-17122	,	22.872055	,	29
2,50	,	41905	,	-19457	,	-17122	,	32.33716	,	39
2,50	,	41921	,	-19444	,	-17115	,	39.56345	,	48
2,50	,	41953	,	-19435	,	-17112	,	44.17731	,	55
2,50	,	41969	,	-19430	,	-17110	,	46.29412	,	59
2,50	,	42002	,	-19422	,	-17091	,	46.266037	,	60
2,50	,	42017	,	-19419	,	-17115	,	44.53094	,	57
2,50	,	42033	,	-19424	,	-17111	,	41.50004	,	51
2,50	,	42065	,	-19432	,	-17115	,	37.418674	,	42
2,50	,	42081	,	-19418	,	-17108	,	32.46993	,	32
2,50	,	42097	,	-19414	,	-17116	,	27.069197	,	22
2,50	,	42129	,	-19414	,	-17113	,	21.816383	,	13
2,50	,	42145	,	-19413	,	-17110	,	17.160973	,	6
2,50	,	42161	,	-19413	,	-17104	,	13.287314	,	2
2,50	,	42193	,	-19414	,	-17117	,	10.197265	,	0
2,50	,	42209	,	-19407	,	-17117	,	7.815609	,	0
2,50	,	42241	,	-19415	,	-17121	,	6.0600767	,	0
2,50	,	42257	,	-19417	,	-17121	,	4.7791214	,	0
2,50	,	42273	,	-19426	,	-17113	,	3.698032	,	0
2,50	,	42305	,	-19422	,	-17142	,	2.545426	,	0
2,50	,	42321	,	-19428	,	-17124	,	1.2173026	,	0
2,50	,	42337	,	-19449	,	-17146	,	-0.3396454	,	0
2,50	,	42369	,	-19464	,	-17143	,	-2.383583	,	0
2,50	,	42385	,	-19458	,	-17154	,	-5.174684	,	0
2,50	,	42417	,	-19472	,	-17148	,	-8.585486	,	0
2,50	,	42433	,	-19479	,	-17148	,	-12.238919	,	0
2,50	,	42449	,	-19494	,	-17157	,	-15.847049	,	0
2,50	,	42481	,	-19502	,	-17157	,	-19.27029	,	0
2,50	,	42497	,	-19505	,	-17168	,	-22.393908	,	0
2,50	,	42513	,	-19504	,	-17163	,	-24.980267	,	0
2,50	,	42545	,	-19520	,	-17175	,	-26.75011	,	0
2,50	,	42560	,	-19526	,	-17156	,	-27.652252	,	0
2,50	,	42576	,	-19544	,	-17177	,	-27.923094	,	0
2,51	,	42609	,	-19536	,	-17173	,	-27.85281	,	0
2,51	,	42625	,	-19545	,	-17178	,	-27.522335	,	0
2,51	,	42657	,	-19559	,	-17186	,	-26.900913	,	0
2,51	,	42673	,	-19567	,	-17178	,	-26.130585	,	0
2,51	,	42689	,	-19558	,	-17186	,	-25.381172	,	0
2,51	,	42721	,	-19563	,	-17189	,	-24.547512	,	0
2,51	,	42737	,	-19593	,	-17198	,	-23.52322	,	0
2,51	,	42752	,	-19581	,	-17195	,	-22.535349	,	1
2,51	,	42785	,	-19590	,	-17209	,	-21.792904	,	1
2,51	,	42801	,	-19605	,	-17190	,	-21.27405	,	1
2,51	,	42833	,	-19596	,	-17205	,	-20.941885	,	1
2,51	,	42849	,	-19588	,	-17187	,	-20.610107	,	1
2,51	,	42864	,	-19549	,	-17171	,	-19.659615	,	1
2,51	,	42896	,	-19517	,	-17164	,	-17.055487	,	1
2,51	,	42912	,	-19517	,	-17147	,	-11.899913	,	3
2,51	,	42929	,	-19508	,	-17156	,	-4.226733	,	8
2,51	,	42960	,	-19500	,	-17152	,	4.9794497	,	14
2,51	,	42977	,	-19501	,	-17143	,	14.392164	,	23
2,51	,	43009	,	-19493	,	-17138	,	22.771223	,	32
2,51	,	43025	,	-19474	,	-17153	,	29.299105	,	40
2,51	,	43041	,	-19481	,	-17124	,	33.725185	,	46
2,51	,	43072	,	-19474	,	-17138	,	36.06645	,	50
2,51	,	43088	,	-19462	,	-17136	,	36.46087	,	52
2,51	,	43104	,	-19471	,	-17142	,	35.24579	,	50
2,51	,	43137	,	-19473	,	-17135	,	32.75319	,	45
2,51	,	43153	,	-19484	,	-17140	,	29.139166	,	38
2,51	,	43169	,	-19472	,	-17135	,	24.573032	,	29
2,51	,	43200	,	-19484	,	-17150	,	19.421364	,	20
2,51	,	43216	,	-19485	,	-17132	,	14.10911	,	12
2,51	,	43248	,	-19473	,	-17114	,	9.019274	,	6
2,51	,	43265	,	-19471	,	-17150	,	4.6223516	,	2
2,51	,	43281	,	-19483	,	-17117	,	1.309197	,	0
2,51	,	43313	,	-19488	,	-17134	,	-0.9444485	,	0
2,51	,	43329	,	-19485	,	-17134	,	-2.4552295	,	0
2,51	,	43344	,	-19501	,	-17142	,	-3.5393856	,	0
2,51	,	43376	,	-19511	,	-17113	,	-4.5477915	,	0
2,51	,	43392	,	-19514	,	-17156	,	-5.8580933	,	0
2,51	,	43424	,	-19516	,	-17158	,	-7.6100483	,	0
2,51	,	43440	,	-19539	,	-17155	,	-9.718945	,	0
2,51	,	43456	,	-19535	,	-17141	,	-12.114452	,	0
2,51	,	43488	,	-19514	,	-17160	,	-14.534159	,	0
2,51	,	43504	,	-19544	,	-17168	,	-16.422068	,	0
2,51	,	43520	,	-19528	,	-17146	,	-17.435797	,	0
2,51	,	43552	,	-19560	,	-17163	,	-17.677212	,	0
2,51	,	43568	,	-19568	,	-17163	,	-17.591913	,	0
2,52	,	43584	,	-19565	,	-17164	,	-17.706892	,	0
2,52	,	43617	,	-19575	,	-17133	,	-18.191582	,	0
2,52	,	43632	,	-19585	,	-17164	,	-18.930687	,	0
2,52	,	43664	,	-19589	,	-17135	,	-19.829079	,	0
2,52	,	43680	,	-19590	,	-17164	,	-20.76027	,	0
2,52	,	43696	,	-19604	,	-17169	,	-21.53833	,	0
2,52	,	43728	,	-19606	,	-17166	,	-22.069115	,	0
2,52	,	43744	,	-19609	,	-17187	,	-22.332623	,	0
2,52	,	43760	,	-19606	,	-17162	,	-22.233742	,	0
2,52	,	43792	,	-19618	,	-17181	,	-21.658892	,	0
2,52	,	43808	,	-19632	,	-17189	,	-20.715092	,	0
2,52	,	43840	,	-19621	,	-17189	,	-19.682611	,	0
2,52	,	43856	,	-19634	,	-17188	,	-18.691414	,	1
2,52	,	43872	,	-19643	,	-17207	,	-17.770988	,	1
2,52	,	43904	,	-19635	,	-17211	,	-16.99917	,	1
2,52	,	43920	,	-19636	,	-17198	,	-16.305656	,	1
2,52	,	43936	,	-19611	,	-17172	,	-15.344871	,	1
2,52	,	43968	,	-19571	,	-17170	,	-13.423148	,	1
2,52	,	43984	,	-19564	,	-17161	,	-9.642233	,	2
2,52	,	44000	,	-19560	,	-17148	,	-3.625874	,	5
2,52	,	44032	,	-19543	,	-17160	,	4.0909786	,	11
2,52	,	44048	,	-19539	,	-17164	,	12.519339	,	17
2,52	,	44080	,	-19534	,	-17161	,	20.64697	,	25
2,52	,	44096	,	-19530	,	-17158	,	27.564089	,	33
2,52	,	44112	,	-19524	,	-17159	,	32.613724	,	39
2,52	,	44144	,	-19530	,	-17157	,	35.460648	,	44
2,52	,	44160	,	-19521	,	-17153	,	36.04122	,	46
2,52	,	44176	,	-19525	,	-17144	,	34.568676	,	45
2,52	,	44208	,	-19515	,	-17159	,	31.516195	,	42
2,52	,	44224	,	-19531	,	-17154	,	27.438873	,	36
2,52	,	44256	,	-19519	,	-17141	,	22.788673	,	29
2,52	,	44272	,	-19510	,	-17154	,	18.024286	,	21
2,52	,	44288	,	-19501	,	-17156	,	13.761848	,	13
2,52	,	44320	,	-19506	,	-17155	,	10.528315	,	7
2,52	,	44336	,	-19514	,	-17159	,	8.402925	,	2
2,52	,	44352	,	-19511	,	-17161	,	7.041962	,	0
2,52	,	44384	,	-19514	,	-17173	,	6.035932	,	0
2,52	,	44400	,	-19518	,	-17159	,	5.1144376	,	0
2,52	,	44416	,	-19508	,	-17168	,	4.152035	,	0
2,52	,	44448	,	-19529	,	-17167	,	3.1188233	,	0
2,52	,	44464	,	-19545	,	-17182	,	1.8235209	,	0
2,52	,	44496	,	-19539	,	-17155	,	-0.07889867	,	0
2,52	,	44512	,	-19538	,	-17173	,	-2.6070166	,	0
2,52	,	44528	,	-19569	,	-17178	,	-5.476216	,	0
2,52	,	44560	,	-19551	,	-17191	,	-8.505218	,	0
2,52	,	44576	,	-19555	,	-17186	,	-11.43653	,	0
2,53	,	44592	,	-19582	,	-17189	,	-13.919283	,	0
2,53	,	44624	,	-19576	,	-17194	,	-15.931448	,	0
2,53	,	44640	,	-19583	,	-17190	,	-17.604649	,	0
2,53	,	44672	,	-19601	,	-17196	,	-18.970621	,	0
2,53	,	44688	,	-19586	,	-17199	,	-20.055883	,	0
2,53	,	44704	,	-19609	,	-17208	,	-20.816198	,	0
2,53	,	44736	,	-19595	,	-17190	,	-21.155312	,	0
2,53	,	44752	,	-19610	,	-17214	,	-21.009766	,	0
2,53	,	44768	,	-19640	,	-17209	,	-20.53001	,	0
2,53	,	44800	,	-19629	,	-17217	,	-20.187553	,	0
2,53	,	44816	,	-19628	,	-17215	,	-20.234577	,	0
2,53	,	44832	,	-19633	,	-17222	,	-20.398705	,	0
2,53	,	44864	,	-19638	,	-17228	,	-20.328842	,	0
2,53	,	44880	,	-19640	,	-17215	,	-19.890793	,	0
2,53	,	44912	,	-19641	,	-17217	,	-19.080809	,	0
2,53	,	44928	,	-19648	,	-17210	,	-17.947437	,	0
2,53	,	44944	,	-19607	,	-17203	,	-16.408253	,	1
2,53	,	44976	,	-19592	,	-17172	,	-13.945871	,	2
2,53	,	44992	,	-19572	,	-17183	,	-9.853235	,	4
2,53	,	45008	,	-19553	,	-17180	,	-3.808319	,	8
2,53	,	45039	,	-19556	,	-17170	,	3.9054723	,	14
2,53	,	45056	,	-19558	,	-17175	,	12.361264	,	21
2,53	,	45088	,	-19556	,	-17173	,	20.236273	,	29
2,53	,	45104	,	-19544	,	-17167	,	26.430042	,	36
2,53	,	45120	,	-19540	,	-17166	,	30.465725	,	42
2,53	,	45152	,	-19564	,	-17169	,	32.254345	,	45
2,53	,	45168	,	-19565	,	-17167	,	31.676792	,	45
2,53	,	45184	,	-19555	,	-17177	,	28.777914	,	43
2,53	,	45216	,	-19550	,	-17133	,	24.173077	,	39
2,53	,	45232	,	-19543	,	-17164	,	18.87615	,	33
2,53	,	45264	,	-19539	,	-17161	,	13.855131	,	26
2,53	,	45280	,	-19570	,	-17166	,	9.622413	,	18
2,53	,	45296	,	-19548	,	-17158	,	6.113641	,	11
2,53	,	45327	,	-19541	,	-17163	,	3.2397542	,	5
2,53	,	45343	,	-19567	,	-17158	,	1.1186476	,	1
2,53	,	45360	,	-19554	,	-17178	,	-0.3672173	,	0
2,53	,	45392	,	-19567	,	-17166	,	-1.5217911	,	0
2,53	,	45408	,	-19561	,	-17170	,	-2.518139	,	0
2,53	,	45424	,	-19588	,	-17176	,	-3.4997582	,	0
2,53	,	45455	,	-19585	,	-17171	,	-4.732801	,	0
2,53	,	45471	,	-19604	,	-17169	,	-6.4834437	,	0
2,53	,	45503	,	-19607	,	-17175	,	-8.850641	,	0
2,53	,	45519	,	-19602	,	-17182	,	-11.669376	,	0
2,53	,	45536	,	-19617	,	-17177	,	-14.522194	,	0
2,53	,	45568	,	-19614	,	-17182	,	-17.00315	,	0
2,54	,	45584	,	-19614	,	-17179	,	-18.832378	,	0
2,54	,	45600	,	-19620	,	-17174	,	-19.793743	,	0
2,54	,	45632	,	-19619	,	-17172	,	-19.819586	,	0
2,54	,	45647	,	-19638	,	-17186	,	-19.079617	,	0
2,54	,	45679	,	-19649	,	-17178	,	-18.024632	,	0
2,54	,	45696	,	-19641	,	-17168	,	-17.157299	,	1
2,54	,	45712	,	-19662	,	-17190	,	-16.69426	,	1
2,54	,	45744	,	-19656	,	-17184	,	-16.643208	,	1
2,54	,	45760	,	-19667	,	-17186	,	-16.930346	,	1
2,54	,	45775	,	-19679	,	-17195	,	-17.44526	,	1
2,54	,	45807	,	-19680	,	-17198	,	-18.141632	,	1
2,54	,	45823	,	-19694	,	-17197	,	-18.982014	,	1
2,54	,	45839	,	-19691	,	-17205	,	-19.87648	,	1
2,54	,	45871	,	-19686	,	-17206	,	-20.614689	,	1
2,54	,	45888	,	-19681	,	-17200	,	-20.807537	,	0
2,54	,	45919	,	-19665	,	-17196	,	-20.005356	,	0
2,54	,	45935	,	-19648	,	-17180	,	-17.787151	,	0
2,54	,	45951	,	-19601	,	-17167	,	-13.683635	,	2
2,54	,	45984	,	-19578	,	-17158	,	-7.164502	,	6
2,54	,	46000	,	-19581	,	-17153	,	1.8642664	,	12
2,54	,	46016	,	-19582	,	-17148	,	12.46627	,	21
2,54	,	46047	,	-19565	,	-17154	,	23.02122	,	31
2,54	,	46063	,	-19568	,	-17149	,	32.095222	,	41
2,54	,	46095	,	-19558	,	-17146	,	38.78114	,	50
2,54	,	46111	,	-19553	,	-17151	,	42.678024	,	56
2,54	,	46127	,	-19539	,	-17143	,	43.904713	,	59
2,54	,	46159	,	-19544	,	-17142	,	42.951027	,	58
2,54	,	46175	,	-19544	,	-17139	,	40.33699	,	54
2,54	,	46191	,	-19542	,	-17143	,	36.461754	,	48
2,54	,	46223	,	-19525	,	-17139	,	31.800962	,	39
2,54	,	46239	,	-19533	,	-17138	,	26.981129	,	29
2,54	,	46255	,	-19514	,	-17138	,	22.555664	,	19
2,54	,	46290	,	-19520	,	-17145	,	18.895138	,	10
2,54	,	46303	,	-19519	,	-17140	,	16.130844	,	4
2,54	,	46335	,	-19515	,	-17149	,	14.125405	,	1
2,54	,	46351	,	-19516	,	-17143	,	12.653251	,	0
2,54	,	46367	,	-19522	,	-17148	,	11.482492	,	0
2,54	,	46399	,	-19537	,	-17141	,	10.270214	,	0
2,54	,	46415	,	-19536	,	-17150	,	8.604374	,	0
2,54	,	46431	,	-19529	,	-17159	,	6.3227468	,	0
2,54	,	46463	,	-19548	,	-17155	,	3.6126304	,	0
2,54	,	46479	,	-19549	,	-17159	,	0.66603565	,	0
2,54	,	46511	,	-19562	,	-17162	,	-2.4679344	,	0
2,54	,	46527	,	-19573	,	-17161	,	-5.7810287	,	0
2,54	,	46543	,	-19566	,	-17163	,	-9.201107	,	0
2,54	,	46575	,	-19577	,	-17143	,	-12.464644	,	0
2,55	,	46591	,	-19578	,	-17169	,	-15.233229	,	0
2,55	,	46607	,	-19583	,	-17183	,	-17.293766	,	0
2,55	,	46639	,	-19598	,	-17164	,	-18.620152	,	0
2,55	,	46655	,	-19601	,	-17185	,	-19.39135	,	0
2,55	,	46671	,	-19601	,	-17185	,	-19.80941	,	0
2,55	,	46703	,	-19593	,	-17186	,	-19.8498	,	0
2,55	,	46719	,	-19617	,	-17186	,	-19.396557	,	0
2,55	,	46751	,	-19602	,	-17190	,	-18.519648	,	0
2,55	,	46767	,	-19633	,	-17188	,	-17.45271	,	0
2,55	,	46783	,	-19642	,	-17192	,	-16.599941	,	1
2,55	,	46815	,	-19637	,	-17194	,	-16.391037	,	1
2,55	,	46831	,	-19649	,	-17197	,	-16.872738	,	1
2,55	,	46847	,	-19656	,	-17203	,	-17.800182	,	1
2,55	,	46879	,	-19666	,	-17204	,	-18.971336	,	1
2,55	,	46895	,	-19665	,	-17206	,	-20.222164	,	1
2,55	,	46927	,	-19657	,	-17194	,	-21.26096	,	1
2,55	,	46943	,	-19619	,	-17185	,	-21.467255	,	1
2,55	,	46959	,	-19581	,	-17154	,	-19.785755	,	1
2,55	,	46991	,	-19577	,	-17159	,	-15.192145	,	1
2,55	,	47007	,	-19557	,	-17156	,	-7.5089607	,	5
2,55	,	47023	,	-19549	,	-17140	,	2.4655008	,	12
2,55	,	47055	,	-19525	,	-17131	,	13.512879	,	21
2,55	,	47071	,	-19530	,	-17121	,	24.406076	,	32
2,55	,	47087	,	-19525	,	-17136	,	33.959785	,	42
2,55	,	47119	,	-19510	,	-17124	,	41.192764	,	51
2,55	,	47135	,	-19496	,	-17131	,	45.716736	,	58
2,55	,	47167	,	-19511	,	-17128	,	47.655525	,	62
2,55	,	47183	,	-19487	,	-17125	,	47.259987	,	62
2,55	,	47199	,	-19509	,	-17129	,	44.858276	,	58
2,55	,	47231	,	-19509	,	-17127	,	40.760445	,	51
2,55	,	47247	,	-19500	,	-17115	,	35.254646	,	42
2,55	,	47263	,	-19509	,	-17111	,	28.861067	,	31
2,55	,	47295	,	-19504	,	-17131	,	22.221643	,	21
2,55	,	47311	,	-19487	,	-17117	,	15.967794	,	12
2,55	,	47343	,	-19500	,	-17115	,	10.719679	,	5
2,55	,	47359	,	-19508	,	-17109	,	6.733411	,	1
2,55	,	47375	,	-19491	,	-17088	,	3.8444223	,	0
2,55	,	47407	,	-19499	,	-17112	,	1.9009976	,	0
2,55	,	47423	,	-19513	,	-17126	,	0.73964787	,	0
2,55	,	47439	,	-19518	,	-17127	,	-0.07458758	,	0
2,55	,	47471	,	-19528	,	-17122	,	-1.0588098	,	0
2,55	,	47487	,	-19523	,	-17101	,	-2.496845	,	0
2,55	,	47519	,	-19529	,	-17129	,	-4.3328867	,	0
2,55	,	47535	,	-19546	,	-17132	,	-6.37611	,	0
2,55	,	47551	,	-19538	,	-17119	,	-8.5261755	,	0
2,56	,	47583	,	-19541	,	-17132	,	-10.620937	,	0
2,56	,	47599	,	-19554	,	-17109	,	-12.410729	,	0
2,56	,	47615	,	-19548	,	-17123	,	-13.7789755	,	0
2,56	,	47647	,	-19567	,	-17120	,	-14.743254	,	0
2,56	,	47663	,	-19550	,	-17106	,	-15.337946	,	0
2,56	,	47679	,	-19574	,	-17085	,	-15.566353	,	0
2,56	,	47711	,	-19600	,	-17102	,	-15.650547	,	0
2,56	,	47727	,	-19580	,	-17117	,	-16.04911	,	0
2,56	,	47758	,	-19588	,	-17140	,	-16.844006	,	0
2,56	,	47775	,	-19587	,	-17137	,	-17.643488	,	0
2,56	,	47791	,	-19595	,	-17138	,	-18.088999	,	0
2,56	,	47823	,	-19606	,	-17150	,	-18.102781	,	0
2,56	,	47839	,	-19611	,	-17135	,	-17.858894	,	0
2,56	,	47855	,	-19623	,	-17155	,	-17.61885	,	0
2,56	,	47887	,	-19631	,	-17161	,	-17.609146	,	0
2,56	,	47902	,	-19642	,	-17168	,	-17.99961	,	0
2,56	,	47935	,	-19651	,	-17166	,	-18.868828	,	0
2,56	,	47951	,	-19633	,	-17162	,	-20.052395	,	0
2,56	,	47967	,	-19608	,	-17146	,	-20.880001	,	0
2,56	,	47999	,	-19568	,	-17133	,	-20.168434	,	0
2,56	,	48015	,	-19530	,	-17118	,	-16.608196	,	0
2,56	,	48031	,	-19520	,	-17114	,	-9.404871	,	3
2,56	,	48063	,	-19502	,	-17115	,	1.1465588	,	10
2,56	,	48079	,	-19516	,	-17098	,	13.636368	,	20
2,56	,	48095	,	-19483	,	-17115	,	26.147072	,	32
2,56	,	48127	,	-19478	,	-17112	,	37.11994	,	44
2,56	,	48143	,	-19484	,	-17104	,	45.611965	,	54
2,56	,	48174	,	-19479	,	-17068	,	50.968185	,	62
2,56	,	48190	,	-19460	,	-17080	,	52.94793	,	67
2,56	,	48206	,	-19466	,	-17102	,	51.956192	,	68
2,56	,	48239	,	-19467	,	-17095	,	48.66018	,	65
2,56	,	48255	,	-19468	,	-17101	,	43.62713	,	58
2,56	,	48271	,	-19455	,	-17102	,	37.450348	,	48
2,56	,	48303	,	-19446	,	-17075	,	30.924702	,	36
2,56	,	48319	,	-19452	,	-17086	,	24.856665	,	24
2,56	,	48350	,	-19434	,	-17086	,	19.77763	,	14
2,56	,	48366	,	-19450	,	-17091	,	15.902937	,	6
2,56	,	48382	,	-19444	,	-17101	,	13.115642	,	1
2,56	,	48414	,	-19448	,	-17109	,	11.056748	,	0
2,56	,	48431	,	-19453	,	-17111	,	9.361221	,	0
2,56	,	48447	,	-19463	,	-17109	,	7.6948657	,	0
2,56	,	48479	,	-19464	,	-17112	,	5.7589436	,	0
2,56	,	48494	,	-19471	,	-17091	,	3.4114966	,	0
2,56	,	48526	,	-19477	,	-17115	,	0.6871052	,	0
2,56	,	48543	,	-19488	,	-17132	,	-2.317284	,	0
2,56	,	48558	,	-19506	,	-17108	,	-5.5780487	,	0
2,57	,	48590	,	-19519	,	-17134	,	-9.190617	,	0
2,57	,	48606	,	-19510	,	-17129	,	-13.136805	,	0
2,57	,	48622	,	-19523	,	-17138	,	-17.046124	,	0
2,57	,	48655	,	-19539	,	-17137	,	-20.489162	,	0
2,57	,	48671	,	-19526	,	-17139	,	-23.254715	,	0
2,57	,	48687	,	-19530	,	-17141	,	-25.10387	,	0
2,57	,	48718	,	-19554	,	-17135	,	-25.844208	,	0
2,57	,	48734	,	-19556	,	-17149	,	-25.713596	,	0
2,57	,	48766	,	-19559	,	-17150	,	-25.152039	,	0
2,57	,	48782	,	-19552	,	-17164	,	-24.326584	,	0
2,57	,	48799	,	-19549	,	-17133	,	-23.079382	,	0
2,57	,	48830	,	-19575	,	-17164	,	-21.303305	,	1
2,57	,	48846	,	-19589	,	-17159	,	-19.377678	,	2
2,57	,	48862	,	-19587	,	-17156	,	-17.95626	,	3
2,57	,	48894	,	-19592	,	-17168	,	-17.337765	,	4
2,57	,	48910	,	-19593	,	-17170	,	-17.345493	,	4
2,57	,	48942	,	-19603	,	-17161	,	-17.65466	,	4
2,57	,	48958	,	-19594	,	-17160	,	-17.979797	,	4
2,57	,	48974	,	-19573	,	-17142	,	-17.913692	,	4
2,57	,	49006	,	-19512	,	-17124	,	-16.569561	,	4
2,57	,	49022	,	-19501	,	-17130	,	-12.678898	,	4
2,57	,	49038	,	-19486	,	-17109	,	-5.5244923	,	6
2,57	,	49070	,	-19487	,	-17114	,	4.3326316	,	12
2,57	,	49086	,	-19490	,	-17086	,	15.314444	,	20
2,57	,	49102	,	-19472	,	-17082	,	25.609373	,	30
2,57	,	49134	,	-19471	,	-17104	,	33.905235	,	40
2,57	,	49150	,	-19475	,	-17111	,	39.52202	,	48
2,57	,	49182	,	-19462	,	-17093	,	42.201504	,	53
2,57	,	49198	,	-19468	,	-17102	,	42.101746	,	55
2,57	,	49214	,	-19470	,	-17071	,	39.667374	,	54
2,57	,	49246	,	-19461	,	-17103	,	35.448715	,	51
2,57	,	49262	,	-19456	,	-17092	,	30.161125	,	44
2,57	,	49278	,	-19460	,	-17078	,	24.585157	,	35
2,57	,	49310	,	-19438	,	-17096	,	19.379698	,	25
2,57	,	49326	,	-19441	,	-17086	,	15.1127405	,	15
2,57	,	49358	,	-19432	,	-17064	,	12.167103	,	7
2,57	,	49374	,	-19438	,	-17069	,	10.5484915	,	2
2,57	,	49390	,	-19442	,	-17063	,	9.8907585	,	0
2,57	,	49422	,	-19451	,	-17058	,	9.59288	,	0
2,57	,	49438	,	-19455	,	-17095	,	9.042971	,	0
2,57	,	49454	,	-19460	,	-17068	,	7.839396	,	0
2,57	,	49486	,	-19454	,	-17091	,	5.9146957	,	0
2,57	,	49502	,	-19459	,	-17105	,	3.5164642	,	0
2,57	,	49518	,	-19484	,	-17087	,	0.8886137	,	0
2,57	,	49550	,	-19492	,	-17093	,	-2.051496	,	0
2,57	,	49566	,	-19485	,	-17094	,	-5.436372	,	0
2,58	,	49598	,	-19482	,	-17096	,	-8.967295	,	0
2,58	,	49614	,	-19493	,	-17061	,	-12.06768	,	0
2,58	,	49630	,	-19495	,	-17094	,	-14.369482	,	0
2,58	,	49662	,	-19515	,	-17060	,	-15.885784	,	0
2,58	,	49678	,	-19503	,	-17093	,	-16.839739	,	0
2,58	,	49694	,	-19520	,	-17077	,	-17.396534	,	0
2,58	,	49726	,	-19514	,	-17104	,	-17.612537	,	0
2,58	,	49742	,	-19526	,	-17107	,	-17.528845	,	0
2,58	,	49774	,	-19535	,	-17090	,	-17.25109	,	0
2,58	,	49790	,	-19538	,	-17110	,	-16.978561	,	0
2,58	,	49806	,	-19544	,	-17094	,	-16.862007	,	0
2,58	,	49838	,	-19548	,	-17100	,	-16.91504	,	0
2,58	,	49854	,	-19521	,	-17091	,	-16.929161	,	0
2,58	,	49870	,	-19487	,	-17048	,	-16.20211	,	0
2,58	,	49902	,	-19460	,	-17056	,	-13.617102	,	0
2,58	,	49918	,	-19449	,	-17070	,	-8.339781	,	2
2,58	,	49950	,	-19429	,	-17046	,	-0.39701128	,	7
2,58	,	49966	,	-19432	,	-17053	,	9.359087	,	14
2,58	,	49982	,	-19423	,	-17076	,	19.574272	,	23
2,58	,	50014	,	-19419	,	-17050	,	28.824047	,	33
2,58	,	50030	,	-19419	,	-17052	,	36.010193	,	42
2,58	,	50046	,	-19415	,	-17040	,	40.483513	,	49
2,58	,	50078	,	-19416	,	-17071	,	42.043953	,	53
2,58	,	50094	,	-19421	,	-17075	,	40.867424	,	54
2,58	,	50110	,	-19431	,	-17073	,	37.316414	,	52
2,58	,	50142	,	-19428	,	-17081	,	31.861303	,	47
2,58	,	50158	,	-19416	,	-17073	,	25.220484	,	40
2,58	,	50190	,	-19409	,	-17048	,	18.41069	,	31
2,58	,	50206	,	-19411	,	-17062	,	12.416483	,	21
2,58	,	50222	,	-19409	,	-17048	,	7.794445	,	12
2,58	,	50254	,	-19402	,	-17072	,	4.6766987	,	5
2,58	,	50270	,	-19402	,	-17067	,	2.9912148	,	1
2,58	,	50286	,	-19407	,	-17070	,	2.4909174	,	0
2,58	,	50318	,	-19403	,	-17081	,	2.7466419	,	0
2,58	,	50334	,	-19415	,	-17086	,	3.2774572	,	0
2,58	,	50366	,	-19420	,	-17085	,	3.6117015	,	0
2,58	,	50382	,	-19422	,	-17089	,	3.3607154	,	0
2,58	,	50398	,	-19423	,	-17090	,	2.3951864	,	0
2,58	,	50430	,	-19437	,	-17091	,	0.8052081	,	0
2,58	,	50446	,	-19439	,	-17100	,	-1.3082837	,	0
2,58	,	50462	,	-19449	,	-17075	,	-3.8521705	,	0
2,58	,	50494	,	-19461	,	-17070	,	-6.70932	,	0
2,58	,	50510	,	-19474	,	-17108	,	-9.821958	,	0
2,58	,	50526	,	-19477	,	-17110	,	-13.151207	,	0
2,58	,	50558	,	-19498	,	-17115	,	-16.59022	,	0
2,58	,	50574	,	-19491	,	-17124	,	-19.976192	,	0
2,59	,	50605	,	-19506	,	-17120	,	-23.056679	,	0
2,59	,	50621	,	-19518	,	-17122	,	-25.599545	,	0
2,59	,	50638	,	-19524	,	-17126	,	-27.562332	,	0
2,59	,	50670	,	-19514	,	-17127	,	-28.897606	,	0
2,59	,	50685	,	-19536	,	-17134	,	-29.436481	,	0
2,59	,	50702	,	-19535	,	-17123	,	-29.17001	,	0
2,59	,	50734	,	-19531	,	-17128	,	-28.243553	,	0
2,59	,	50750	,	-19464	,	-17092	,	-26.353315	,	0
2,59	,	50781	,	-19444	,	-17091	,	-22.415234	,	1
2,59	,	50797	,	-19417	,	-17076	,	-15.338609	,	4
2,59	,	50813	,	-19413	,	-17067	,	-5.0545416	,	11
2,59	,	50846	,	-19396	,	-17083	,	7.386155	,	21
2,59	,	50862	,	-19394	,	-17076	,	20.372414	,	33
2,59	,	50878	,	-19396	,	-17076	,	32.22328	,	45
2,59	,	50909	,	-19380	,	-17078	,	41.54863	,	56
2,59	,	50925	,	-19389	,	-17076	,	47.549202	,	65
2,59	,	50942	,	-19379	,	-17051	,	50.01181	,	71
2,59	,	50973	,	-19385	,	-17060	,	49.16117	,	72
2,59	,	50989	,	-19383	,	-17079	,	45.54529	,	69
2,59	,	51021	,	-19389	,	-17079	,	39.865807	,	62
2,59	,	51038	,	-19387	,	-17070	,	32.87178	,	52
2,59	,	51054	,	-19392	,	-17073	,	25.30685	,	40
2,59	,	51086	,	-19384	,	-17065	,	17.8715	,	28
2,59	,	51102	,	-19398	,	-17048	,	11.142966	,	17
2,59	,	51117	,	-19405	,	-17084	,	5.381382	,	8
2,59	,	51149	,	-19392	,	-17054	,	0.6015644	,	2
2,59	,	51165	,	-19391	,	-17089	,	-3.0709286	,	0
2,59	,	51197	,	-19412	,	-17056	,	-5.514182	,	0
2,59	,	51213	,	-19423	,	-17083	,	-7.047269	,	0
2,59	,	51229	,	-19435	,	-17084	,	-8.330665	,	0
2,59	,	51263	,	-19442	,	-17089	,	-9.908896	,	0
2,59	,	51278	,	-19442	,	-17099	,	-11.957165	,	0
2,59	,	51293	,	-19456	,	-17073	,	-14.323881	,	0
2,59	,	51325	,	-19460	,	-17070	,	-16.766737	,	0
2,59	,	51341	,	-19472	,	-17101	,	-19.108511	,	0
2,59	,	51373	,	-19479	,	-17090	,	-21.238537	,	0
2,59	,	51389	,	-19469	,	-17103	,	-22.999508	,	0
2,59	,	51405	,	-19492	,	-17118	,	-24.15614	,	0
2,59	,	51437	,	-19495	,	-17087	,	-24.667698	,	0
2,59	,	51453	,	-19508	,	-17104	,	-24.768812	,	0
2,59	,	51469	,	-19522	,	-17106	,	-24.764282	,	0
2,59	,	51501	,	-19530	,	-17126	,	-24.934956	,	0
2,59	,	51517	,	-19539	,	-17133	,	-25.441189	,	0
2,59	,	51533	,	-19530	,	-17120	,	-26.173073	,	0
2,59	,	51565	,	-19548	,	-17123	,	-26.796566	,	0
2,59	,	51581	,	-19540	,	-17122	,	-27.012272	,	0
3,0	,	51613	,	-19538	,	-17100	,	-26.601475	,	0
3,0	,	51629	,	-19565	,	-17127	,	-25.462852	,	0
3,0	,	51645	,	-19559	,	-17137	,	-23.846277	,	1
3,0	,	51677	,	-19574	,	-17104	,	-22.17852	,	2
3,0	,	51693	,	-19536	,	-17103	,	-20.56934	,	3
3,0	,	51709	,	-19525	,	-17066	,	-18.538527	,	4
3,0	,	51741	,	-19479	,	-17045	,	-15.174451	,	6
3,0	,	51757	,	-19458	,	-17054	,	-9.568283	,	9
3,0	,	51789	,	-19451	,	-17046	,	-1.3635798	,	14
3,0	,	51805	,	-19440	,	-17042	,	8.832447	,	22
3,0	,	51821	,	-19429	,	-17065	,	19.726952	,	32
3,0	,	51853	,	-19432	,	-17040	,	29.921036	,	41
3,0	,	51869	,	-19426	,	-17074	,	38.18833	,	50
3,0	,	51885	,	-19418	,	-17046	,	43.706287	,	57
3,0	,	51917	,	-19411	,	-17036	,	46.265255	,	61
3,0	,	51933	,	-19405	,	-17059	,	46.179024	,	61
3,0	,	51949	,	-19403	,	-17061	,	44.01238	,	58
3,0	,	51981	,	-19413	,	-17054	,	40.305332	,	53
3,0	,	51997	,	-19411	,	-17077	,	35.42892	,	45
3,0	,	52029	,	-19409	,	-17072	,	29.728727	,	35
3,0	,	52045	,	-19405	,	-17060	,	23.697842	,	25
3,0	,	52061	,	-19417	,	-17076	,	17.846037	,	15
3,0	,	52093	,	-19404	,	-17065	,	12.526338	,	7
3,0	,	52109	,	-19397	,	-17073	,	8.05823	,	2
3,0	,	52125	,	-19397	,	-17057	,	4.7834644	,	0
3,0	,	52157	,	-19405	,	-17061	,	2.7954817	,	0
3,0	,	52173	,	-19414	,	-17081	,	1.7718055	,	0
3,0	,	52205	,	-19417	,	-17065	,	1.1499519	,	0
3,0	,	52221	,	-19417	,	-17074	,	0.46023166	,	0
3,0	,	52237	,	-19428	,	-17093	,	-0.517572	,	0
3,0	,	52269	,	-19434	,	-17078	,	-1.878617	,	0
3,0	,	52285	,	-19440	,	-17100	,	-3.6800861	,	0
3,0	,	52301	,	-19447	,	-17109	,	-5.8870378	,	0
3,0	,	52333	,	-19437	,	-17072	,	-8.287576	,	0
3,0	,	52349	,	-19445	,	-17104	,	-10.480263	,	0
3,0	,	52381	,	-19454	,	-17126	,	-12.136141	,	0
3,0	,	52397	,	-19474	,	-17100	,	-13.316068	,	0
3,0	,	52413	,	-19483	,	-17116	,	-14.423372	,	0
3,0	,	52445	,	-19484	,	-17112	,	-15.818043	,	0
3,0	,	52461	,	-19496	,	-17137	,	-17.53118	,	0
3,0	,	52477	,	-19494	,	-17127	,	-19.349657	,	0
3,0	,	52509	,	-19523	,	-17131	,	-21.086086	,	0
3,0	,	52525	,	-19520	,	-17137	,	-22.748913	,	0
3,0	,	52541	,	-19524	,	-17145	,	-24.344166	,	0
3,0	,	52573	,	-19535	,	-17143	,	-25.688927	,	0
3,1	,	52589	,	-19538	,	-17154	,	-26.605076	,	0
3,1	,	52620	,	-19553	,	-17152	,	-27.066122	,	0
3,1	,	52637	,	-19540	,	-17142	,	-27.094948	,	0
3,1	,	52653	,	-19580	,	-17165	,	-26.746758	,	0
3,1	,	52685	,	-19589	,	-17169	,	-26.362274	,	0
3,1	,	52701	,	-19585	,	-17164	,	-26.397408	,	0
3,1	,	52717	,	-19565	,	-17157	,	-26.741217	,	0
3,1	,	52749	,	-19540	,	-17142	,	-26.533258	,	0
3,1	,	52765	,	-19502	,	-17122	,	-24.542112	,	0
3,1	,	52796	,	-19478	,	-17118	,	-19.657501	,	1
3,1	,	52813	,	-19474	,	-17115	,	-11.494202	,	5
3,1	,	52829	,	-19460	,	-17108	,	-0.7432375	,	13
3,1	,	52861	,	-19461	,	-17111	,	11.139248	,	23
3,1	,	52877	,	-19455	,	-17100	,	22.495909	,	34
3,1	,	52893	,	-19443	,	-17095	,	31.947008	,	45
3,1	,	52925	,	-19437	,	-17063	,	38.734657	,	54
3,1	,	52941	,	-19435	,	-17101	,	42.673157	,	60
3,1	,	52957	,	-19432	,	-17076	,	43.886795	,	63
3,1	,	52989	,	-19428	,	-17097	,	42.70688	,	63
3,1	,	53005	,	-19441	,	-17094	,	39.57802	,	59
3,1	,	53036	,	-19436	,	-17102	,	34.91642	,	51
3,1	,	53053	,	-19418	,	-17100	,	29.265928	,	41
3,1	,	53069	,	-19431	,	-17088	,	23.401653	,	30
3,1	,	53101	,	-19430	,	-17085	,	17.933846	,	19
3,1	,	53117	,	-19437	,	-17050	,	13.070412	,	10
3,1	,	53132	,	-19437	,	-17099	,	8.817222	,	4
3,1	,	53164	,	-19439	,	-17094	,	5.157179	,	1
3,1	,	53180	,	-19459	,	-17096	,	2.0039735	,	0
3,1	,	53213	,	-19452	,	-17104	,	-0.8635235	,	0
3,1	,	53229	,	-19460	,	-17073	,	-3.591686	,	0
3,1	,	53245	,	-19468	,	-17106	,	-6.152199	,	0
3,1	,	53276	,	-19465	,	-17079	,	-8.483012	,	0
3,1	,	53293	,	-19474	,	-17113	,	-10.489191	,	0
3,1	,	53309	,	-19482	,	-17108	,	-12.10404	,	0
3,1	,	53341	,	-19485	,	-17116	,	-13.390879	,	0
3,1	,	53357	,	-19494	,	-17104	,	-14.451868	,	0
3,1	,	53373	,	-19511	,	-17125	,	-15.421528	,	0
3,1	,	53404	,	-19504	,	-17111	,	-16.460964	,	0
3,1	,	53420	,	-19521	,	-17096	,	-17.589352	,	0
3,1	,	53452	,	-19527	,	-17130	,	-18.74276	,	0
3,1	,	53468	,	-19525	,	-17099	,	-19.870615	,	0
3,1	,	53485	,	-19535	,	-17108	,	-20.825779	,	0
3,1	,	53517	,	-19544	,	-17120	,	-21.46747	,	0
3,1	,	53532	,	-19548	,	-17101	,	-21.813862	,	0
3,1	,	53548	,	-19548	,	-17125	,	-21.908718	,	0
3,2	,	53580	,	-19562	,	-17120	,	-21.747953	,	0
3,2	,	53596	,	-19567	,	-17099	,	-21.410225	,	0
3,2	,	53628	,	-19605	,	-17139	,	-21.201992	,	0
3,2	,	53645	,	-19596	,	-17126	,	-21.594048	,	0
3,2	,	53661	,	-19603	,	-17136	,	-22.759895	,	0
3,2	,	53692	,	-19593	,	-17137	,	-24.278149	,	0
3,2	,	53708	,	-19603	,	-17146	,	-25.462673	,	0
3,2	,	53724	,	-19588	,	-17147	,	-25.763481	,	0
3,2	,	53756	,	-19609	,	-17140	,	-24.927925	,	0
3,2	,	53773	,	-19609	,	-17151	,	-23.112415	,	0
3,2	,	53789	,	-19596	,	-17119	,	-20.687075	,	1
3,2	,	53820	,	-19566	,	-17133	,	-17.688587	,	3
3,2	,	53836	,	-19522	,	-17075	,	-13.530152	,	5
3,2	,	53868	,	-19494	,	-17100	,	-7.292719	,	9
3,2	,	53884	,	-19492	,	-17094	,	1.4862471	,	15
3,2	,	53900	,	-19482	,	-17100	,	12.194565	,	23
3,2	,	53932	,	-19483	,	-17061	,	23.380764	,	33
3,2	,	53948	,	-19480	,	-17093	,	33.409733	,	44
3,2	,	53964	,	-19470	,	-17096	,	40.99988	,	54
3,2	,	53996	,	-19464	,	-17103	,	45.553688	,	60
3,2	,	54012	,	-19458	,	-17091	,	47.122234	,	62
3,2	,	54044	,	-19458	,	-17098	,	46.117077	,	61
3,2	,	54060	,	-19457	,	-17093	,	43.070625	,	57
3,2	,	54076	,	-19459	,	-17091	,	38.52012	,	51
3,2	,	54108	,	-19451	,	-17084	,	33.013298	,	43
3,2	,	54124	,	-19456	,	-17101	,	27.125854	,	33
3,2	,	54140	,	-19446	,	-17093	,	21.391195	,	22
3,2	,	54172	,	-19443	,	-17099	,	16.273506	,	12
3,2	,	54188	,	-19440	,	-17069	,	12.144658	,	5
3,2	,	54204	,	-19439	,	-17072	,	9.172006	,	1
3,2	,	54236	,	-19445	,	-17104	,	7.2524347	,	0
3,2	,	54254	,	-19446	,	-17103	,	6.0635357	,	0
3,2	,	54284	,	-19437	,	-17090	,	5.277436	,	0
3,2	,	54300	,	-19443	,	-17095	,	4.7354794	,	0
3,2	,	54316	,	-19449	,	-17100	,	4.3111677	,	0
3,2	,	54348	,	-19464	,	-17111	,	3.7159843	,	0
3,2	,	54364	,	-19473	,	-17097	,	2.543726	,	0
3,2	,	54380	,	-19470	,	-17117	,	0.54310274	,	0
3,2	,	54412	,	-19478	,	-17110	,	-2.1597693	,	0
3,2	,	54428	,	-19476	,	-17113	,	-5.1715755	,	0
3,2	,	54460	,	-19458	,	-17095	,	-7.9511075	,	0
3,2	,	54476	,	-19453	,	-17100	,	-9.809453	,	0
3,2	,	54492	,	-19430	,	-17088	,	-10.094273	,	0
3,2	,	54524	,	-19426	,	-17089	,	-8.4148035	,	0
3,2	,	54540	,	-19426	,	-17067	,	-4.8392353	,	1
3,2	,	54556	,	-19422	,	-17071	,	0.018650055	,	4
3,3	,	54588	,	-19416	,	-17052	,	5.293545	,	8
3,3	,	54604	,	-19423	,	-17043	,	10.194334	,	13
3,3	,	54636	,	-19442	,	-17056	,	13.968823	,	17
3,3	,	54652	,	-19426	,	-17069	,	15.967487	,	20
3,3	,	54668	,	-19427	,	-17073	,	16.058205	,	21
3,3	,	54700	,	-19432	,	-17067	,	14.64257	,	21
3,3	,	54716	,	-19436	,	-17083	,	12.201087	,	21
3,3	,	54732	,	-19438	,	-17070	,	9.1076145	,	20
3,3	,	54764	,	-19446	,	-17082	,	5.676568	,	17
3,3	,	54780	,	-19446	,	-17041	,	2.1654	,	13
3,3	,	54796	,	-19394	,	-17052	,	-0.9316611	,	8
3,3	,	54828	,	-19346	,	-17012	,	-2.3858025	,	4
3,3	,	54844	,	-19341	,	-17030	,	-0.67596734	,	1
3,3	,	54876	,	-19338	,	-17005	,	4.6814327	,	1
3,3	,	54892	,	-19337	,	-17020	,	12.661889	,	6
3,3	,	54908	,	-19333	,	-16999	,	21.489292	,	13
3,3	,	54940	,	-19333	,	-17005	,	29.466427	,	21
3,3	,	54956	,	-19328	,	-17003	,	35.376472	,	28
3,3	,	54972	,	-19325	,	-17017	,	38.625595	,	33
3,3	,	55004	,	-19328	,	-17023	,	39.172043	,	36
3,3	,	55020	,	-19337	,	-16993	,	37.266716	,	36
3,3	,	55052	,	-19336	,	-17042	,	33.279133	,	36
3,3	,	55068	,	-19336	,	-17031	,	27.75158	,	35
3,3	,	55084	,	-19340	,	-17034	,	21.396458	,	30
3,3	,	55115	,	-19344	,	-17039	,	14.890313	,	23
3,3	,	55131	,	-19338	,	-16991	,	8.76272	,	15
3,3	,	55148	,	-19344	,	-17001	,	3.4403124	,	8
3,3	,	55180	,	-19338	,	-17000	,	-0.772161	,	3
3,3	,	55196	,	-19355	,	-17005	,	-3.7913222	,	0
3,3	,	55212	,	-19351	,	-17034	,	-5.8022323	,	0
3,3	,	55244	,	-19362	,	-17020	,	-7.1208277	,	0
3,3	,	55260	,	-19365	,	-17030	,	-8.04651	,	0
3,3	,	55292	,	-19375	,	-17028	,	-8.850315	,	0
3,3	,	55308	,	-19388	,	-17038	,	-9.784586	,	0
3,3	,	55324	,	-19381	,	-17018	,	-11.003284	,	0
3,3	,	55356	,	-19390	,	-17023	,	-12.419347	,	0
3,3	,	55372	,	-19416	,	-17043	,	-13.908324	,	0
3,3	,	55388	,	-19415	,	-17028	,	-15.593914	,	0
3,3	,	55420	,	-19413	,	-17034	,	-17.529764	,	0
3,3	,	55436	,	-19427	,	-17017	,	-19.442242	,	0
3,3	,	55467	,	-19421	,	-17043	,	-21.005138	,	0
3,3	,	55483	,	-19424	,	-17059	,	-21.964094	,	0
3,3	,	55499	,	-19425	,	-17025	,	-22.105782	,	0
3,3	,	55532	,	-19451	,	-17017	,	-21.477285	,	0
3,3	,	55548	,	-19451	,	-17035	,	-20.515629	,	0
3,3	,	55564	,	-19459	,	-17040	,	-19.712654	,	0
3,4	,	55596	,	-19464	,	-17033	,	-19.277504	,	0
3,4	,	55612	,	-19472	,	-17048	,	-19.205671	,	0
3,4	,	55643	,	-19472	,	-17055	,	-19.403505	,	0
3,4	,	55659	,	-19480	,	-17043	,	-19.704338	,	0
3,4	,	55676	,	-19481	,	-17070	,	-19.928532	,	0
3,4	,	55708	,	-19479	,	-17037	,	-19.90625	,	0
3,4	,	55724	,	-19473	,	-17041	,	-19.42192	,	0
3,4	,	55740	,	-19441	,	-17019	,	-18.098457	,	0
3,4	,	55771	,	-19377	,	-16997	,	-15.100768	,	1
3,4	,	55787	,	-19360	,	-17003	,	-9.228394	,	3
3,4	,	55803	,	-19343	,	-17026	,	0.107975006	,	8
3,4	,	55836	,	-19342	,	-17005	,	12.149216	,	17
3,4	,	55852	,	-19329	,	-17000	,	25.155943	,	29
3,4	,	55884	,	-19317	,	-16984	,	37.27807	,	42
3,4	,	55900	,	-19310	,	-17012	,	47.156357	,	54
3,4	,	55916	,	-19316	,	-16980	,	53.958546	,	63
3,4	,	55947	,	-19300	,	-16984	,	57.271614	,	69
3,4	,	55963	,	-19286	,	-16989	,	57.276184	,	71
3,4	,	55979	,	-19296	,	-16966	,	54.670666	,	69
3,4	,	56012	,	-19290	,	-16985	,	50.17546	,	64
3,4	,	56028	,	-19290	,	-16986	,	44.362774	,	55
3,4	,	56059	,	-19281	,	-16988	,	37.834465	,	43
3,4	,	56075	,	-19271	,	-16981	,	31.28772	,	30
3,4	,	56091	,	-19281	,	-16981	,	25.343332	,	18
3,4	,	56123	,	-19267	,	-16999	,	20.324158	,	9
3,4	,	56139	,	-19261	,	-16965	,	16.372196	,	3
3,4	,	56155	,	-19263	,	-16986	,	13.582509	,	0
3,4	,	56188	,	-19271	,	-16987	,	11.805681	,	0
3,4	,	56203	,	-19276	,	-17023	,	10.580144	,	0
3,4	,	56219	,	-19276	,	-16978	,	9.393671	,	0
3,4	,	56251	,	-19277	,	-16983	,	7.953535	,	0
3,4	,	56267	,	-19285	,	-16984	,	6.194084	,	0
3,4	,	56299	,	-19283	,	-17013	,	4.142475	,	0
3,4	,	56315	,	-19291	,	-16997	,	1.8846338	,	0
3,4	,	56331	,	-19292	,	-16993	,	-0.45453906	,	0
3,4	,	56363	,	-19311	,	-17007	,	-2.8230078	,	0
3,4	,	56379	,	-19313	,	-17002	,	-5.3013234	,	0
3,4	,	56395	,	-19321	,	-16996	,	-7.9562364	,	0
3,4	,	56427	,	-19320	,	-17032	,	-10.672297	,	0
3,4	,	56443	,	-19346	,	-17041	,	-13.286509	,	0
3,4	,	56475	,	-19345	,	-17027	,	-15.808055	,	0
3,4	,	56491	,	-19355	,	-17017	,	-18.281115	,	0
3,4	,	56507	,	-19371	,	-17009	,	-20.642138	,	0
3,4	,	56539	,	-19373	,	-17054	,	-22.838837	,	0
3,4	,	56555	,	-19380	,	-17027	,	-24.797657	,	0
3,4	,	56571	,	-19390	,	-17048	,	-26.371887	,	0
3,5	,	56603	,	-19399	,	-17062	,	-27.483006	,	0
3,5	,	56619	,	-19406	,	-17024	,	-28.163967	,	0
3,5	,	56635	,	-19408	,	-17065	,	-28.448341	,	0
3,5	,	56667	,	-19412	,	-17051	,	-28.293316	,	0
3,5	,	56683	,	-19413	,	-17050	,	-27.620705	,	0
3,5	,	56715	,	-19409	,	-17035	,	-26.354925	,	0
3,5	,	56731	,	-19351	,	-17016	,	-24.14167	,	1
3,5	,	56747	,	-19315	,	-16995	,	-19.996555	,	3
3,5	,	56779	,	-19294	,	-16986	,	-12.81043	,	7
3,5	,	56795	,	-19279	,	-16980	,	-2.3684435	,	14
3,5	,	56811	,	-19271	,	-16995	,	10.375317	,	24
3,5	,	56843	,	-19265	,	-17000	,	23.760008	,	36
3,5	,	56859	,	-19251	,	-16981	,	36.040344	,	49
3,5	,	56891	,	-19249	,	-16972	,	45.882755	,	61
3,5	,	56907	,	-19240	,	-16977	,	52.52743	,	70
3,5	,	56923	,	-19229	,	-16971	,	55.780296	,	75
3,5	,	56955	,	-19230	,	-16956	,	55.93245	,	76
3,5	,	56971	,	-19226	,	-16967	,	53.510986	,	72
3,5	,	56987	,	-19233	,	-16976	,	49.060726	,	65
3,5	,	57019	,	-19233	,	-16961	,	43.080307	,	55
3,5	,	57035	,	-19239	,	-16991	,	36.04854	,	43
3,5	,	57067	,	-19234	,	-16979	,	28.493504	,	30
3,5	,	57083	,	-19233	,	-16989	,	21.019983	,	18
3,5	,	57099	,	-19240	,	-16966	,	14.189602	,	9
3,5	,	57131	,	-19235	,	-17006	,	8.356932	,	3
3,5	,	57147	,	-19237	,	-16977	,	3.6964722	,	0
3,5	,	57163	,	-19239	,	-16986	,	0.26980782	,	0
3,5	,	57195	,	-19253	,	-16978	,	-2.067638	,	0
3,5	,	57211	,	-19252	,	-17003	,	-3.6863241	,	0
3,5	,	57227	,	-19266	,	-17002	,	-5.0045476	,	0
3,5	,	57259	,	-19273	,	-16988	,	-6.3704476	,	0
3,5	,	57275	,	-19270	,	-16987	,	-7.976661	,	0
3,5	,	57307	,	-19286	,	-16988	,	-9.79076	,	0
3,5	,	57323	,	-19296	,	-17016	,	-11.748459	,	0
3,5	,	57339	,	-19294	,	-17010	,	-13.842685	,	0
3,5	,	57371	,	-19312	,	-17011	,	-15.981041	,	0
3,5	,	57387	,	-19315	,	-16998	,	-18.04525	,	0
3,5	,	57403	,	-19326	,	-17001	,	-19.971844	,	0
3,5	,	57435	,	-19324	,	-17007	,	-21.663687	,	0
3,5	,	57451	,	-19348	,	-17007	,	-23.029907	,	0
3,5	,	57483	,	-19341	,	-17031	,	-24.096207	,	0
3,5	,	57499	,	-19346	,	-17024	,	-24.849648	,	0
3,5	,	57515	,	-19351	,	-17033	,	-25.131416	,	0
3,5	,	57547	,	-19367	,	-17002	,	-24.893534	,	0
3,5	,	57563	,	-19367	,	-17046	,	-24.32551	,	0
3,6	,	57579	,	-19374	,	-17013	,	-23.63057	,	0
3,6	,	57611	,	-19384	,	-17041	,	-22.910759	,	0
3,6	,	57627	,	-19395	,	-17031	,	-22.293201	,	0
3,6	,	57643	,	-19405	,	-17053	,	-21.966473	,	0
3,6	,	57675	,	-19420	,	-17020	,	-22.09839	,	0
3,6	,	57691	,	-19425	,	-17046	,	-22.77518	,	0
3,6	,	57723	,	-19425	,	-17060	,	-23.889217	,	0
3,6	,	57739	,	-19420	,	-17047	,	-25.039972	,	0
3,6	,	57755	,	-19376	,	-17026	,	-25.444435	,	0
3,6	,	57786	,	-19336	,	-17007	,	-23.843235	,	0
3,6	,	57803	,	-19313	,	-17009	,	-18.924377	,	1
3,6	,	57819	,	-19297	,	-17014	,	-10.2038145	,	5
3,6	,	57851	,	-19283	,	-17000	,	1.6152868	,	13
3,6	,	57867	,	-19285	,	-16996	,	14.971549	,	24
3,6	,	57898	,	-19281	,	-16997	,	27.929344	,	37
3,6	,	57914	,	-19272	,	-17009	,	38.73723	,	49
3,6	,	57931	,	-19262	,	-16981	,	46.341316	,	59
3,6	,	57963	,	-19269	,	-16991	,	50.42123	,	66
3,6	,	57979	,	-19255	,	-17007	,	51.121357	,	70
3,6	,	57995	,	-19262	,	-16991	,	48.924454	,	69
3,6	,	58026	,	-19266	,	-16972	,	44.48022	,	65
3,6	,	58043	,	-19257	,	-16966	,	38.44806	,	57
3,6	,	58058	,	-19261	,	-17003	,	31.560835	,	46
3,6	,	58090	,	-19250	,	-16994	,	24.591944	,	33
3,6	,	58107	,	-19243	,	-17004	,	18.264507	,	21
3,6	,	58139	,	-19240	,	-16996	,	13.179914	,	11
3,6	,	58155	,	-19243	,	-17006	,	9.617751	,	4
3,6	,	58171	,	-19245	,	-16985	,	7.436469	,	0
3,6	,	58202	,	-19241	,	-17007	,	6.2513337	,	0
3,6	,	58218	,	-19245	,	-16986	,	5.6710043	,	0
3,6	,	58236	,	-19248	,	-17020	,	5.353583	,	0
3,6	,	58266	,	-19259	,	-17004	,	4.9556437	,	0
3,6	,	58282	,	-19259	,	-16999	,	4.1599913	,	0
3,6	,	58315	,	-19267	,	-17020	,	2.7862873	,	0
3,6	,	58330	,	-19282	,	-17006	,	0.77704453	,	0
3,6	,	58346	,	-19279	,	-17010	,	-1.8653831	,	0
3,6	,	58378	,	-19289	,	-17036	,	-4.978181	,	0
3,6	,	58394	,	-19293	,	-17032	,	-8.2537565	,	0
3,6	,	58410	,	-19311	,	-17014	,	-11.45626	,	0
3,6	,	58443	,	-19323	,	-17047	,	-14.552914	,	0
3,6	,	58458	,	-19321	,	-17020	,	-17.57707	,	0
3,6	,	58474	,	-19328	,	-17029	,	-20.376194	,	0
3,6	,	58507	,	-19339	,	-17061	,	-22.689339	,	0
3,6	,	58523	,	-19348	,	-17058	,	-24.412678	,	0
3,6	,	58555	,	-19353	,	-17069	,	-25.60028	,	0
3,6	,	58571	,	-19349	,	-17037	,	-26.26188	,	0
3,7	,	58586	,	-19374	,	-17068	,	-26.367577	,	0
3,7	,	58618	,	-19370	,	-17048	,	-26.05613	,	0
3,7	,	58634	,	-19378	,	-17066	,	-25.531624	,	0
3,7	,	58650	,	-19401	,	-17080	,	-24.949255	,	0
3,7	,	58682	,	-19401	,	-17070	,	-24.55636	,	0
3,7	,	58698	,	-19405	,	-17082	,	-24.511456	,	0
3,7	,	58730	,	-19399	,	-17077	,	-24.61817	,	0
3,7	,	58746	,	-19395	,	-17076	,	-24.418865	,	0
3,7	,	58762	,	-19376	,	-17064	,	-23.370346	,	0
3,7	,	58794	,	-19339	,	-17034	,	-20.837608	,	1
3,7	,	58810	,	-19311	,	-17014	,	-16.071178	,	3
3,7	,	58826	,	-19307	,	-17042	,	-8.631516	,	7
3,7	,	58858	,	-19299	,	-17029	,	1.0332918	,	14
3,7	,	58874	,	-19292	,	-17007	,	11.683273	,	23
3,7	,	58890	,	-19285	,	-17022	,	21.89752	,	33
3,7	,	58922	,	-19285	,	-17010	,	30.495495	,	43
3,7	,	58938	,	-19279	,	-17000	,	36.669388	,	51
3,7	,	58970	,	-19285	,	-17026	,	40.01381	,	57
3,7	,	58986	,	-19295	,	-17006	,	40.430195	,	59
3,7	,	59002	,	-19300	,	-17027	,	38.017002	,	57
3,7	,	59034	,	-19293	,	-17039	,	33.173923	,	53
3,7	,	59050	,	-19293	,	-17018	,	26.709637	,	46
3,7	,	59066	,	-19285	,	-17041	,	19.669436	,	37
3,7	,	59098	,	-19293	,	-17006	,	13.009436	,	27
3,7	,	59114	,	-19290	,	-17020	,	7.3429546	,	17
3,7	,	59146	,	-19289	,	-17027	,	2.9318047	,	9
3,7	,	59162	,	-19294	,	-17005	,	-0.18429327	,	3
3,7	,	59178	,	-19305	,	-17029	,	-2.1972945	,	0
3,7	,	59210	,	-19309	,	-17004	,	-3.529075	,	0
3,7	,	59226	,	-19316	,	-17029	,	-4.630748	,	0
3,7	,	59242	,	-19320	,	-17019	,	-5.799271	,	0
3,7	,	59274	,	-19343	,	-17026	,	-7.2322598	,	0
3,7	,	59290	,	-19325	,	-17005	,	-9.043248	,	0
3,7	,	59322	,	-19337	,	-17040	,	-11.04867	,	0
3,7	,	59338	,	-19341	,	-17030	,	-12.880317	,	0
3,7	,	59354	,	-19354	,	-17026	,	-14.374468	,	0
3,7	,	59386	,	-19367	,	-17061	,	-15.649695	,	0
3,7	,	59402	,	-19374	,	-17021	,	-16.94312	,	0
3,7	,	59418	,	-19376	,	-17025	,	-18.38015	,	0
3,7	,	59450	,	-19377	,	-17065	,	-19.82463	,	0
3,7	,	59466	,	-19382	,	-17036	,	-20.980167	,	0
3,7	,	59482	,	-19397	,	-17024	,	-21.663818	,	0
3,7	,	59514	,	-19400	,	-17023	,	-21.95346	,	0
3,7	,	59530	,	-19403	,	-17058	,	-22.002663	,	0
3,7	,	59562	,	-19406	,	-17067	,	-21.834497	,	0
3,7	,	59578	,	-19413	,	-17043	,	-21.405127	,	0
3,8	,	59594	,	-19428	,	-17020	,	-20.78621	,	0
3,8	,	59626	,	-19451	,	-17036	,	-20.30298	,	0
3,8	,	59642	,	-19451	,	-17031	,	-20.40636	,	0
3,8	,	59658	,	-19451	,	-17062	,	-21.231276	,	0
3,8	,	59690	,	-19449	,	-17061	,	-22.398544	,	0
3,8	,	59706	,	-19438	,	-17023	,	-23.251852	,	0
3,8	,	59738	,	-19394	,	-17021	,	-22.943794	,	0
3,8	,	59754	,	-19361	,	-17007	,	-20.353813	,	0
3,8	,	59770	,	-19344	,	-17004	,	-14.522574	,	2
3,8	,	59802	,	-19342	,	-17033	,	-5.438587	,	7
3,8	,	59818	,	-19325	,	-16990	,	5.806095	,	16
3,8	,	59834	,	-19320	,	-17016	,	17.630405	,	27
3,8	,	59866	,	-19309	,	-16996	,	28.567959	,	38
3,8	,	59882	,	-19308	,	-16990	,	37.494812	,	48
3,8	,	59898	,	-19301	,	-17005	,	43.688133	,	56
3,8	,	59930	,	-19301	,	-17020	,	46.851856	,	62
3,8	,	59946	,	-19308	,	-17024	,	47.033943	,	65
3,8	,	59978	,	-19309	,	-17003	,	44.482025	,	63
3,8	,	59994	,	-19307	,	-17010	,	39.653603	,	58
3,8	,	60010	,	-19303	,	-17016	,	33.280033	,	49
3,8	,	60042	,	-19301	,	-17034	,	26.252945	,	38
3,8	,	60058	,	-19298	,	-17007	,	19.41288	,	27
3,8	,	60074	,	-19302	,	-16997	,	13.374789	,	17
3,8	,	60106	,	-19301	,	-17013	,	8.444883	,	9
3,8	,	60122	,	-19298	,	-17015	,	4.6971025	,	3
3,8	,	60154	,	-19298	,	-17009	,	2.1047702	,	0
3,8	,	60170	,	-19308	,	-17006	,	0.5167918	,	0
3,8	,	60186	,	-19317	,	-17011	,	-0.43953204	,	0
3,8	,	60218	,	-19316	,	-17025	,	-1.2401204	,	0
3,8	,	60234	,	-19315	,	-17037	,	-2.1628869	,	0
3,8	,	60250	,	-19327	,	-17044	,	-3.2337968	,	0
3,8	,	60282	,	-19325	,	-17062	,	-4.4306197	,	0
3,8	,	60298	,	-19329	,	-17009	,	-5.717576	,	0
3,8	,	60330	,	-19348	,	-17019	,	-7.066064	,	0
3,8	,	60346	,	-19355	,	-17044	,	-8.609858	,	0
3,8	,	60362	,	-19370	,	-17046	,	-10.570646	,	0
3,8	,	60394	,	-19362	,	-17037	,	-12.978793	,	0
3,8	,	60409	,	-19376	,	-17070	,	-15.562294	,	0
3,8	,	60426	,	-19371	,	-17066	,	-17.925598	,	0
3,8	,	60458	,	-19378	,	-17053	,	-19.73274	,	0
3,8	,	60474	,	-19389	,	-17042	,	-20.806042	,	0
3,8	,	60490	,	-19398	,	-17072	,	-21.239246	,	0
3,8	,	60522	,	-19409	,	-17073	,	-21.337435	,	0
3,8	,	60538	,	-19421	,	-17059	,	-21.443417	,	0
3,8	,	60570	,	-19433	,	-17081	,	-21.841198	,	0
3,9	,	60586	,	-19433	,	-17094	,	-22.648285	,	0
3,9	,	60601	,	-19440	,	-17096	,	-23.715273	,	0
3,9	,	60634	,	-19459	,	-17107	,	-24.799519	,	0
3,9	,	60649	,	-19468	,	-17107	,	-25.852287	,	0
3,9	,	60666	,	-19468	,	-17102	,	-26.911419	,	0
3,9	,	60698	,	-19475	,	-17096	,	-27.83924	,	0
3,9	,	60714	,	-19459	,	-17096	,	-28.296679	,	0
3,9	,	60745	,	-19417	,	-17049	,	-27.618633	,	0
3,9	,	60761	,	-19383	,	-17070	,	-24.703213	,	0
3,9	,	60777	,	-19361	,	-17030	,	-18.522663	,	2
3,9	,	60810	,	-19340	,	-17063	,	-8.859828	,	8
3,9	,	60826	,	-19348	,	-17051	,	3.4206953	,	17
3,9	,	60842	,	-19331	,	-17049	,	16.627945	,	29
3,9	,	60873	,	-19334	,	-17018	,	28.900267	,	42
3,9	,	60889	,	-19330	,	-17042	,	38.75228	,	54
3,9	,	60905	,	-19320	,	-17034	,	45.28824	,	63
3,9	,	60938	,	-19330	,	-17006	,	48.246048	,	69
3,9	,	60954	,	-19327	,	-17045	,	47.801662	,	71
3,9	,	60986	,	-19313	,	-17039	,	44.49154	,	69
3,9	,	61002	,	-19332	,	-17018	,	39.17909	,	63
3,9	,	61018	,	-19340	,	-17020	,	32.616646	,	54
3,9	,	61050	,	-19335	,	-17040	,	25.283852	,	42
3,9	,	61065	,	-19335	,	-17025	,	17.736187	,	29
3,9	,	61081	,	-19329	,	-16999	,	10.683208	,	17
3,9	,	61113	,	-19327	,	-17035	,	4.7698755	,	8
3,9	,	61129	,	-19333	,	-17027	,	0.38406658	,	2
3,9	,	61161	,	-19338	,	-17033	,	-2.4773746	,	0
3,9	,	61177	,	-19333	,	-17024	,	-4.105582	,	0
3,9	,	61194	,	-19348	,	-17048	,	-4.869451	,	0
3,9	,	61228	,	-19351	,	-17031	,	-5.197261	,	0
3,9	,	61241	,	-19357	,	-17051	,	-5.5223966	,	0
3,9	,	61257	,	-19364	,	-17025	,	-6.12704	,	0
3,9	,	61289	,	-19375	,	-17033	,	-7.1511917	,	0
3,9	,	61306	,	-19390	,	-17066	,	-8.708303	,	0
3,9	,	61321	,	-19385	,	-17050	,	-10.834092	,	0
3,9	,	61353	,	-19396	,	-17066	,	-13.319529	,	0
3,9	,	61369	,	-19413	,	-17045	,	-15.869968	,	0
3,9	,	61401	,	-19419	,	-17068	,	-18.390697	,	0
3,9	,	61417	,	-19419	,	-17074	,	-20.832628	,	0
3,9	,	61433	,	-19422	,	-17044	,	-22.94668	,	0
3,9	,	61465	,	-19437	,	-17064	,	-24.452162	,	0
3,9	,	61481	,	-19442	,	-17063	,	-25.307781	,	0
3,9	,	61497	,	-19450	,	-17051	,	-25.654987	,	0
3,9	,	61529	,	-19469	,	-17049	,	-25.701141	,	0
3,9	,	61545	,	-19463	,	-17061	,	-25.68095	,	0
3,9	,	61577	,	-19479	,	-17037	,	-25.69835	,	0
3,10	,	61593	,	-19478	,	-17051	,	-25.70408	,	0
3,10	,	61609	,	-19489	,	-17073	,	-25.619358	,	0
3,10	,	61641	,	-19488	,	-17086	,	-25.364902	,	0
3,10	,	61657	,	-19509	,	-17086	,	-24.92974	,	0
3,10	,	61673	,	-19505	,	-17091	,	-24.429039	,	0
3,10	,	61705	,	-19517	,	-17067	,	-23.971363	,	0
3,10	,	61721	,	-19526	,	-17099	,	-23.598694	,	0
3,10	,	61737	,	-19516	,	-17055	,	-23.290337	,	0
3,10	,	61769	,	-19485	,	-17042	,	-22.673628	,	0
3,10	,	61785	,	-19437	,	-17034	,	-20.746052	,	0
3,10	,	61817	,	-19429	,	-17044	,	-16.274895	,	1
3,10	,	61833	,	-19406	,	-17044	,	-8.709235	,	5
3,10	,	61849	,	-19401	,	-17055	,	1.4266987	,	12
3,10	,	61881	,	-19396	,	-17042	,	12.852481	,	22
3,10	,	61897	,	-19386	,	-17052	,	24.011278	,	33
3,10	,	61913	,	-19384	,	-17037	,	33.5352	,	44
3,10	,	61945	,	-19377	,	-17065	,	40.51105	,	53
3,10	,	61961	,	-19378	,	-17035	,	44.509476	,	59
3,10	,	61993	,	-19369	,	-17041	,	45.546986	,	62
3,10	,	62009	,	-19374	,	-17037	,	43.99155	,	62
3,10	,	62025	,	-19373	,	-17026	,	40.37464	,	58
3,10	,	62057	,	-19379	,	-17051	,	35.239468	,	51
3,10	,	62073	,	-19392	,	-17062	,	29.06045	,	41
3,10	,	62089	,	-19382	,	-17031	,	22.249464	,	30
3,10	,	62121	,	-19374	,	-17041	,	15.376888	,	19
3,10	,	62137	,	-19361	,	-17039	,	9.267986	,	10
3,10	,	62153	,	-19377	,	-17056	,	4.627552	,	4
3,10	,	62185	,	-19372	,	-17057	,	1.6167598	,	1
3,10	,	62201	,	-19368	,	-17066	,	-0.020263195	,	0
3,10	,	62233	,	-19372	,	-17046	,	-0.5990882	,	0
3,10	,	62249	,	-19377	,	-17061	,	-0.47428936	,	0
3,10	,	62265	,	-19382	,	-17067	,	-0.09124918	,	0
3,10	,	62297	,	-19389	,	-17059	,	0.117969066	,	0
3,10	,	62313	,	-19389	,	-17051	,	-0.13999747	,	0
3,10	,	62329	,	-19395	,	-17078	,	-0.94694114	,	0
3,10	,	62361	,	-19397	,	-17051	,	-2.2211757	,	0
3,10	,	62377	,	-19403	,	-17058	,	-3.8156204	,	0
3,10	,	62409	,	-19408	,	-17081	,	-5.581407	,	0
3,10	,	62425	,	-19405	,	-17084	,	-7.3648443	,	0
3,10	,	62441	,	-19423	,	-17085	,	-9.023607	,	0
3,10	,	62473	,	-19439	,	-17092	,	-10.617679	,	0
3,10	,	62489	,	-19435	,	-17095	,	-12.38293	,	0
3,10	,	62505	,	-19443	,	-17054	,	-14.356293	,	0
3,10	,	62537	,	-19447	,	-17094	,	-16.309376	,	0
3,10	,	62553	,	-19462	,	-17097	,	-18.045456	,	0
3,11	,	62585	,	-19465	,	-17109	,	-19.540745	,	0
3,11	,	62601	,	-19472	,	-17094	,	-20.818272	,	0
3,11	,	62617	,	-19477	,	-17081	,	-21.832111	,	0
3,11	,	62649	,	-19486	,	-17104	,	-22.526752	,	0
3,11	,	62665	,	-19486	,	-17117	,	-22.888018	,	0
3,11	,	62681	,	-19491	,	-17118	,	-22.888819	,	0
3,11	,	62713	,	-19507	,	-17123	,	-22.548492	,	0
3,11	,	62729	,	-19518	,	-17114	,	-22.0886	,	0
3,11	,	62745	,	-19514	,	-17129	,	-21.789719	,	0
3,11	,	62777	,	-19509	,	-17121	,	-21.627388	,	0
3,11	,	62793	,	-19490	,	-17111	,	-21.156412	,	0
3,11	,	62825	,	-19452	,	-17098	,	-19.577724	,	0
3,11	,	62841	,	-19418	,	-17083	,	-15.860517	,	1
3,11	,	62857	,	-19419	,	-17086	,	-9.29078	,	4
3,11	,	62889	,	-19404	,	-17082	,	-0.14892101	,	10
3,11	,	62905	,	-19409	,	-17076	,	10.34166	,	19
3,11	,	62921	,	-19396	,	-17074	,	20.62736	,	29
3,11	,	62953	,	-19379	,	-17070	,	29.45059	,	39
3,11	,	62969	,	-19374	,	-17058	,	36.183174	,	47
3,11	,	63001	,	-19378	,	-17060	,	40.608635	,	53
3,11	,	63017	,	-19373	,	-17031	,	42.615967	,	57
3,11	,	63033	,	-19375	,	-17059	,	42.240456	,	58
3,11	,	63065	,	-19379	,	-17076	,	39.71758	,	55
3,11	,	63081	,	-19380	,	-17041	,	35.41154	,	49
3,11	,	63097	,	-19371	,	-17028	,	29.853952	,	40
3,11	,	63128	,	-19368	,	-17028	,	23.796993	,	30
3,11	,	63145	,	-19369	,	-17045	,	18.012955	,	20
3,11	,	63161	,	-19372	,	-17021	,	12.996117	,	12
3,11	,	63193	,	-19369	,	-17023	,	8.911242	,	6
3,11	,	63209	,	-19372	,	-17053	,	5.746271	,	2
3,11	,	63240	,	-19369	,	-17026	,	3.42136	,	0
3,11	,	63257	,	-19379	,	-17018	,	1.7833858	,	0
3,11	,	63272	,	-19386	,	-17040	,	0.55109787	,	0
3,11	,	63305	,	-19391	,	-17043	,	-0.6288905	,	0
3,11	,	63321	,	-19395	,	-17053	,	-2.0061553	,	0
3,11	,	63337	,	-19391	,	-17064	,	-3.6047873	,	0
3,11	,	63369	,	-19389	,	-17052	,	-5.20663	,	0
3,11	,	63385	,	-19400	,	-17036	,	-6.529272	,	0
3,11	,	63416	,	-19404	,	-17059	,	-7.5022106	,	0
3,11	,	63433	,	-19406	,	-17069	,	-8.246975	,	0
3,11	,	63449	,	-19408	,	-17068	,	-8.852692	,	0
3,11	,	63481	,	-19422	,	-17062	,	-9.373041	,	0
3,11	,	63497	,	-19431	,	-17041	,	-9.976569	,	0
3,11	,	63513	,	-19433	,	-17039	,	-10.875683	,	0
3,11	,	63544	,	-19431	,	-17042	,	-12.068222	,	0
3,11	,	63560	,	-19446	,	-17033	,	-13.341084	,	0
3,11	,	63576	,	-19461	,	-17076	,	-14.603228	,	0
3,12	,	63609	,	-19453	,	-17044	,	-15.931992	,	0
3,12	,	63625	,	-19455	,	-17052	,	-17.220392	,	0
3,12	,	63657	,	-19463	,	-17033	,	-18.167345	,	0
3,12	,	63673	,	-19466	,	-17070	,	-18.609097	,	0
3,12	,	63688	,	-19483	,	-17045	,	-18.634113	,	0
3,12	,	63720	,	-19493	,	-17059	,	-18.534565	,	0
3,12	,	63736	,	-19478	,	-17037	,	-18.553707	,	0
3,12	,	63752	,	-19453	,	-17056	,	-18.41584	,	0
3,12	,	63784	,	-19424	,	-17022	,	-17.228687	,	0
3,12	,	63801	,	-19398	,	-17008	,	-13.949387	,	1
3,12	,	63832	,	-19385	,	-17029	,	-7.9850864	,	4
3,12	,	63848	,	-19376	,	-17008	,	0.43206692	,	9
3,12	,	63864	,	-19375	,	-17021	,	10.279001	,	17
3,12	,	63896	,	-19373	,	-17030	,	20.115482	,	26
3,12	,	63912	,	-19363	,	-17035	,	28.585144	,	35
3,12	,	63928	,	-19355	,	-17010	,	34.83385	,	43
3,12	,	63960	,	-19352	,	-17033	,	38.590584	,	49
3,12	,	63976	,	-19363	,	-17008	,	39.88642	,	52
3,12	,	63992	,	-19358	,	-17022	,	38.820427	,	52
3,12	,	64024	,	-19361	,	-17039	,	35.652096	,	49
3,12	,	64041	,	-19352	,	-17030	,	30.925592	,	44
3,12	,	64072	,	-19354	,	-17012	,	25.37994	,	36
3,12	,	64089	,	-19355	,	-17042	,	19.719265	,	27
3,12	,	64104	,	-19348	,	-17039	,	14.4667425	,	18
3,12	,	64136	,	-19341	,	-17016	,	10.045823	,	10
3,12	,	64152	,	-19345	,	-17013	,	6.7774515	,	4
3,12	,	64168	,	-19345	,	-17014	,	4.6952343	,	1
3,12	,	64200	,	-19346	,	-17036	,	3.5468893	,	0
3,12	,	64217	,	-19352	,	-17010	,	2.970026	,	0
3,12	,	64248	,	-19360	,	-17036	,	2.5705774	,	0
3,12	,	64264	,	-19360	,	-17053	,	1.9852104	,	0
3,12	,	64280	,	-19347	,	-17036	,	1.0998228	,	0
3,12	,	64312	,	-19354	,	-17021	,	0.134089	,	0
3,12	,	64328	,	-19340	,	-17010	,	-0.59054095	,	0
3,12	,	64344	,	-19334	,	-17011	,	-0.791143	,	0
3,12	,	64376	,	-19323	,	-16996	,	-0.21233079	,	0
3,12	,	64392	,	-19319	,	-17004	,	1.2845478	,	0
3,12	,	64424	,	-19327	,	-17027	,	3.5560062	,	1
3,12	,	64440	,	-19330	,	-17009	,	6.0897555	,	3
3,12	,	64456	,	-19335	,	-17012	,	8.201843	,	5
3,12	,	64488	,	-19336	,	-17024	,	9.371798	,	7
3,12	,	64504	,	-19345	,	-17038	,	9.366395	,	8
3,12	,	64520	,	-19349	,	-17009	,	8.164324	,	8
3,12	,	64552	,	-19361	,	-17023	,	5.8641224	,	8
3,12	,	64568	,	-19364	,	-17024	,	2.6493263	,	8
3,13	,	64584	,	-19375	,	-17041	,	-1.2122428	,	8
3,13	,	64617	,	-19389	,	-17036	,	-5.446776	,	7
3,13	,	64632	,	-19408	,	-17038	,	-9.917426	,	5
3,13	,	64664	,	-19430	,	-17043	,	-14.667576	,	3
3,13	,	64680	,	-19442	,	-17072	,	-19.79187	,	1
3,13	,	64696	,	-19422	,	-17057	,	-25.052584	,	0
3,13	,	64728	,	-19393	,	-17025	,	-29.469702	,	0
3,13	,	64744	,	-19346	,	-17019	,	-31.413452	,	0
3,13	,	64760	,	-19337	,	-17027	,	-29.338043	,	0
3,13	,	64792	,	-19318	,	-17015	,	-22.697105	,	2
3,13	,	64808	,	-19310	,	-17002	,	-12.2277355	,	8
3,13	,	64840	,	-19304	,	-17014	,	0.4840641	,	18
3,13	,	64856	,	-19296	,	-17009	,	13.570133	,	30
3,13	,	64872	,	-19291	,	-17018	,	25.361595	,	43
3,13	,	64904	,	-19287	,	-17001	,	34.671032	,	54
3,13	,	64920	,	-19270	,	-16987	,	40.912174	,	63
3,13	,	64936	,	-19281	,	-17004	,	44.063316	,	69
3,13	,	64968	,	-19279	,	-17001	,	44.350967	,	72
3,13	,	64984	,	-19279	,	-16993	,	42.086174	,	70
3,13	,	65000	,	-19281	,	-16984	,	37.764305	,	64
3,13	,	65032	,	-19282	,	-17003	,	32.023457	,	54
3,13	,	65048	,	-19280	,	-17010	,	25.536112	,	42
3,13	,	65080	,	-19279	,	-17014	,	18.969528	,	29
3,13	,	65096	,	-19276	,	-16994	,	12.928592	,	18
3,13	,	65112	,	-19284	,	-17021	,	7.835904	,	9
3,13	,	65144	,	-19278	,	-17028	,	3.845518	,	3
3,13	,	65160	,	-19295	,	-17017	,	0.8724766	,	0
3,13	,	65176	,	-19300	,	-17006	,	-1.3843548	,	0
3,13	,	65208	,	-19308	,	-17002	,	-3.3379984	,	0
3,13	,	65224	,	-19311	,	-17009	,	-5.2866683	,	0
3,13	,	65256	,	-19323	,	-17004	,	-7.349565	,	0
3,13	,	65272	,	-19329	,	-17008	,	-9.564637	,	0
3,13	,	65288	,	-19335	,	-17008	,	-11.90946	,	0
3,13	,	65320	,	-19343	,	-17023	,	-14.275648	,	0
3,13	,	65336	,	-19352	,	-17016	,	-16.53778	,	0
3,13	,	65352	,	-19366	,	-17026	,	-18.651112	,	0
3,13	,	65384	,	-19358	,	-17047	,	-20.583595	,	0
3,13	,	65400	,	-19377	,	-17038	,	-22.19888	,	0
3,13	,	65416	,	-19385	,	-17040	,	-23.414785	,	0
3,13	,	65448	,	-19385	,	-17044	,	-24.293995	,	0
3,13	,	65464	,	-19398	,	-17042	,	-24.865223	,	0
3,13	,	65496	,	-19391	,	-17058	,	-25.075108	,	0
3,13	,	65512	,	-19407	,	-17066	,	-24.860596	,	0
3,13	,	65528	,	-19417	,	-17051	,	-24.291388	,	0
3,13	,	65560	,	-19419	,	-17063	,	-23.599373	,	0
3,13	,	65576	,	-19438	,	-17029	,	-23.009172	,	0
3,14	,	65592	,	-19442	,	-17048	,	-22.710953	,	0
3,14	,	65623	,	-19442	,	-17036	,	-22.785389	,	0
3,14	,	65640	,	-19459	,	-17053	,	-23.11528	,	0
3,14	,	65672	,	-19460	,	-17037	,	-23.562874	,	0
3,14	,	65688	,	-19464	,	-17061	,	-24.015541	,	0
3,14	,	65704	,	-19478	,	-17048	,	-24.336323	,	0
3,14	,	65736	,	-19481	,	-17077	,	-24.481756	,	0
3,14	,	65752	,	-19470	,	-17047	,	-24.399658	,	0
3,14	,	65768	,	-19445	,	-17043	,	-23.699213	,	0
3,14	,	65800	,	-19396	,	-17013	,	-21.490143	,	0
3,14	,	65816	,	-19367	,	-16997	,	-16.609333	,	2
3,14	,	65832	,	-19344	,	-17024	,	-8.310615	,	6
3,14	,	65864	,	-19338	,	-16985	,	3.0967855	,	14
3,14	,	65880	,	-19327	,	-16998	,	16.26949	,	25
3,14	,	65912	,	-19328	,	-16986	,	29.358822	,	38
3,14	,	65928	,	-19314	,	-17020	,	40.625374	,	51
3,14	,	65944	,	-19316	,	-17019	,	48.873016	,	62
3,14	,	65976	,	-19306	,	-16989	,	53.562	,	70
3,14	,	65991	,	-19304	,	-17009	,	54.73095	,	74
3,14	,	66008	,	-19302	,	-16991	,	52.844242	,	73
3,14	,	66040	,	-19311	,	-17003	,	48.526764	,	69
3,14	,	66056	,	-19310	,	-16990	,	42.372738	,	61
3,14	,	66088	,	-19313	,	-16992	,	34.99145	,	50
3,14	,	66104	,	-19308	,	-17005	,	27.093271	,	37
3,14	,	66120	,	-19300	,	-17022	,	19.466333	,	24
3,14	,	66151	,	-19299	,	-16996	,	12.85397	,	13
3,14	,	66167	,	-19299	,	-17001	,	7.7395296	,	5
3,14	,	66184	,	-19302	,	-17010	,	4.2118864	,	1
3,14	,	66215	,	-19299	,	-17000	,	2.055869	,	0
3,14	,	66231	,	-19306	,	-16987	,	0.91937566	,	0
3,14	,	66264	,	-19303	,	-17017	,	0.4206848	,	0
3,14	,	66280	,	-19309	,	-17026	,	0.22775501	,	0
3,14	,	66296	,	-19307	,	-16999	,	0.10382429	,	0
3,14	,	66327	,	-19316	,	-17020	,	-0.11750716	,	0
3,14	,	66343	,	-19326	,	-17047	,	-0.6173021	,	0
3,14	,	66359	,	-19332	,	-17048	,	-1.616081	,	0
3,14	,	66392	,	-19344	,	-17032	,	-3.2708428	,	0
3,14	,	66408	,	-19349	,	-17060	,	-5.5981207	,	0
3,14	,	66423	,	-19355	,	-17066	,	-8.453234	,	0
3,14	,	66455	,	-19362	,	-17066	,	-11.555515	,	0
3,14	,	66471	,	-19372	,	-17062	,	-14.615905	,	0
3,14	,	66503	,	-19377	,	-17075	,	-17.42829	,	0
3,14	,	66519	,	-19376	,	-17063	,	-19.800364	,	0
3,14	,	66535	,	-19390	,	-17041	,	-21.536377	,	0
3,14	,	66568	,	-19411	,	-17076	,	-22.67471	,	0
3,15	,	66584	,	-19420	,	-17074	,	-23.58818	,	0
3,15	,	66600	,	-19421	,	-17089	,	-24.614489	,	0
3,15	,	66632	,	-19441	,	-17059	,	-25.796148	,	0
3,15	,	66647	,	-19443	,	-17105	,	-27.060669	,	0
3,15	,	66679	,	-19452	,	-17104	,	-28.310822	,	0
3,15	,	66695	,	-19468	,	-17108	,	-29.423454	,	0
3,15	,	66711	,	-19470	,	-17111	,	-30.346592	,	0
3,15	,	66743	,	-19469	,	-17088	,	-30.987965	,	0
3,15	,	66760	,	-19479	,	-17127	,	-31.12616	,	0
3,15	,	66775	,	-19491	,	-17114	,	-30.65222	,	0
3,15	,	66807	,	-19488	,	-17121	,	-29.676136	,	0
3,15	,	66823	,	-19479	,	-17113	,	-28.243195	,	0
3,15	,	66839	,	-19453	,	-17078	,	-26.053082	,	1
3,15	,	66871	,	-19418	,	-17078	,	-22.430424	,	3
3,15	,	66887	,	-19382	,	-17040	,	-16.52885	,	6
3,15	,	66919	,	-19374	,	-17073	,	-7.842928	,	11
3,15	,	66935	,	-19370	,	-17052	,	3.1995344	,	19
3,15	,	66951	,	-19361	,	-17061	,	15.244629	,	30
3,15	,	66983	,	-19355	,	-17044	,	26.66653	,	42
3,15	,	66999	,	-19356	,	-17062	,	36.109634	,	53
3,15	,	67015	,	-19345	,	-17051	,	42.688953	,	62
3,15	,	67047	,	-19348	,	-17050	,	46.07439	,	67
3,15	,	67063	,	-19339	,	-17032	,	46.424545	,	68
3,15	,	67095	,	-19346	,	-17021	,	44.204044	,	65
3,15	,	67111	,	-19349	,	-17048	,	39.972588	,	60
3,15	,	67127	,	-19351	,	-17038	,	34.267647	,	52
3,15	,	67159	,	-19342	,	-17019	,	27.69913	,	41
3,15	,	67175	,	-19351	,	-17048	,	20.971674	,	29
3,15	,	67191	,	-19336	,	-17033	,	14.72855	,	18
3,15	,	67223	,	-19348	,	-17027	,	9.449362	,	9
3,15	,	67239	,	-19344	,	-17047	,	5.3520203	,	3
3,15	,	67255	,	-19347	,	-17039	,	2.3816018	,	0
3,15	,	67287	,	-19355	,	-17018	,	0.33088923	,	0
3,15	,	67303	,	-19356	,	-17062	,	-1.1039603	,	0
3,15	,	67335	,	-19372	,	-17047	,	-2.2842908	,	0
3,15	,	67351	,	-19379	,	-17035	,	-3.5903316	,	0
3,15	,	67367	,	-19382	,	-17058	,	-5.304061	,	0
3,15	,	67399	,	-19391	,	-17063	,	-7.4576416	,	0
3,15	,	67415	,	-19391	,	-17048	,	-9.876239	,	0
3,15	,	67431	,	-19403	,	-17079	,	-12.314615	,	0
3,15	,	67463	,	-19417	,	-17078	,	-14.6240015	,	0
3,15	,	67479	,	-19417	,	-17048	,	-16.798416	,	0
3,15	,	67511	,	-19423	,	-17053	,	-18.781754	,	0
3,15	,	67527	,	-19432	,	-17054	,	-20.426105	,	0
3,15	,	67543	,	-19437	,	-17086	,	-21.650902	,	0
3,15	,	67575	,	-19439	,	-17076	,	-22.43777	,	0
3,16	,	67591	,	-19446	,	-17059	,	-22.751022	,	0
3,16	,	67607	,	-19456	,	-17055	,	-22.618889	,	0
3,16	,	67639	,	-19451	,	-17060	,	-22.158373	,	0
3,16	,	67655	,	-19466	,	-17096	,	-21.463238	,	0
3,16	,	67687	,	-19476	,	-17052	,	-20.674992	,	0
3,16	,	67703	,	-19474	,	-17075	,	-20.015533	,	0
3,16	,	67719	,	-19488	,	-17077	,	-19.600826	,	0
3,16	,	67751	,	-19500	,	-17070	,	-19.480934	,	0
3,16	,	67767	,	-19502	,	-17079	,	-19.735035	,	0
3,16	,	67783	,	-19510	,	-17092	,	-20.328257	,	0
3,16	,	67815	,	-19524	,	-17087	,	-21.127613	,	0
3,16	,	67831	,	-19528	,	-17093	,	-22.060112	,	0
3,16	,	67847	,	-19532	,	-17108	,	-23.046337	,	0
3,16	,	67879	,	-19517	,	-17102	,	-23.806042	,	0
3,16	,	67895	,	-19487	,	-17068	,	-23.699234	,	0
3,16	,	67927	,	-19458	,	-17073	,	-21.756214	,	0
3,16	,	67943	,	-19438	,	-17045	,	-17.102089	,	1
3,16	,	67959	,	-19415	,	-17053	,	-9.462243	,	5
3,16	,	67991	,	-19415	,	-17038	,	0.63998127	,	12
3,16	,	68007	,	-19403	,	-17034	,	11.984298	,	22
3,16	,	68023	,	-19404	,	-17070	,	23.039036	,	33
3,16	,	68055	,	-19397	,	-17056	,	32.418015	,	44
3,16	,	68071	,	-19400	,	-17040	,	39.136055	,	53
3,16	,	68103	,	-19399	,	-17039	,	42.688515	,	59
3,16	,	68119	,	-19398	,	-17065	,	43.050316	,	62
3,16	,	68135	,	-19411	,	-17057	,	40.560318	,	61
3,16	,	68167	,	-19405	,	-17069	,	35.74753	,	57
3,16	,	68183	,	-19397	,	-17055	,	29.370737	,	50
3,16	,	68199	,	-19403	,	-17061	,	22.40872	,	40
3,16	,	68231	,	-19382	,	-17057	,	15.809967	,	29
3,16	,	68247	,	-19379	,	-17054	,	10.394743	,	18
3,16	,	68263	,	-19375	,	-17036	,	6.734788	,	9
3,16	,	68295	,	-19375	,	-17056	,	4.925927	,	3
3,16	,	68310	,	-19383	,	-17038	,	4.590405	,	0
3,16	,	68343	,	-19390	,	-17072	,	5.036173	,	0
3,16	,	68359	,	-19389	,	-17070	,	5.5287166	,	0
3,16	,	68375	,	-19389	,	-17082	,	5.606017	,	0
3,16	,	68407	,	-19395	,	-17061	,	5.1280007	,	0
3,16	,	68423	,	-19400	,	-17089	,	4.090103	,	0
3,16	,	68439	,	-19414	,	-17069	,	2.468117	,	0
3,16	,	68471	,	-19415	,	-17085	,	0.22219539	,	0
3,16	,	68487	,	-19436	,	-17091	,	-2.6360435	,	0
3,16	,	68519	,	-19441	,	-17091	,	-6.068306	,	0
3,16	,	68535	,	-19452	,	-17099	,	-9.979994	,	0
3,16	,	68551	,	-19455	,	-17085	,	-14.115969	,	0
3,17	,	68582	,	-19467	,	-17069	,	-18.11147	,	0
3,17	,	68599	,	-19480	,	-17107	,	-21.678963	,	0
3,17	,	68615	,	-19477	,	-17109	,	-24.662855	,	0
3,17	,	68646	,	-19488	,	-17109	,	-26.910858	,	0
3,17	,	68663	,	-19481	,	-17120	,	-28.236443	,	0
3,17	,	68679	,	-19498	,	-17085	,	-28.529898	,	0
3,17	,	68711	,	-19518	,	-17120	,	-27.98679	,	0
3,17	,	68726	,	-19515	,	-17128	,	-27.112186	,	0
3,17	,	68759	,	-19521	,	-17131	,	-26.27418	,	0
3,17	,	68775	,	-19519	,	-17135	,	-25.475101	,	0
3,17	,	68790	,	-19521	,	-17132	,	-24.52909	,	0
3,17	,	68823	,	-19533	,	-17134	,	-23.292637	,	0
3,17	,	68839	,	-19532	,	-17111	,	-21.806856	,	1
3,17	,	68855	,	-19515	,	-17120	,	-20.105892	,	2
3,17	,	68887	,	-19486	,	-17087	,	-17.846144	,	3
3,17	,	68903	,	-19454	,	-17099	,	-14.2562685	,	5
3,17	,	68934	,	-19453	,	-17058	,	-8.636052	,	8
3,17	,	68950	,	-19428	,	-17052	,	-0.9592209	,	13
3,17	,	68966	,	-19434	,	-17059	,	8.081308	,	20
3,17	,	68998	,	-19426	,	-17066	,	17.356665	,	29
3,17	,	69014	,	-19418	,	-17043	,	25.657816	,	38
3,17	,	69031	,	-19428	,	-17057	,	32.043785	,	45
3,17	,	69063	,	-19421	,	-17043	,	35.914253	,	50
3,17	,	69079	,	-19431	,	-17074	,	37.022114	,	52
3,17	,	69095	,	-19431	,	-17077	,	35.47796	,	51
3,17	,	69127	,	-19426	,	-17049	,	31.708355	,	48
3,17	,	69143	,	-19428	,	-17057	,	26.432934	,	43
3,17	,	69174	,	-19431	,	-17048	,	20.465216	,	36
3,17	,	69192	,	-19437	,	-17065	,	14.456597	,	27
3,17	,	69206	,	-19435	,	-17031	,	8.838225	,	18
3,17	,	69239	,	-19422	,	-17073	,	3.9793835	,	10
3,17	,	69255	,	-19438	,	-17064	,	0.22867632	,	4
3,17	,	69271	,	-19440	,	-17047	,	-2.3553033	,	1
3,17	,	69302	,	-19443	,	-17059	,	-4.0426693	,	0
3,17	,	69318	,	-19447	,	-17086	,	-5.148566	,	0
3,17	,	69350	,	-19459	,	-17076	,	-5.9503317	,	0
3,17	,	69366	,	-19457	,	-17066	,	-6.716381	,	0
3,17	,	69382	,	-19459	,	-17098	,	-7.5735397	,	0
3,17	,	69414	,	-19478	,	-17077	,	-8.52351	,	0
3,17	,	69430	,	-19493	,	-17061	,	-9.719265	,	0
3,17	,	69446	,	-19513	,	-17068	,	-11.524315	,	0
3,17	,	69479	,	-19504	,	-17065	,	-14.159103	,	0
3,17	,	69495	,	-19506	,	-17091	,	-17.320023	,	0
3,17	,	69526	,	-19510	,	-17073	,	-20.30707	,	0
3,17	,	69542	,	-19518	,	-17065	,	-22.538057	,	0
3,17	,	69558	,	-19521	,	-17057	,	-23.79631	,	0
3,18	,	69590	,	-19527	,	-17073	,	-24.122131	,	0
3,18	,	69606	,	-19534	,	-17059	,	-23.690239	,	0
3,18	,	69622	,	-19544	,	-17111	,	-22.783106	,	0
3,18	,	69655	,	-19547	,	-17087	,	-21.724522	,	0
3,18	,	69670	,	-19563	,	-17058	,	-20.791237	,	1
3,18	,	69686	,	-19559	,	-17102	,	-20.16834	,	1
3,18	,	69718	,	-19576	,	-17076	,	-19.905748	,	1
3,18	,	69734	,	-19572	,	-17098	,	-19.947987	,	1
3,18	,	69766	,	-19571	,	-17103	,	-20.121346	,	1
3,18	,	69782	,	-19585	,	-17115	,	-20.167252	,	1
3,18	,	69798	,	-19607	,	-17114	,	-20.071745	,	1
3,18	,	69830	,	-19582	,	-17118	,	-20.027597	,	1
3,18	,	69846	,	-19579	,	-17114	,	-19.860405	,	1
3,18	,	69862	,	-19558	,	-17119	,	-18.949623	,	0
3,18	,	69894	,	-19534	,	-17076	,	-16.604256	,	0
3,18	,	69910	,	-19483	,	-17083	,	-12.122439	,	2
3,18	,	69942	,	-19474	,	-17061	,	-4.9011927	,	6
3,18	,	69959	,	-19475	,	-17051	,	4.9121065	,	13
3,18	,	69974	,	-19467	,	-17039	,	16.071146	,	22
3,18	,	70006	,	-19462	,	-17068	,	26.857927	,	33
3,18	,	70022	,	-19447	,	-17054	,	35.890995	,	43
3,18	,	70038	,	-19444	,	-17069	,	42.419476	,	52
3,18	,	70070	,	-19442	,	-17067	,	46.189686	,	58
3,18	,	70086	,	-19430	,	-17046	,	47.27009	,	61
3,18	,	70102	,	-19436	,	-17075	,	46.002197	,	60
3,18	,	70134	,	-19430	,	-17053	,	42.864586	,	56
3,18	,	70150	,	-19432	,	-17071	,	38.356323	,	49
3,18	,	70182	,	-19425	,	-17060	,	33.014725	,	40
3,18	,	70198	,	-19424	,	-17068	,	27.411171	,	29
3,18	,	70214	,	-19417	,	-17068	,	22.08758	,	19
3,18	,	70246	,	-19423	,	-17048	,	17.435074	,	10
3,18	,	70262	,	-19421	,	-17029	,	13.582986	,	4
3,18	,	70278	,	-19424	,	-17054	,	10.451026	,	1
3,18	,	70310	,	-19425	,	-17073	,	7.8951406	,	0
3,18	,	70326	,	-19424	,	-17045	,	5.788784	,	0
3,18	,	70358	,	-19425	,	-17088	,	4.052532	,	0
3,18	,	70374	,	-19436	,	-17067	,	2.5956767	,	0
3,18	,	70390	,	-19441	,	-17073	,	1.2138522	,	0
3,18	,	70422	,	-19456	,	-17081	,	-0.3883567	,	0
3,18	,	70438	,	-19462	,	-17087	,	-2.4777958	,	0
3,18	,	70454	,	-19484	,	-17089	,	-5.227331	,	0
3,18	,	70486	,	-19490	,	-17097	,	-8.718683	,	0
3,18	,	70502	,	-19485	,	-17084	,	-12.785176	,	0
3,18	,	70518	,	-19493	,	-17090	,	-16.881487	,	0
3,18	,	70550	,	-19507	,	-17100	,	-20.429209	,	0
3,18	,	70566	,	-19508	,	-17101	,	-23.168415	,	0
3,19	,	70598	,	-19518	,	-17107	,	-25.052586	,	0
3,19	,	70614	,	-19519	,	-17076	,	-26.09481	,	0
3,19	,	70630	,	-19536	,	-17118	,	-26.39914	,	0
3,19	,	70662	,	-19535	,	-17114	,	-26.178404	,	0
3,19	,	70678	,	-19519	,	-17115	,	-25.519974	,	0
3,19	,	70694	,	-19562	,	-17122	,	-24.38456	,	0
3,19	,	70726	,	-19565	,	-17132	,	-23.106262	,	1
3,19	,	70742	,	-19561	,	-17129	,	-22.234062	,	2
3,19	,	70774	,	-19582	,	-17133	,	-21.934513	,	2
3,19	,	70790	,	-19568	,	-17130	,	-22.049706	,	2
3,19	,	70806	,	-19584	,	-17140	,	-22.293072	,	2
3,19	,	70838	,	-19580	,	-17157	,	-22.359968	,	2
3,19	,	70854	,	-19585	,	-17130	,	-22.059986	,	2
3,19	,	70870	,	-19592	,	-17132	,	-21.32957	,	2
3,19	,	70902	,	-19556	,	-17126	,	-20.070976	,	2
3,19	,	70918	,	-19539	,	-17117	,	-17.813938	,	2
3,19	,	70934	,	-19506	,	-17096	,	-13.797716	,	3
3,19	,	70966	,	-19498	,	-17060	,	-7.529278	,	7
3,19	,	70982	,	-19478	,	-17053	,	0.8409138	,	13
3,19	,	71014	,	-19473	,	-17084	,	10.555493	,	21
3,19	,	71030	,	-19471	,	-17074	,	20.480873	,	30
3,19	,	71046	,	-19457	,	-17052	,	29.409243	,	39
3,19	,	71078	,	-19465	,	-17068	,	36.38557	,	47
3,19	,	71094	,	-19453	,	-17025	,	40.82987	,	53
3,19	,	71110	,	-19445	,	-17039	,	42.610313	,	56
3,19	,	71142	,	-19436	,	-17072	,	42.09605	,	55
3,19	,	71158	,	-19440	,	-17044	,	39.8976	,	51
3,19	,	71190	,	-19443	,	-17031	,	36.511295	,	45
3,19	,	71206	,	-19435	,	-17035	,	32.279003	,	37
3,19	,	71222	,	-19438	,	-17054	,	27.56859	,	28
3,19	,	71254	,	-19443	,	-17064	,	22.740784	,	19
3,19	,	71270	,	-19433	,	-17066	,	18.055222	,	11
3,19	,	71286	,	-19425	,	-17039	,	13.819211	,	5
3,19	,	71318	,	-19441	,	-17044	,	10.3368225	,	1
3,19	,	71334	,	-19431	,	-17050	,	7.6379805	,	0
3,19	,	71366	,	-19438	,	-17021	,	5.559759	,	0
3,19	,	71382	,	-19453	,	-17062	,	3.8774981	,	0
3,19	,	71397	,	-19448	,	-17064	,	2.2742636	,	0
3,19	,	71430	,	-19467	,	-17047	,	0.4759183	,	0
3,19	,	71446	,	-19467	,	-17065	,	-1.6761204	,	0
3,19	,	71462	,	-19477	,	-17029	,	-4.2296033	,	0
3,19	,	71494	,	-19479	,	-17053	,	-7.071319	,	0
3,19	,	71510	,	-19479	,	-17070	,	-9.945026	,	0
3,19	,	71525	,	-19493	,	-17042	,	-12.55906	,	0
3,19	,	71557	,	-19493	,	-17051	,	-14.742994	,	0
3,19	,	71574	,	-19501	,	-17036	,	-16.444832	,	0
3,20	,	71606	,	-19515	,	-17039	,	-17.696428	,	0
3,20	,	71622	,	-19515	,	-17047	,	-18.645876	,	0
3,20	,	71638	,	-19522	,	-17070	,	-19.414389	,	0
3,20	,	71670	,	-19528	,	-17047	,	-20.005236	,	0
3,20	,	71685	,	-19525	,	-17050	,	-20.36221	,	0
3,20	,	71702	,	-19535	,	-17049	,	-20.392467	,	0
3,20	,	71733	,	-19541	,	-17054	,	-20.07216	,	0
3,20	,	71750	,	-19535	,	-17085	,	-19.46476	,	0
3,20	,	71782	,	-19556	,	-17069	,	-18.637505	,	0
3,20	,	71798	,	-19556	,	-17089	,	-17.764238	,	0
3,20	,	71813	,	-19558	,	-17101	,	-17.062643	,	0
3,20	,	71845	,	-19579	,	-17107	,	-16.645884	,	0
3,20	,	71861	,	-19580	,	-17115	,	-16.640568	,	0
3,20	,	71877	,	-19575	,	-17114	,	-17.074446	,	0
3,20	,	71910	,	-19590	,	-17091	,	-17.713282	,	0
3,20	,	71926	,	-19568	,	-17099	,	-18.208572	,	0
3,20	,	71942	,	-19538	,	-17094	,	-17.973862	,	0
3,20	,	71973	,	-19502	,	-17059	,	-16.006979	,	0
3,20	,	71989	,	-19468	,	-17040	,	-11.256388	,	1
3,20	,	72021	,	-19448	,	-17033	,	-3.2006989	,	5
3,20	,	72037	,	-19457	,	-17035	,	7.6739583	,	13
3,20	,	72053	,	-19435	,	-17053	,	19.866814	,	23
3,20	,	72085	,	-19434	,	-17046	,	31.582785	,	35
3,20	,	72102	,	-19414	,	-17024	,	41.44007	,	46
3,20	,	72117	,	-19415	,	-17044	,	48.642128	,	55
3,20	,	72149	,	-19419	,	-17026	,	52.800526	,	62
3,20	,	72166	,	-19410	,	-17035	,	53.781006	,	66
3,20	,	72197	,	-19403	,	-17037	,	51.850697	,	65
3,20	,	72213	,	-19412	,	-17032	,	47.66008	,	61
3,20	,	72229	,	-19397	,	-17026	,	41.947426	,	53
3,20	,	72261	,	-19400	,	-17052	,	35.46851	,	43
3,20	,	72277	,	-19392	,	-17025	,	28.965952	,	31
3,20	,	72293	,	-19401	,	-17031	,	22.976873	,	20
3,20	,	72326	,	-19385	,	-17035	,	17.792765	,	11
3,20	,	72342	,	-19391	,	-17032	,	13.601876	,	4
3,20	,	72373	,	-19404	,	-17051	,	10.4097395	,	0
3,20	,	72389	,	-19400	,	-17031	,	7.908371	,	0
3,20	,	72405	,	-19418	,	-17021	,	5.6753163	,	0
3,20	,	72437	,	-19412	,	-17057	,	3.3823476	,	0
3,20	,	72453	,	-19418	,	-17048	,	0.9117851	,	0
3,20	,	72469	,	-19430	,	-17056	,	-1.6711974	,	0
3,20	,	72501	,	-19437	,	-17039	,	-4.3364673	,	0
3,20	,	72517	,	-19431	,	-17044	,	-7.044104	,	0
3,20	,	72533	,	-19445	,	-17064	,	-9.603588	,	0
3,20	,	72565	,	-19464	,	-17056	,	-11.922336	,	0
3,21	,	72581	,	-19466	,	-17074	,	-14.173758	,	0
3,21	,	72613	,	-19473	,	-17052	,	-16.489943	,	0
3,21	,	72629	,	-19471	,	-17067	,	-18.72356	,	0
3,21	,	72645	,	-19481	,	-17082	,	-20.57822	,	0
3,21	,	72677	,	-19486	,	-17069	,	-21.84613	,	0
3,21	,	72693	,	-19495	,	-17071	,	-22.515932	,	0
3,21	,	72709	,	-19489	,	-17079	,	-22.65483	,	0
3,21	,	72741	,	-19513	,	-17092	,	-22.337694	,	0
3,21	,	72757	,	-19516	,	-17057	,	-21.793812	,	0
3,21	,	72789	,	-19521	,	-17064	,	-21.334587	,	0
3,21	,	72805	,	-19524	,	-17094	,	-21.075241	,	0
3,21	,	72821	,	-19527	,	-17089	,	-20.914574	,	0
3,21	,	72853	,	-19528	,	-17068	,	-20.669416	,	0
3,21	,	72869	,	-19506	,	-17086	,	-20.05353	,	0
3,21	,	72885	,	-19468	,	-17061	,	-18.445076	,	0
3,21	,	72917	,	-19444	,	-17032	,	-14.886733	,	1
3,21	,	72933	,	-19425	,	-17014	,	-8.657973	,	4
3,21	,	72949	,	-19411	,	-17043	,	0.17632389	,	10
3,21	,	72981	,	-19409	,	-17011	,	10.727954	,	18
3,21	,	72997	,	-19408	,	-17014	,	21.555643	,	28
3,21	,	73029	,	-19394	,	-17025	,	31.156242	,	38
3,21	,	73045	,	-19397	,	-17019	,	38.46193	,	47
3,21	,	73061	,	-19395	,	-17011	,	42.91737	,	54
3,21	,	73093	,	-19397	,	-17010	,	44.339798	,	58
3,21	,	73109	,	-19402	,	-17000	,	42.863728	,	58
3,21	,	73125	,	-19398	,	-17006	,	38.911255	,	55
3,21	,	73157	,	-19411	,	-17009	,	33.118484	,	49
3,21	,	73174	,	-19399	,	-17018	,	26.220858	,	41
3,21	,	73205	,	-19396	,	-17018	,	19.047985	,	31
3,21	,	73221	,	-19394	,	-17024	,	12.457843	,	21
3,21	,	73237	,	-19389	,	-17016	,	7.09354	,	12
3,21	,	73269	,	-19388	,	-17026	,	3.2772903	,	5
3,21	,	73285	,	-19394	,	-17039	,	1.0067449	,	1
3,21	,	73301	,	-19407	,	-17020	,	-0.088151455	,	0
3,21	,	73333	,	-19406	,	-17002	,	-0.62254107	,	0
3,21	,	73349	,	-19415	,	-17021	,	-1.1419916	,	0
3,21	,	73365	,	-19420	,	-17040	,	-1.9664454	,	0
3,21	,	73397	,	-19423	,	-17038	,	-3.225941	,	0
3,21	,	73413	,	-19435	,	-17032	,	-4.908019	,	0
3,21	,	73445	,	-19438	,	-17014	,	-6.942977	,	0
3,21	,	73461	,	-19453	,	-17043	,	-9.262355	,	0
3,21	,	73477	,	-19462	,	-17021	,	-11.823704	,	0
3,21	,	73509	,	-19459	,	-17035	,	-14.53721	,	0
3,21	,	73525	,	-19477	,	-17044	,	-17.178581	,	0
3,21	,	73541	,	-19482	,	-17037	,	-19.555307	,	0
3,21	,	73573	,	-19474	,	-17028	,	-21.53371	,	0
3,22	,	73589	,	-19490	,	-17018	,	-22.900887	,	0
3,22	,	73621	,	-19490	,	-17045	,	-23.533926	,	0
3,22	,	73637	,	-19496	,	-17031	,	-23.502106	,	0
3,22	,	73653	,	-19498	,	-17024	,	-22.921083	,	0
3,22	,	73685	,	-19500	,	-17028	,	-21.889465	,	0
3,22	,	73701	,	-19517	,	-17072	,	-20.56003	,	1
3,22	,	73717	,	-19517	,	-17044	,	-19.213013	,	2
3,22	,	73749	,	-19529	,	-17050	,	-18.138998	,	3
3,22	,	73764	,	-19542	,	-17057	,	-17.547382	,	4
3,22	,	73797	,	-19542	,	-17067	,	-17.576082	,	4
3,22	,	73813	,	-19520	,	-17080	,	-18.033112	,	4
3,22	,	73829	,	-19481	,	-17041	,	-18.05611	,	4
3,22	,	73861	,	-19451	,	-17029	,	-16.269073	,	4
3,22	,	73876	,	-19423	,	-17011	,	-11.481394	,	5
3,22	,	73893	,	-19413	,	-17017	,	-3.3615608	,	8
3,22	,	73925	,	-19391	,	-17030	,	7.418365	,	15
3,22	,	73941	,	-19385	,	-17014	,	19.54017	,	24
3,22	,	73957	,	-19384	,	-16993	,	31.435398	,	35
3,22	,	73989	,	-19367	,	-17019	,	41.62026	,	46
3,22	,	74005	,	-19367	,	-16995	,	49.081867	,	56
3,22	,	74036	,	-19350	,	-16999	,	53.42418	,	63
3,22	,	74052	,	-19346	,	-16978	,	54.782516	,	67
3,22	,	74068	,	-19343	,	-16992	,	53.629448	,	67
3,22	,	74101	,	-19342	,	-16998	,	50.50635	,	63
3,22	,	74117	,	-19343	,	-17004	,	45.901627	,	55
3,22	,	74133	,	-19338	,	-16983	,	40.28086	,	45
3,22	,	74165	,	-19328	,	-16993	,	34.187263	,	33
3,22	,	74180	,	-19334	,	-17011	,	28.215185	,	22
3,22	,	74212	,	-19328	,	-16976	,	22.791002	,	12
3,22	,	74228	,	-19331	,	-16995	,	18.102577	,	5
3,22	,	74244	,	-19341	,	-16976	,	14.134963	,	1
3,22	,	74277	,	-19349	,	-17007	,	10.64934	,	0
3,22	,	74293	,	-19349	,	-17011	,	7.3362665	,	0
3,22	,	74309	,	-19354	,	-16996	,	4.0546355	,	0
3,22	,	74341	,	-19363	,	-17006	,	0.81890154	,	0
3,22	,	74356	,	-19368	,	-17032	,	-2.3446777	,	0
3,22	,	74372	,	-19378	,	-17025	,	-5.4264917	,	0
3,22	,	74404	,	-19397	,	-17004	,	-8.477566	,	0
3,22	,	74421	,	-19399	,	-17032	,	-11.625593	,	0
3,22	,	74452	,	-19406	,	-17030	,	-14.874477	,	0
3,22	,	74469	,	-19416	,	-17010	,	-18.027714	,	0
3,22	,	74484	,	-19426	,	-17020	,	-20.885689	,	0
3,22	,	74516	,	-19436	,	-17057	,	-23.361526	,	0
3,22	,	74532	,	-19431	,	-17041	,	-25.374622	,	0
3,22	,	74548	,	-19445	,	-17032	,	-26.76102	,	0
3,22	,	74580	,	-19443	,	-17032	,	-27.389488	,	0
3,23	,	74596	,	-19462	,	-17063	,	-27.301767	,	0
3,23	,	74628	,	-19466	,	-17053	,	-26.740496	,	0
3,23	,	74645	,	-19471	,	-17075	,	-26.00656	,	0
3,23	,	74661	,	-19474	,	-17073	,	-25.23827	,	0
3,23	,	74693	,	-19482	,	-17060	,	-24.426083	,	0
3,23	,	74708	,	-19497	,	-17088	,	-23.614002	,	0
3,23	,	74724	,	-19501	,	-17057	,	-22.967577	,	0
3,23	,	74756	,	-19520	,	-17055	,	-22.67395	,	0
3,23	,	74772	,	-19531	,	-17095	,	-22.906837	,	0
3,23	,	74788	,	-19507	,	-17069	,	-23.62346	,	0
3,23	,	74821	,	-19509	,	-17058	,	-24.256088	,	0
3,23	,	74836	,	-19482	,	-17047	,	-23.928448	,	0
3,23	,	74868	,	-19442	,	-17018	,	-21.73177	,	0
3,23	,	74884	,	-19408	,	-17030	,	-16.730755	,	2
3,23	,	74900	,	-19400	,	-17012	,	-8.410179	,	7
3,23	,	74932	,	-19386	,	-17035	,	2.7246695	,	15
3,23	,	74948	,	-19377	,	-17001	,	15.283205	,	26
3,23	,	74964	,	-19374	,	-17018	,	27.59354	,	38
3,23	,	74996	,	-19360	,	-17026	,	38.173164	,	50
3,23	,	75013	,	-19368	,	-17022	,	45.97936	,	60
3,23	,	75044	,	-19360	,	-16988	,	50.435856	,	67
3,23	,	75060	,	-19361	,	-17024	,	51.430466	,	71
3,23	,	75076	,	-19357	,	-16991	,	49.329185	,	69
3,23	,	75108	,	-19358	,	-16994	,	44.82184	,	64
3,23	,	75124	,	-19366	,	-17035	,	38.673725	,	56
3,23	,	75140	,	-19368	,	-17000	,	31.54843	,	45
3,23	,	75173	,	-19364	,	-16999	,	24.036661	,	33
3,23	,	75188	,	-19359	,	-17024	,	16.779531	,	21
3,23	,	75220	,	-19362	,	-16984	,	10.402262	,	11
3,23	,	75236	,	-19364	,	-17019	,	5.291027	,	4
3,23	,	75252	,	-19370	,	-17004	,	1.4926615	,	0
3,23	,	75284	,	-19369	,	-16994	,	-1.1728425	,	0
3,23	,	75300	,	-19372	,	-16992	,	-2.9404354	,	0
3,23	,	75316	,	-19381	,	-17017	,	-4.0580792	,	0
3,23	,	75348	,	-19383	,	-17011	,	-4.8260446	,	0
3,23	,	75364	,	-19401	,	-17010	,	-5.5813785	,	0
3,23	,	75380	,	-19399	,	-16999	,	-6.6317945	,	0
3,23	,	75412	,	-19403	,	-16996	,	-8.090203	,	0
3,23	,	75428	,	-19425	,	-17003	,	-9.886341	,	0
3,23	,	75460	,	-19429	,	-17018	,	-12.01499	,	0
3,23	,	75476	,	-19432	,	-17003	,	-14.461401	,	0
3,23	,	75492	,	-19428	,	-17019	,	-16.944744	,	0
3,23	,	75524	,	-19451	,	-17018	,	-19.080378	,	0
3,23	,	75540	,	-19450	,	-17014	,	-20.72638	,	0
3,23	,	75556	,	-19451	,	-17011	,	-21.898676	,	0
3,24	,	75588	,	-19452	,	-17011	,	-22.503036	,	0
3,24	,	75604	,	-19456	,	-17052	,	-22.402807	,	0
3,24	,	75636	,	-19465	,	-17029	,	-21.621868	,	0
3,24	,	75652	,	-19482	,	-17033	,	-20.447948	,	0
3,24	,	75668	,	-19497	,	-17037	,	-19.40791	,	1
3,24	,	75700	,	-19500	,	-17050	,	-19.00688	,	2
3,24	,	75716	,	-19503	,	-17058	,	-19.386505	,	2
3,24	,	75732	,	-19516	,	-17079	,	-20.329718	,	2
3,24	,	75764	,	-19520	,	-17088	,	-21.554161	,	2
3,24	,	75780	,	-19527	,	-17085	,	-22.8302	,	2
3,24	,	75796	,	-19537	,	-17069	,	-23.964212	,	2
3,24	,	75828	,	-19539	,	-17093	,	-24.82862	,	2
3,24	,	75844	,	-19532	,	-17085	,	-25.269318	,	2
3,24	,	75876	,	-19511	,	-17067	,	-24.910841	,	1
3,24	,	75892	,	-19431	,	-17051	,	-22.840893	,	0
3,24	,	75908	,	-19423	,	-17048	,	-17.651508	,	2
3,24	,	75940	,	-19399	,	-17024	,	-8.521857	,	7
3,24	,	75956	,	-19396	,	-17046	,	3.9011898	,	16
3,24	,	75972	,	-19393	,	-17014	,	17.847656	,	28
3,24	,	76004	,	-19396	,	-17008	,	31.154673	,	41
3,24	,	76020	,	-19376	,	-17008	,	41.980125	,	54
3,24	,	76052	,	-19379	,	-16998	,	49.319862	,	64
3,24	,	76068	,	-19370	,	-16999	,	52.94756	,	71
3,24	,	76084	,	-19361	,	-17029	,	53.164787	,	74
3,24	,	76116	,	-19369	,	-16993	,	50.613186	,	72
3,24	,	76132	,	-19376	,	-17006	,	45.93624	,	67
3,24	,	76148	,	-19375	,	-17002	,	39.633804	,	58
3,24	,	76180	,	-19366	,	-17009	,	32.30526	,	46
3,24	,	76196	,	-19376	,	-16999	,	24.71779	,	33
3,24	,	76228	,	-19368	,	-17018	,	17.55165	,	20
3,24	,	76244	,	-19370	,	-17034	,	11.288595	,	10
3,24	,	76260	,	-19373	,	-17002	,	6.2289925	,	3
3,24	,	76292	,	-19374	,	-17012	,	2.4367046	,	0
3,24	,	76308	,	-19373	,	-17022	,	-0.20462418	,	0
3,24	,	76324	,	-19384	,	-17046	,	-1.9094155	,	0
3,24	,	76356	,	-19395	,	-17027	,	-3.0491652	,	0
3,24	,	76372	,	-19413	,	-17048	,	-4.166555	,	0
3,24	,	76388	,	-19417	,	-17049	,	-5.7872906	,	0
3,24	,	76420	,	-19416	,	-17052	,	-8.100569	,	0
3,24	,	76436	,	-19424	,	-17051	,	-10.854089	,	0
3,24	,	76467	,	-19429	,	-17056	,	-13.626335	,	0
3,24	,	76483	,	-19443	,	-17029	,	-16.130291	,	0
3,24	,	76500	,	-19444	,	-17034	,	-18.27514	,	0
3,24	,	76532	,	-19444	,	-17071	,	-19.99656	,	0
3,24	,	76548	,	-19437	,	-17069	,	-21.075014	,	0
3,24	,	76564	,	-19447	,	-17056	,	-21.234781	,	0
3,25	,	76596	,	-19461	,	-17054	,	-20.487312	,	0
3,25	,	76611	,	-19469	,	-17042	,	-19.263062	,	0
3,25	,	76643	,	-19477	,	-17037	,	-18.115646	,	1
3,25	,	76660	,	-19469	,	-17076	,	-17.34348	,	2
3,25	,	76676	,	-19493	,	-17080	,	-16.95343	,	2
3,25	,	76708	,	-19490	,	-17084	,	-16.927685	,	2
3,25	,	76724	,	-19500	,	-17083	,	-17.26913	,	2
3,25	,	76740	,	-19514	,	-17065	,	-17.919977	,	2
3,25	,	76771	,	-19522	,	-17093	,	-18.867573	,	2
3,25	,	76787	,	-19519	,	-17075	,	-20.06871	,	2
3,25	,	76803	,	-19526	,	-17111	,	-21.283428	,	2
3,25	,	76835	,	-19511	,	-17073	,	-22.121243	,	1
3,25	,	76852	,	-19451	,	-17030	,	-21.83717	,	0
3,25	,	76884	,	-19423	,	-17032	,	-19.117695	,	0
3,25	,	76900	,	-19412	,	-17017	,	-12.855197	,	2
3,25	,	76916	,	-19426	,	-17046	,	-3.2873058	,	8
3,25	,	76948	,	-19415	,	-17051	,	7.967683	,	17
3,25	,	76963	,	-19407	,	-17032	,	18.938416	,	28
3,25	,	76980	,	-19408	,	-17037	,	28.148745	,	38
3,25	,	77011	,	-19402	,	-17025	,	34.72692	,	47
3,25	,	77027	,	-19407	,	-17001	,	38.288445	,	53
3,25	,	77060	,	-19408	,	-17035	,	38.841812	,	56
3,25	,	77076	,	-19407	,	-17021	,	36.707054	,	56
3,25	,	77092	,	-19417	,	-17016	,	32.44156	,	54
3,25	,	77124	,	-19418	,	-17035	,	26.685501	,	48
3,25	,	77139	,	-19409	,	-17034	,	20.135704	,	39
3,25	,	77156	,	-19418	,	-17020	,	13.562214	,	28
3,25	,	77187	,	-19409	,	-17021	,	7.6325054	,	18
3,25	,	77203	,	-19412	,	-17019	,	2.8019772	,	9
3,25	,	77219	,	-19418	,	-17024	,	-0.72631884	,	3
3,25	,	77252	,	-19419	,	-17017	,	-3.0480797	,	0
3,25	,	77267	,	-19421	,	-17010	,	-4.423311	,	0
3,25	,	77299	,	-19421	,	-17036	,	-5.10648	,	0
3,25	,	77315	,	-19423	,	-17004	,	-5.301202	,	0
3,25	,	77331	,	-19446	,	-17002	,	-5.2795496	,	0
3,25	,	77364	,	-19438	,	-17002	,	-5.451248	,	0
3,25	,	77380	,	-19458	,	-17027	,	-6.139005	,	0
3,25	,	77395	,	-19458	,	-17041	,	-7.456315	,	0
3,25	,	77427	,	-19458	,	-17005	,	-9.315925	,	0
3,25	,	77443	,	-19472	,	-17015	,	-11.437985	,	0
3,25	,	77475	,	-19474	,	-17016	,	-13.558313	,	0
3,25	,	77491	,	-19469	,	-17030	,	-15.46283	,	0
3,25	,	77507	,	-19476	,	-17025	,	-16.861	,	0
3,25	,	77540	,	-19489	,	-17022	,	-17.58828	,	0
3,25	,	77556	,	-19494	,	-17038	,	-17.80347	,	0
3,25	,	77571	,	-19504	,	-17027	,	-17.82264	,	0
3,26	,	77603	,	-19516	,	-17047	,	-17.933693	,	0
3,26	,	77619	,	-19509	,	-17067	,	-18.28828	,	0
3,26	,	77651	,	-19516	,	-17084	,	-18.776365	,	0
3,26	,	77667	,	-19524	,	-17076	,	-19.165813	,	0
3,26	,	77683	,	-19528	,	-17074	,	-19.35509	,	0
3,26	,	77715	,	-19531	,	-17064	,	-19.344624	,	0
3,26	,	77731	,	-19542	,	-17068	,	-19.15701	,	0
3,26	,	77747	,	-19541	,	-17089	,	-18.855873	,	0
3,26	,	77779	,	-19523	,	-17054	,	-18.373415	,	0
3,26	,	77795	,	-19492	,	-17029	,	-17.208593	,	0
3,26	,	77811	,	-19428	,	-17044	,	-14.290995	,	1
3,26	,	77843	,	-19421	,	-17039	,	-8.378162	,	3
3,26	,	77859	,	-19404	,	-17028	,	0.9344158	,	8
3,26	,	77891	,	-19402	,	-17014	,	12.699261	,	17
3,26	,	77907	,	-19389	,	-17009	,	25.177803	,	28
3,26	,	77939	,	-19389	,	-17017	,	36.59498	,	40
3,26	,	77955	,	-19386	,	-17002	,	45.53292	,	51
3,26	,	77971	,	-19376	,	-17034	,	51.139267	,	59
3,26	,	78003	,	-19377	,	-17028	,	53.229767	,	64
3,26	,	78019	,	-19380	,	-17013	,	52.10015	,	65
3,26	,	78051	,	-19386	,	-16996	,	48.2259	,	63
3,26	,	78067	,	-19391	,	-17028	,	42.156387	,	58
3,26	,	78083	,	-19384	,	-17029	,	34.574917	,	49
3,26	,	78115	,	-19386	,	-17010	,	26.342527	,	38
3,26	,	78131	,	-19386	,	-17038	,	18.325771	,	26
3,26	,	78147	,	-19392	,	-17004	,	11.15344	,	15
3,26	,	78179	,	-19383	,	-17010	,	5.1976757	,	7
3,26	,	78195	,	-19391	,	-17015	,	0.6681452	,	2
3,26	,	78211	,	-19399	,	-17037	,	-2.4651475	,	0
3,26	,	78243	,	-19397	,	-17040	,	-4.500787	,	0
3,26	,	78259	,	-19422	,	-17022	,	-5.871743	,	0
3,26	,	78291	,	-19412	,	-17040	,	-7.048255	,	0
3,26	,	78307	,	-19430	,	-17023	,	-8.355567	,	0
3,26	,	78323	,	-19435	,	-17026	,	-9.916343	,	0
3,26	,	78355	,	-19436	,	-17049	,	-11.734642	,	0
3,26	,	78371	,	-19454	,	-17025	,	-13.702566	,	0
3,26	,	78387	,	-19467	,	-17056	,	-15.772739	,	0
3,26	,	78419	,	-19459	,	-17076	,	-17.953785	,	0
3,26	,	78435	,	-19467	,	-17047	,	-20.02348	,	0
3,26	,	78467	,	-19474	,	-17071	,	-21.633474	,	0
3,26	,	78483	,	-19477	,	-17070	,	-22.612995	,	0
3,26	,	78499	,	-19492	,	-17045	,	-23.006554	,	0
3,26	,	78531	,	-19502	,	-17070	,	-23.040136	,	0
3,26	,	78547	,	-19501	,	-17054	,	-22.982866	,	0
3,26	,	78563	,	-19495	,	-17050	,	-22.855322	,	0
3,27	,	78595	,	-19507	,	-17083	,	-22.437145	,	0
3,27	,	78611	,	-19523	,	-17078	,	-21.67441	,	0
3,27	,	78627	,	-19528	,	-17087	,	-20.856438	,	0
3,27	,	78659	,	-19535	,	-17073	,	-20.307854	,	0
3,27	,	78675	,	-19551	,	-17070	,	-20.186977	,	0
3,27	,	78707	,	-19541	,	-17095	,	-20.499474	,	0
3,27	,	78723	,	-19574	,	-17099	,	-21.139925	,	0
3,27	,	78739	,	-19573	,	-17104	,	-22.089731	,	0
3,27	,	78771	,	-19578	,	-17104	,	-23.35244	,	0
3,27	,	78787	,	-19550	,	-17092	,	-24.543945	,	0
3,27	,	78803	,	-19537	,	-17072	,	-24.79333	,	0
3,27	,	78835	,	-19499	,	-17027	,	-23.05103	,	0
3,27	,	78851	,	-19456	,	-17029	,	-18.357246	,	1
3,27	,	78883	,	-19444	,	-17042	,	-10.138625	,	5
3,27	,	78899	,	-19437	,	-17023	,	1.2315512	,	13
3,27	,	78915	,	-19444	,	-16996	,	14.240196	,	24
3,27	,	78947	,	-19431	,	-17009	,	26.831146	,	37
3,27	,	78963	,	-19424	,	-17013	,	37.27552	,	49
3,27	,	78979	,	-19415	,	-17017	,	44.638397	,	59
3,27	,	79011	,	-19401	,	-17014	,	48.738647	,	66
3,27	,	79027	,	-19404	,	-17016	,	49.899174	,	70
3,27	,	79043	,	-19407	,	-17004	,	48.580124	,	70
3,27	,	79075	,	-19408	,	-17011	,	45.16504	,	66
3,27	,	79091	,	-19411	,	-17019	,	40.049606	,	58
3,27	,	79123	,	-19393	,	-17035	,	33.81531	,	47
3,27	,	79139	,	-19404	,	-17030	,	27.238993	,	34
3,27	,	79155	,	-19397	,	-16989	,	21.000776	,	22
3,27	,	79187	,	-19385	,	-16993	,	15.567587	,	12
3,27	,	79202	,	-19401	,	-16997	,	11.265882	,	5
3,27	,	79219	,	-19401	,	-17014	,	8.084414	,	1
3,27	,	79251	,	-19407	,	-16976	,	5.674947	,	0
3,27	,	79267	,	-19412	,	-17007	,	3.6544461	,	0
3,27	,	79299	,	-19416	,	-16979	,	1.7358229	,	0
3,27	,	79315	,	-19418	,	-17014	,	-0.23241639	,	0
3,27	,	79331	,	-19431	,	-17008	,	-2.2855823	,	0
3,27	,	79363	,	-19430	,	-17006	,	-4.4324865	,	0
3,27	,	79378	,	-19428	,	-17001	,	-6.588081	,	0
3,27	,	79394	,	-19434	,	-16991	,	-8.519859	,	0
3,27	,	79426	,	-19445	,	-17019	,	-10.062062	,	0
3,27	,	79443	,	-19443	,	-16996	,	-11.248363	,	0
3,27	,	79475	,	-19459	,	-17023	,	-12.199883	,	0
3,27	,	79491	,	-19464	,	-17000	,	-13.079797	,	0
3,27	,	79507	,	-19468	,	-17004	,	-14.043781	,	0
3,27	,	79539	,	-19472	,	-17022	,	-15.103762	,	0
3,27	,	79555	,	-19480	,	-17031	,	-16.155346	,	0
3,27	,	79571	,	-19487	,	-17049	,	-17.1207	,	0
3,28	,	79602	,	-19482	,	-17021	,	-17.932232	,	0
3,28	,	79619	,	-19496	,	-17079	,	-18.465061	,	0
3,28	,	79635	,	-19499	,	-17029	,	-18.666786	,	0
3,28	,	79667	,	-19514	,	-17064	,	-18.669662	,	0
3,28	,	79683	,	-19531	,	-17067	,	-18.76745	,	0
3,28	,	79714	,	-19533	,	-17058	,	-19.291	,	0
3,28	,	79730	,	-19538	,	-17075	,	-20.33223	,	0
3,28	,	79746	,	-19533	,	-17076	,	-21.610529	,	0
3,28	,	79778	,	-19547	,	-17077	,	-22.683996	,	0
3,28	,	79794	,	-19559	,	-17084	,	-23.322807	,	0
3,28	,	79810	,	-19541	,	-17091	,	-23.514986	,	0
3,28	,	79842	,	-19550	,	-17091	,	-23.119003	,	0
3,28	,	79858	,	-19556	,	-17099	,	-21.970617	,	0
3,28	,	79890	,	-19527	,	-17050	,	-20.05584	,	1
3,28	,	79906	,	-19442	,	-17054	,	-16.83778	,	2
3,28	,	79922	,	-19424	,	-17012	,	-10.91635	,	5
3,28	,	79955	,	-19416	,	-17020	,	-1.3132524	,	10
3,28	,	79971	,	-19407	,	-17011	,	11.308196	,	19
3,28	,	79987	,	-19399	,	-17000	,	25.08884	,	31
3,28	,	80019	,	-19385	,	-17024	,	38.03398	,	44
3,28	,	80034	,	-19383	,	-17005	,	48.60995	,	56
3,28	,	80051	,	-19372	,	-17007	,	55.89446	,	66
3,28	,	80082	,	-19376	,	-17018	,	59.52831	,	72
3,28	,	80098	,	-19371	,	-17030	,	59.59565	,	74
3,28	,	80130	,	-19365	,	-16977	,	56.547226	,	71
3,28	,	80148	,	-19375	,	-17020	,	51.098816	,	66
3,28	,	80162	,	-19379	,	-17022	,	43.967537	,	57
3,28	,	80195	,	-19371	,	-17004	,	35.815853	,	45
3,28	,	80210	,	-19374	,	-17022	,	27.39925	,	32
3,28	,	80226	,	-19372	,	-17015	,	19.458086	,	20
3,28	,	80258	,	-19365	,	-16993	,	12.565159	,	10
3,28	,	80274	,	-19369	,	-16996	,	7.1137514	,	3
3,28	,	80306	,	-19364	,	-16990	,	3.2499285	,	0
3,28	,	80322	,	-19374	,	-17021	,	0.83593464	,	0
3,28	,	80338	,	-19382	,	-17026	,	-0.5247679	,	0
3,28	,	80370	,	-19377	,	-16991	,	-1.3414742	,	0
3,28	,	80386	,	-19389	,	-16990	,	-1.9966806	,	0
3,28	,	80402	,	-19397	,	-16994	,	-2.7598143	,	0
3,28	,	80434	,	-19399	,	-16993	,	-3.8560004	,	0
3,28	,	80450	,	-19400	,	-17006	,	-5.327394	,	0
3,28	,	80466	,	-19416	,	-17020	,	-7.056411	,	0
3,28	,	80498	,	-19417	,	-17012	,	-8.961359	,	0
3,28	,	80514	,	-19424	,	-16999	,	-10.980892	,	0
3,28	,	80546	,	-19437	,	-17032	,	-13.022892	,	0
3,28	,	80562	,	-19431	,	-17024	,	-14.995275	,	0
3,28	,	80578	,	-19439	,	-17043	,	-16.72121	,	0
3,29	,	80610	,	-19448	,	-17029	,	-18.006516	,	0
3,29	,	80626	,	-19447	,	-17018	,	-18.804415	,	0
3,29	,	80642	,	-19455	,	-17015	,	-19.146011	,	0
3,29	,	80674	,	-19476	,	-17043	,	-19.168215	,	0
3,29	,	80690	,	-19459	,	-17027	,	-19.114647	,	0
3,29	,	80722	,	-19483	,	-17038	,	-19.08259	,	0
3,29	,	80738	,	-19484	,	-17044	,	-19.08184	,	0
3,29	,	80754	,	-19494	,	-17033	,	-19.201172	,	0
3,29	,	80786	,	-19503	,	-17028	,	-19.513992	,	0
3,29	,	80802	,	-19512	,	-17047	,	-20.060123	,	0
3,29	,	80818	,	-19515	,	-17059	,	-20.833515	,	0
3,29	,	80850	,	-19523	,	-17073	,	-21.718195	,	0
3,29	,	80866	,	-19521	,	-17038	,	-22.510578	,	0
3,29	,	80882	,	-19498	,	-17050	,	-22.83865	,	0
3,29	,	80914	,	-19448	,	-17024	,	-21.878098	,	0
3,29	,	80930	,	-19425	,	-17024	,	-18.400507	,	0
3,29	,	80962	,	-19414	,	-16992	,	-11.586328	,	3
3,29	,	80978	,	-19395	,	-17006	,	-1.7196589	,	9
3,29	,	80994	,	-19400	,	-17005	,	9.969264	,	18
3,29	,	81026	,	-19398	,	-17004	,	21.754673	,	29
3,29	,	81042	,	-19386	,	-16998	,	31.943851	,	40
3,29	,	81058	,	-19384	,	-16994	,	39.42905	,	50
3,29	,	81090	,	-19379	,	-16994	,	43.789127	,	57
3,29	,	81106	,	-19375	,	-17001	,	45.100433	,	61
3,29	,	81138	,	-19380	,	-16999	,	43.754684	,	62
3,29	,	81154	,	-19384	,	-16972	,	40.236153	,	59
3,29	,	81170	,	-19369	,	-16968	,	35.101864	,	53
3,29	,	81202	,	-19374	,	-16964	,	29.112543	,	44
3,29	,	81218	,	-19365	,	-16999	,	23.07761	,	33
3,29	,	81234	,	-19374	,	-16984	,	17.580362	,	22
3,29	,	81266	,	-19357	,	-16956	,	12.953763	,	12
3,29	,	81282	,	-19354	,	-16955	,	9.453857	,	5
3,29	,	81314	,	-19370	,	-16960	,	7.186618	,	1
3,29	,	81330	,	-19375	,	-16961	,	5.8183	,	0
3,29	,	81346	,	-19370	,	-16952	,	4.777722	,	0
3,29	,	81378	,	-19377	,	-16984	,	3.7102828	,	0
3,29	,	81394	,	-19384	,	-16981	,	2.471226	,	0
3,29	,	81410	,	-19389	,	-16990	,	0.9422717	,	0
3,29	,	81442	,	-19387	,	-16996	,	-0.9074304	,	0
3,29	,	81458	,	-19398	,	-16977	,	-2.95994	,	0
3,29	,	81474	,	-19404	,	-16986	,	-5.0979834	,	0
3,29	,	81506	,	-19399	,	-16979	,	-7.2361827	,	0
3,29	,	81522	,	-19426	,	-16999	,	-9.287776	,	0
3,29	,	81554	,	-19424	,	-17002	,	-11.311479	,	0
3,29	,	81570	,	-19428	,	-16999	,	-13.391212	,	0
3,30	,	81586	,	-19431	,	-17008	,	-15.382551	,	0
3,30	,	81618	,	-19434	,	-17023	,	-17.02422	,	0
3,30	,	81634	,	-19441	,	-17016	,	-18.137287	,	0
3,30	,	81650	,	-19452	,	-17038	,	-18.71962	,	0
3,30	,	81682	,	-19451	,	-17037	,	-18.914925	,	0
3,30	,	81698	,	-19455	,	-17022	,	-18.83382	,	0
3,30	,	81730	,	-19460	,	-17023	,	-18.500202	,	0
3,30	,	81746	,	-19462	,	-17012	,	-17.944942	,	0
3,30	,	81762	,	-19460	,	-17015	,	-17.186138	,	0
3,30	,	81794	,	-19451	,	-17029	,	-16.125875	,	0
3,30	,	81810	,	-19444	,	-17031	,	-14.545714	,	1
3,30	,	81826	,	-19378	,	-16978	,	-11.951388	,	2
3,30	,	81858	,	-19350	,	-16983	,	-7.3387733	,	4
3,30	,	81874	,	-19345	,	-16977	,	0.15718651	,	8
3,30	,	81890	,	-19320	,	-16991	,	10.301572	,	15
3,30	,	81922	,	-19322	,	-16984	,	21.878036	,	25
3,30	,	81938	,	-19325	,	-16982	,	33.2317	,	36
3,30	,	81969	,	-19310	,	-16953	,	42.700996	,	47
3,30	,	81986	,	-19313	,	-16976	,	49.162228	,	56
3,30	,	82002	,	-19311	,	-16969	,	52.184803	,	61
3,30	,	82034	,	-19304	,	-16977	,	51.862366	,	63
3,30	,	82050	,	-19307	,	-16975	,	48.71009	,	61
3,30	,	82066	,	-19310	,	-16967	,	43.450855	,	57
3,30	,	82098	,	-19310	,	-16972	,	36.797714	,	50
3,30	,	82113	,	-19310	,	-16991	,	29.435783	,	40
3,30	,	82146	,	-19307	,	-16987	,	22.045576	,	29
3,30	,	82162	,	-19315	,	-16988	,	15.212309	,	18
3,30	,	82178	,	-19311	,	-16962	,	9.302745	,	9
3,30	,	82210	,	-19311	,	-16967	,	4.4991503	,	3
3,30	,	82226	,	-19319	,	-16962	,	0.8553219	,	0
3,30	,	82242	,	-19310	,	-16993	,	-1.7069726	,	0
3,30	,	82273	,	-19320	,	-16968	,	-3.3269944	,	0
3,30	,	82289	,	-19323	,	-16984	,	-4.2165956	,	0
3,30	,	82305	,	-19344	,	-17000	,	-4.768503	,	0
3,30	,	82338	,	-19343	,	-16975	,	-5.4830117	,	0
3,30	,	82354	,	-19352	,	-16995	,	-6.690657	,	0
3,30	,	82386	,	-19353	,	-17017	,	-8.397575	,	0
3,30	,	82402	,	-19369	,	-16996	,	-10.437608	,	0
3,30	,	82418	,	-19380	,	-17013	,	-12.714794	,	0
3,30	,	82449	,	-19376	,	-16996	,	-15.178226	,	0
3,30	,	82465	,	-19379	,	-17000	,	-17.577095	,	0
3,30	,	82482	,	-19382	,	-17002	,	-19.495222	,	0
3,30	,	82514	,	-19390	,	-17019	,	-20.65105	,	0
3,30	,	82530	,	-19396	,	-16991	,	-21.03947	,	0
3,30	,	82561	,	-19404	,	-17026	,	-20.857922	,	0
3,30	,	82578	,	-19421	,	-17032	,	-20.423367	,	0
3,31	,	82593	,	-19430	,	-17014	,	-20.137047	,	0
3,31	,	82625	,	-19431	,	-17032	,	-20.294731	,	0
3,31	,	82641	,	-19429	,	-17011	,	-20.829826	,	0
3,31	,	82657	,	-19448	,	-17018	,	-21.437405	,	0
3,31	,	82690	,	-19450	,	-17016	,	-21.952318	,	0
3,31	,	82706	,	-19447	,	-17029	,	-22.33186	,	0
3,31	,	82722	,	-19462	,	-17051	,	-22.462	,	0
3,31	,	82753	,	-19480	,	-17007	,	-22.367634	,	0
3,31	,	82769	,	-19447	,	-16995	,	-22.169466	,	0
3,31	,	82801	,	-19367	,	-16969	,	-21.18536	,	0
3,31	,	82817	,	-19343	,	-16986	,	-17.621288	,	0
3,31	,	82833	,	-19337	,	-16995	,	-10.040256	,	3
3,31	,	82866	,	-19333	,	-16980	,	1.2160492	,	10
3,31	,	82881	,	-19316	,	-16993	,	14.397088	,	21
3,31	,	82897	,	-19306	,	-16962	,	27.519966	,	34
3,31	,	82929	,	-19308	,	-16947	,	38.971405	,	47
3,31	,	82945	,	-19288	,	-16990	,	47.62404	,	58
3,31	,	82977	,	-19287	,	-16963	,	52.972363	,	66
3,31	,	82994	,	-19277	,	-16935	,	55.08556	,	71
3,31	,	83009	,	-19277	,	-16945	,	54.35099	,	73
3,31	,	83041	,	-19284	,	-16952	,	51.25674	,	70
3,31	,	83058	,	-19276	,	-16961	,	46.288376	,	63
3,31	,	83073	,	-19274	,	-16937	,	40.032608	,	52
3,31	,	83105	,	-19275	,	-16937	,	33.195198	,	39
3,31	,	83121	,	-19266	,	-16919	,	26.438292	,	26
3,31	,	83153	,	-19268	,	-16916	,	20.304419	,	15
3,31	,	83169	,	-19270	,	-16923	,	15.130067	,	7
3,31	,	83185	,	-19279	,	-16960	,	10.939135	,	2
3,31	,	83217	,	-19273	,	-16967	,	7.5437555	,	0
3,31	,	83233	,	-19277	,	-16935	,	4.7746177	,	0
3,31	,	83249	,	-19298	,	-16956	,	2.448512	,	0
3,31	,	83281	,	-19303	,	-16928	,	0.18819928	,	0
3,31	,	83298	,	-19302	,	-16939	,	-2.3471458	,	0
3,31	,	83313	,	-19306	,	-16961	,	-5.124227	,	0
3,31	,	83345	,	-19318	,	-16958	,	-7.8927617	,	0
3,31	,	83361	,	-19313	,	-16972	,	-10.455078	,	0
3,31	,	83393	,	-19316	,	-16959	,	-12.6154995	,	0
3,31	,	83409	,	-19328	,	-16968	,	-14.197016	,	0
3,31	,	83425	,	-19337	,	-16954	,	-15.251254	,	0
3,31	,	83457	,	-19337	,	-16962	,	-15.995344	,	0
3,31	,	83473	,	-19339	,	-16974	,	-16.530182	,	0
3,31	,	83489	,	-19351	,	-17001	,	-16.835	,	0
3,31	,	83521	,	-19363	,	-16994	,	-17.006138	,	0
3,31	,	83537	,	-19358	,	-16995	,	-17.229702	,	0
3,31	,	83569	,	-19374	,	-17010	,	-17.5613	,	0
3,32	,	83585	,	-19378	,	-16996	,	-17.985405	,	0
3,32	,	83601	,	-19383	,	-17023	,	-18.50916	,	0
3,32	,	83633	,	-19387	,	-17015	,	-19.07455	,	0
3,32	,	83649	,	-19390	,	-17021	,	-19.548923	,	0
3,32	,	83665	,	-19388	,	-16993	,	-19.763428	,	0
3,32	,	83697	,	-19407	,	-17011	,	-19.616173	,	0
3,32	,	83713	,	-19411	,	-17010	,	-19.239628	,	0
3,32	,	83729	,	-19427	,	-17031	,	-18.942253	,	0
3,32	,	83761	,	-19420	,	-17040	,	-18.946537	,	0
3,32	,	83777	,	-19418	,	-17037	,	-19.154045	,	0
3,32	,	83809	,	-19400	,	-17015	,	-19.097273	,	0
3,32	,	83825	,	-19362	,	-17014	,	-17.990469	,	0
3,32	,	83841	,	-19328	,	-16976	,	-14.799945	,	1
3,32	,	83873	,	-19306	,	-16959	,	-8.660548	,	4
3,32	,	83889	,	-19292	,	-16972	,	0.5171881	,	10
3,32	,	83905	,	-19286	,	-16963	,	11.855297	,	19
3,32	,	83937	,	-19283	,	-16973	,	23.802778	,	30
3,32	,	83953	,	-19268	,	-16950	,	34.702385	,	41
3,32	,	83985	,	-19256	,	-16966	,	43.37107	,	51
3,32	,	84001	,	-19256	,	-16965	,	49.25511	,	59
3,32	,	84017	,	-19242	,	-16967	,	52.235497	,	64
3,32	,	84049	,	-19244	,	-16958	,	52.513477	,	65
3,32	,	84065	,	-19243	,	-16968	,	50.47802	,	62
3,32	,	84081	,	-19246	,	-16964	,	46.538498	,	56
3,32	,	84113	,	-19251	,	-16951	,	41.092743	,	47
3,32	,	84130	,	-19258	,	-16963	,	34.52381	,	36
3,32	,	84145	,	-19255	,	-16973	,	27.248508	,	25
3,32	,	84177	,	-19256	,	-16969	,	19.808277	,	15
3,32	,	84193	,	-19257	,	-16949	,	12.797525	,	7
3,32	,	84225	,	-19249	,	-16968	,	6.7317333	,	2
3,32	,	84241	,	-19266	,	-16977	,	1.9357157	,	0
3,32	,	84257	,	-19274	,	-16979	,	-1.647181	,	0
3,32	,	84289	,	-19278	,	-16965	,	-4.3973417	,	0
3,32	,	84305	,	-19272	,	-16980	,	-6.619754	,	0
3,32	,	84321	,	-19283	,	-16968	,	-8.372992	,	0
3,32	,	84353	,	-19288	,	-16970	,	-9.688107	,	0
3,32	,	84369	,	-19303	,	-16981	,	-10.7516165	,	0
3,32	,	84401	,	-19296	,	-16971	,	-11.784294	,	0
3,32	,	84417	,	-19313	,	-17014	,	-12.856339	,	0
3,32	,	84433	,	-19302	,	-16959	,	-13.900097	,	0
3,32	,	84465	,	-19330	,	-17002	,	-14.844917	,	0
3,32	,	84481	,	-19330	,	-16988	,	-15.773239	,	0
3,32	,	84497	,	-19345	,	-17006	,	-16.872166	,	0
3,32	,	84529	,	-19345	,	-16995	,	-18.209818	,	0
3,32	,	84545	,	-19350	,	-17023	,	-19.657145	,	0
3,32	,	84561	,	-19369	,	-17011	,	-21.036747	,	0
3,33	,	84593	,	-19362	,	-17005	,	-22.27213	,	0
3,33	,	84609	,	-19375	,	-17010	,	-23.282917	,	0
3,33	,	84641	,	-19373	,	-17027	,	-23.92403	,	0
3,33	,	84657	,	-19382	,	-17050	,	-24.093082	,	0
3,33	,	84672	,	-19402	,	-17031	,	-23.854862	,	0
3,33	,	84705	,	-19409	,	-17046	,	-23.521957	,	0
3,33	,	84721	,	-19412	,	-17051	,	-23.418167	,	0
3,33	,	84737	,	-19421	,	-17024	,	-23.605883	,	0
3,33	,	84769	,	-19433	,	-17025	,	-24.002256	,	0
3,33	,	84785	,	-19442	,	-17010	,	-24.57283	,	0
3,33	,	84817	,	-19448	,	-17055	,	-25.300797	,	0
3,33	,	84833	,	-19455	,	-17057	,	-26.088963	,	0
3,33	,	84849	,	-19464	,	-17044	,	-26.789108	,	0
3,33	,	84881	,	-19451	,	-17026	,	-27.20588	,	0
3,33	,	84897	,	-19450	,	-17033	,	-26.987316	,	0
3,33	,	84913	,	-19424	,	-17021	,	-25.63299	,	0
3,33	,	84945	,	-19366	,	-16983	,	-22.40438	,	1
3,33	,	84961	,	-19347	,	-16986	,	-16.314972	,	4
3,33	,	84992	,	-19352	,	-16991	,	-6.96809	,	10
3,33	,	85008	,	-19336	,	-17012	,	4.710046	,	19
3,33	,	85025	,	-19334	,	-16991	,	17.006626	,	30
3,33	,	85057	,	-19332	,	-16996	,	28.239326	,	42
3,33	,	85073	,	-19322	,	-17020	,	37.108883	,	53
3,33	,	85089	,	-19328	,	-17001	,	42.870747	,	61
3,33	,	85120	,	-19314	,	-16969	,	45.3457	,	66
3,33	,	85136	,	-19320	,	-16973	,	44.82377	,	67
3,33	,	85152	,	-19327	,	-16948	,	41.82824	,	64
3,33	,	85184	,	-19318	,	-16975	,	36.921234	,	58
3,33	,	85200	,	-19318	,	-16996	,	30.805813	,	49
3,33	,	85233	,	-19325	,	-16984	,	24.260765	,	38
3,33	,	85249	,	-19322	,	-16971	,	17.877232	,	26
3,33	,	85265	,	-19313	,	-16953	,	12.098013	,	15
3,33	,	85297	,	-19316	,	-16960	,	7.3312855	,	7
3,33	,	85312	,	-19321	,	-16975	,	3.785883	,	2
3,33	,	85328	,	-19317	,	-16970	,	1.3745441	,	0
3,33	,	85360	,	-19320	,	-16977	,	-0.11382198	,	0
3,33	,	85376	,	-19324	,	-16976	,	-0.91193116	,	0
3,33	,	85408	,	-19342	,	-16973	,	-1.3710202	,	0
3,33	,	85425	,	-19348	,	-16996	,	-1.9996192	,	0
3,33	,	85441	,	-19356	,	-16989	,	-3.2437406	,	0
3,33	,	85472	,	-19355	,	-16986	,	-5.211558	,	0
3,33	,	85488	,	-19355	,	-16989	,	-7.6292424	,	0
3,33	,	85504	,	-19370	,	-17009	,	-10.086421	,	0
3,33	,	85536	,	-19367	,	-17018	,	-12.318426	,	0
3,33	,	85552	,	-19372	,	-16997	,	-14.171274	,	0
3,33	,	85568	,	-19378	,	-17033	,	-15.50927	,	0
3,34	,	85601	,	-19379	,	-17012	,	-16.286499	,	0
3,34	,	85616	,	-19380	,	-17020	,	-16.51958	,	0
3,34	,	85648	,	-19389	,	-17016	,	-16.258093	,	0
3,34	,	85664	,	-19397	,	-17005	,	-15.676708	,	0
3,34	,	85680	,	-19407	,	-17028	,	-15.080065	,	0
3,34	,	85712	,	-19402	,	-17043	,	-14.721848	,	0
3,34	,	85728	,	-19407	,	-17039	,	-14.610605	,	0
3,34	,	85744	,	-19417	,	-17019	,	-14.610361	,	0
3,34	,	85777	,	-19421	,	-17011	,	-14.684647	,	0
3,34	,	85792	,	-19432	,	-17041	,	-14.905232	,	0
3,34	,	85824	,	-19442	,	-17023	,	-15.37618	,	0
3,34	,	85840	,	-19434	,	-17023	,	-16.125507	,	0
3,34	,	85856	,	-19441	,	-17060	,	-16.949806	,	0
3,34	,	85888	,	-19440	,	-17023	,	-17.52298	,	0
3,34	,	85904	,	-19392	,	-17036	,	-17.375189	,	0
3,34	,	85920	,	-19362	,	-17017	,	-15.568242	,	0
3,34	,	85952	,	-19344	,	-17016	,	-11.04353	,	1
3,34	,	85968	,	-19350	,	-17002	,	-3.5895863	,	5
3,34	,	85984	,	-19346	,	-17009	,	5.79112	,	12
3,34	,	86016	,	-19340	,	-17006	,	15.472563	,	21
3,34	,	86032	,	-19337	,	-17013	,	24.003284	,	30
3,34	,	86064	,	-19329	,	-16990	,	30.457863	,	38
3,34	,	86080	,	-19320	,	-16990	,	34.479366	,	44
3,34	,	86096	,	-19325	,	-16985	,	36.157063	,	48
3,34	,	86130	,	-19320	,	-16993	,	35.757957	,	49
3,34	,	86144	,	-19334	,	-17028	,	33.5577	,	48
3,34	,	86160	,	-19340	,	-17028	,	29.778353	,	44
3,34	,	86192	,	-19337	,	-17006	,	24.67107	,	37
3,34	,	86208	,	-19337	,	-17009	,	18.724342	,	28
3,34	,	86240	,	-19336	,	-16998	,	12.629876	,	19
3,34	,	86256	,	-19337	,	-17011	,	7.03671	,	11
3,34	,	86272	,	-19342	,	-17003	,	2.3660946	,	5
3,34	,	86304	,	-19338	,	-16981	,	-1.2208562	,	1
3,34	,	86320	,	-19337	,	-17014	,	-3.6981657	,	0
3,34	,	86336	,	-19355	,	-17017	,	-5.1792884	,	0
3,34	,	86368	,	-19355	,	-17024	,	-6.030885	,	0
3,34	,	86384	,	-19366	,	-17017	,	-6.7109437	,	0
3,34	,	86400	,	-19371	,	-17013	,	-7.544408	,	0
3,34	,	86432	,	-19376	,	-17031	,	-8.685933	,	0
3,34	,	86448	,	-19377	,	-17021	,	-10.104355	,	0
3,34	,	86480	,	-19398	,	-17014	,	-11.686581	,	0
3,34	,	86496	,	-19398	,	-17045	,	-13.418407	,	0
3,34	,	86512	,	-19403	,	-17040	,	-15.281217	,	0
3,34	,	86544	,	-19403	,	-17028	,	-17.067398	,	0
3,34	,	86560	,	-19409	,	-17051	,	-18.477663	,	0
3,34	,	86576	,	-19426	,	-17029	,	-19.381603	,	0
3,35	,	86608	,	-19426	,	-17045	,	-19.91754	,	0
3,35	,	86624	,	-19436	,	-17052	,	-20.282194	,	0
3,35	,	86656	,	-19451	,	-17055	,	-20.614002	,	0
3,35	,	86672	,	-19462	,	-17062	,	-21.109104	,	0
3,35	,	86688	,	-19457	,	-17068	,	-21.901312	,	0
3,35	,	86720	,	-19466	,	-17035	,	-22.836548	,	0
3,35	,	86736	,	-19474	,	-17048	,	-23.628944	,	0
3,35	,	86752	,	-19481	,	-17066	,	-24.13976	,	0
3,35	,	86784	,	-19480	,	-17072	,	-24.339947	,	0
3,35	,	86800	,	-19498	,	-17077	,	-24.221876	,	0
3,35	,	86832	,	-19491	,	-17051	,	-23.843307	,	0
3,35	,	86848	,	-19508	,	-17084	,	-23.288015	,	0
3,35	,	86864	,	-19520	,	-17053	,	-22.701183	,	0
3,35	,	86896	,	-19511	,	-17078	,	-22.263481	,	0
3,35	,	86912	,	-19491	,	-17069	,	-21.801079	,	0
3,35	,	86928	,	-19442	,	-17035	,	-20.466692	,	0
3,35	,	86960	,	-19423	,	-17013	,	-16.993473	,	1
3,35	,	86976	,	-19416	,	-17049	,	-10.57106	,	4
3,35	,	86992	,	-19406	,	-17019	,	-1.527358	,	10
3,35	,	87024	,	-19397	,	-17016	,	8.939159	,	19
3,35	,	87040	,	-19393	,	-17032	,	19.398026	,	29
3,35	,	87072	,	-19394	,	-17009	,	28.539694	,	39
3,35	,	87088	,	-19387	,	-17028	,	35.36428	,	48
3,35	,	87103	,	-19376	,	-16988	,	39.404343	,	54
3,35	,	87136	,	-19371	,	-17020	,	40.79832	,	58
3,35	,	87152	,	-19373	,	-17031	,	40.020306	,	58
3,35	,	87168	,	-19381	,	-17024	,	37.508064	,	55
3,35	,	87200	,	-19379	,	-17015	,	33.56468	,	49
3,35	,	87215	,	-19380	,	-17020	,	28.529726	,	40
3,35	,	87248	,	-19378	,	-16986	,	22.883162	,	30
3,35	,	87264	,	-19377	,	-16975	,	17.169827	,	20
3,35	,	87280	,	-19372	,	-17003	,	11.9122095	,	11
3,35	,	87312	,	-19375	,	-16988	,	7.5249634	,	5
3,35	,	87328	,	-19386	,	-16970	,	4.149843	,	1
3,35	,	87344	,	-19382	,	-16979	,	1.6231036	,	0
3,35	,	87376	,	-19385	,	-16989	,	-0.27959847	,	0
3,35	,	87392	,	-19407	,	-16981	,	-1.7855719	,	0
3,35	,	87408	,	-19402	,	-17011	,	-3.2484293	,	0
3,35	,	87440	,	-19406	,	-16990	,	-4.909948	,	0
3,35	,	87456	,	-19422	,	-17000	,	-6.7617154	,	0
3,35	,	87488	,	-19419	,	-17007	,	-8.7658415	,	0
3,35	,	87503	,	-19410	,	-17009	,	-10.76717	,	0
3,35	,	87520	,	-19423	,	-17004	,	-12.394295	,	0
3,35	,	87552	,	-19435	,	-17015	,	-13.450188	,	0
3,35	,	87568	,	-19439	,	-17028	,	-14.119391	,	0
3,36	,	87584	,	-19451	,	-17041	,	-14.704781	,	0
3,36	,	87616	,	-19460	,	-17034	,	-15.441452	,	0
3,36	,	87632	,	-19466	,	-17030	,	-16.465141	,	0
3,36	,	87664	,	-19470	,	-17058	,	-17.748896	,	0
3,36	,	87680	,	-19477	,	-17040	,	-19.117743	,	0
3,36	,	87695	,	-19484	,	-17060	,	-20.374697	,	0
3,36	,	87727	,	-19486	,	-17052	,	-21.375807	,	0
3,36	,	87744	,	-19487	,	-17064	,	-21.985325	,	0
3,36	,	87760	,	-19505	,	-17076	,	-22.130379	,	0
3,36	,	87791	,	-19514	,	-17061	,	-21.978828	,	0
3,36	,	87807	,	-19513	,	-17056	,	-21.815788	,	0
3,36	,	87823	,	-19522	,	-17059	,	-21.740747	,	0
3,36	,	87856	,	-19527	,	-17073	,	-21.69669	,	0
3,36	,	87872	,	-19543	,	-17090	,	-21.681606	,	0
3,36	,	87904	,	-19542	,	-17089	,	-21.775507	,	0
3,36	,	87920	,	-19537	,	-17093	,	-21.930252	,	0
3,36	,	87935	,	-19528	,	-17085	,	-21.80135	,	0
3,36	,	87967	,	-19514	,	-17075	,	-20.85849	,	0
3,36	,	87983	,	-19479	,	-17069	,	-18.491034	,	0
3,36	,	87999	,	-19442	,	-17063	,	-13.967294	,	2
3,36	,	88031	,	-19426	,	-17032	,	-6.6944876	,	6
3,36	,	88048	,	-19416	,	-17014	,	3.1962366	,	13
3,36	,	88079	,	-19399	,	-17018	,	14.706064	,	22
3,36	,	88095	,	-19396	,	-17011	,	26.418215	,	33
3,36	,	88111	,	-19383	,	-17037	,	36.94909	,	44
3,36	,	88143	,	-19382	,	-17002	,	45.219944	,	54
3,36	,	88159	,	-19375	,	-17019	,	50.584465	,	62
3,36	,	88176	,	-19365	,	-16993	,	52.869247	,	67
3,36	,	88207	,	-19368	,	-16990	,	52.331734	,	67
3,36	,	88223	,	-19373	,	-17002	,	49.406586	,	63
3,36	,	88239	,	-19376	,	-16999	,	44.50496	,	56
3,36	,	88271	,	-19379	,	-16996	,	38.075325	,	47
3,36	,	88287	,	-19382	,	-16997	,	30.67538	,	36
3,36	,	88319	,	-19389	,	-17011	,	22.898046	,	25
3,36	,	88335	,	-19378	,	-17013	,	15.318129	,	15
3,36	,	88351	,	-19389	,	-17015	,	8.4901705	,	7
3,36	,	88383	,	-19377	,	-17002	,	2.8505268	,	2
3,36	,	88399	,	-19388	,	-17015	,	-1.3628855	,	0
3,36	,	88415	,	-19399	,	-16996	,	-4.207747	,	0
3,36	,	88447	,	-19390	,	-17009	,	-6.015477	,	0
3,36	,	88464	,	-19392	,	-17015	,	-7.055177	,	0
3,36	,	88495	,	-19404	,	-17050	,	-7.4761567	,	0
3,36	,	88511	,	-19418	,	-17013	,	-7.6105347	,	0
3,36	,	88527	,	-19429	,	-17007	,	-7.984683	,	0
3,36	,	88559	,	-19432	,	-17014	,	-9.002377	,	0
3,36	,	88575	,	-19433	,	-17021	,	-10.6886635	,	0
3,37	,	88591	,	-19447	,	-17030	,	-12.771012	,	0
3,37	,	88623	,	-19444	,	-17042	,	-14.942198	,	0
3,37	,	88639	,	-19454	,	-17033	,	-16.940733	,	0
3,37	,	88671	,	-19470	,	-17035	,	-18.619032	,	0
3,37	,	88687	,	-19464	,	-17040	,	-19.996408	,	0
3,37	,	88703	,	-19468	,	-17030	,	-21.031494	,	0
3,37	,	88735	,	-19467	,	-17041	,	-21.52246	,	0
3,37	,	88751	,	-19476	,	-17046	,	-21.325191	,	0
3,37	,	88767	,	-19511	,	-17056	,	-20.657207	,	0
3,37	,	88799	,	-19506	,	-17079	,	-20.134983	,	0
3,37	,	88815	,	-19506	,	-17044	,	-20.197994	,	0
3,37	,	88831	,	-19523	,	-17076	,	-20.75969	,	0
3,37	,	88863	,	-19528	,	-17080	,	-21.60563	,	0
3,37	,	88879	,	-19534	,	-17090	,	-22.613628	,	0
3,37	,	88911	,	-19532	,	-17078	,	-23.587555	,	0
3,37	,	88927	,	-19542	,	-17087	,	-24.252193	,	0
3,37	,	88943	,	-19543	,	-17056	,	-24.418339	,	0
3,37	,	88975	,	-19548	,	-17097	,	-24.0377	,	0
3,37	,	88991	,	-19569	,	-17091	,	-23.23476	,	0
3,37	,	89007	,	-19551	,	-17063	,	-22.259125	,	0
3,37	,	89039	,	-19505	,	-17043	,	-20.917778	,	0
3,37	,	89055	,	-19481	,	-17018	,	-18.203001	,	1
3,37	,	89087	,	-19451	,	-17037	,	-12.967333	,	3
3,37	,	89103	,	-19442	,	-17020	,	-4.801138	,	8
3,37	,	89119	,	-19431	,	-17026	,	5.706419	,	16
3,37	,	89151	,	-19429	,	-17014	,	17.21513	,	26
3,37	,	89167	,	-19426	,	-16985	,	28.116735	,	37
3,37	,	89183	,	-19410	,	-17020	,	37.057724	,	47
3,37	,	89215	,	-19410	,	-17013	,	43.288292	,	55
3,37	,	89231	,	-19406	,	-17004	,	46.594162	,	61
3,37	,	89247	,	-19403	,	-17028	,	47.0811	,	63
3,37	,	89279	,	-19401	,	-16991	,	45.11601	,	61
3,37	,	89295	,	-19403	,	-17002	,	41.23913	,	56
3,37	,	89327	,	-19401	,	-17002	,	36.03308	,	48
3,37	,	89343	,	-19400	,	-17009	,	30.083958	,	38
3,37	,	89359	,	-19396	,	-16984	,	23.978395	,	27
3,37	,	89391	,	-19393	,	-17004	,	18.260817	,	17
3,37	,	89407	,	-19392	,	-16978	,	13.352524	,	9
3,37	,	89423	,	-19383	,	-16994	,	9.520396	,	3
3,37	,	89455	,	-19387	,	-16981	,	6.883709	,	0
3,37	,	89471	,	-19404	,	-16971	,	5.268095	,	0
3,37	,	89503	,	-19399	,	-16996	,	4.1694946	,	0
3,37	,	89519	,	-19412	,	-16991	,	3.0757384	,	0
3,37	,	89535	,	-19410	,	-16994	,	1.6919672	,	0
3,37	,	89567	,	-19416	,	-16994	,	-0.06255734	,	0
3,37	,	89583	,	-19417	,	-16983	,	-2.0876632	,	0
3,38	,	89599	,	-19423	,	-16992	,	-4.1963267	,	0
3,38	,	89631	,	-19430	,	-16983	,	-6.2345777	,	0
3,38	,	89647	,	-19428	,	-16983	,	-8.108147	,	0
3,38	,	89663	,	-19428	,	-16984	,	-9.688469	,	0
3,38	,	89695	,	-19431	,	-17015	,	-10.798627	,	0
3,38	,	89711	,	-19439	,	-16988	,	-11.369707	,	0
3,38	,	89743	,	-19451	,	-16999	,	-11.56898	,	0
3,38	,	89759	,	-19455	,	-17015	,	-11.724804	,	0
3,38	,	89774	,	-19455	,	-17026	,	-12.069159	,	0
3,38	,	89807	,	-19462	,	-17011	,	-12.60202	,	0
3,38	,	89823	,	-19469	,	-17009	,	-13.23576	,	0
3,38	,	89839	,	-19463	,	-17039	,	-13.876982	,	0
3,38	,	89871	,	-19473	,	-17014	,	-14.3660345	,	0
3,38	,	89887	,	-19478	,	-17034	,	-14.594189	,	0
3,38	,	89918	,	-19493	,	-17021	,	-14.667971	,	0
3,38	,	89934	,	-19494	,	-17057	,	-14.829181	,	0
3,38	,	89950	,	-19502	,	-17016	,	-15.240772	,	0
3,38	,	89982	,	-19509	,	-17026	,	-15.909098	,	0
3,38	,	89999	,	-19510	,	-17025	,	-16.741272	,	0
3,38	,	90015	,	-19495	,	-17034	,	-17.47955	,	0
3,38	,	90047	,	-19467	,	-17020	,	-17.51929	,	0
3,38	,	90064	,	-19435	,	-16999	,	-15.90951	,	0
3,38	,	90095	,	-19397	,	-16985	,	-11.651479	,	1
3,38	,	90112	,	-19376	,	-16993	,	-4.153013	,	5
3,38	,	90127	,	-19375	,	-16996	,	6.2899384	,	12
3,38	,	90159	,	-19366	,	-17002	,	18.354454	,	22
3,38	,	90175	,	-19375	,	-17005	,	30.154753	,	34
3,38	,	90191	,	-19358	,	-16971	,	39.939423	,	45
3,38	,	90222	,	-19349	,	-16993	,	46.669678	,	54
3,38	,	90238	,	-19339	,	-16979	,	50.1768	,	60
3,38	,	90254	,	-19346	,	-16977	,	50.78142	,	63
3,38	,	90287	,	-19348	,	-16977	,	48.85705	,	62
3,38	,	90303	,	-19344	,	-17004	,	44.783356	,	58
3,38	,	90334	,	-19354	,	-16999	,	39.06954	,	51
3,38	,	90351	,	-19347	,	-16975	,	32.31424	,	41
3,38	,	90366	,	-19348	,	-16966	,	25.16108	,	29
3,38	,	90399	,	-19342	,	-16972	,	18.278576	,	18
3,38	,	90415	,	-19343	,	-16994	,	12.24036	,	9
3,38	,	90431	,	-19351	,	-16972	,	7.3681755	,	3
3,38	,	90463	,	-19353	,	-16982	,	3.649619	,	0
3,38	,	90479	,	-19358	,	-16989	,	0.85480547	,	0
3,38	,	90510	,	-19371	,	-16982	,	-1.3325768	,	0
3,38	,	90526	,	-19376	,	-16985	,	-3.2871945	,	0
3,38	,	90542	,	-19382	,	-17004	,	-5.3095727	,	0
3,38	,	90574	,	-19377	,	-17020	,	-7.4418864	,	0
3,39	,	90590	,	-19396	,	-17007	,	-9.532048	,	0
3,39	,	90606	,	-19395	,	-17013	,	-11.484405	,	0
3,39	,	90638	,	-19401	,	-16998	,	-13.276001	,	0
3,39	,	90655	,	-19416	,	-17001	,	-14.881678	,	0
3,39	,	90670	,	-19407	,	-17000	,	-16.29944	,	0
3,39	,	90702	,	-19424	,	-17007	,	-17.480242	,	0
3,39	,	90718	,	-19441	,	-17007	,	-18.447243	,	0
3,39	,	90750	,	-19449	,	-17049	,	-19.450773	,	0
3,39	,	90766	,	-19452	,	-17030	,	-20.70184	,	0
3,39	,	90782	,	-19456	,	-17019	,	-22.116714	,	0
3,39	,	90814	,	-19452	,	-17042	,	-23.372305	,	0
3,39	,	90830	,	-19469	,	-17037	,	-24.131691	,	0
3,39	,	90846	,	-19478	,	-17052	,	-24.330956	,	0
3,39	,	90878	,	-19479	,	-17048	,	-24.166431	,	0
3,39	,	90894	,	-19488	,	-17056	,	-23.807165	,	0
3,39	,	90926	,	-19502	,	-17054	,	-23.36707	,	0
3,39	,	90942	,	-19516	,	-17030	,	-23.064177	,	0
3,39	,	90958	,	-19512	,	-17076	,	-23.106178	,	0
3,39	,	90990	,	-19521	,	-17067	,	-23.445892	,	0
3,39	,	91006	,	-19525	,	-17065	,	-23.846962	,	0
3,39	,	91022	,	-19504	,	-17026	,	-23.980402	,	0
3,39	,	91054	,	-19460	,	-17022	,	-23.13341	,	0
3,39	,	91070	,	-19426	,	-17013	,	-20.098236	,	0
3,39	,	91086	,	-19418	,	-17003	,	-13.869942	,	3
3,39	,	91118	,	-19390	,	-16986	,	-4.4354877	,	9
3,39	,	91134	,	-19390	,	-16966	,	7.2463703	,	18
3,39	,	91166	,	-19373	,	-16979	,	19.701054	,	29
3,39	,	91182	,	-19373	,	-16977	,	31.363176	,	41
3,39	,	91198	,	-19358	,	-16981	,	40.955727	,	52
3,39	,	91230	,	-19348	,	-16996	,	47.750908	,	61
3,39	,	91246	,	-19345	,	-16967	,	51.58625	,	67
3,39	,	91262	,	-19345	,	-16997	,	52.611084	,	70
3,39	,	91294	,	-19351	,	-17001	,	51.052563	,	68
3,39	,	91310	,	-19361	,	-16989	,	47.145508	,	62
3,39	,	91342	,	-19354	,	-16990	,	41.22355	,	53
3,39	,	91358	,	-19353	,	-16964	,	33.911453	,	42
3,39	,	91374	,	-19343	,	-16974	,	26.115854	,	30
3,39	,	91406	,	-19349	,	-17001	,	18.749496	,	19
3,39	,	91422	,	-19342	,	-16985	,	12.456891	,	10
3,39	,	91438	,	-19342	,	-16986	,	7.57139	,	4
3,39	,	91470	,	-19361	,	-16980	,	4.094391	,	1
3,39	,	91486	,	-19355	,	-16988	,	1.6575618	,	0
3,39	,	91518	,	-19364	,	-16992	,	-0.19742632	,	0
3,39	,	91534	,	-19374	,	-16995	,	-1.8062671	,	0
3,39	,	91550	,	-19376	,	-16986	,	-3.4423857	,	0
3,40	,	91582	,	-19374	,	-16980	,	-5.2144394	,	0
3,40	,	91598	,	-19391	,	-17013	,	-7.0392785	,	0
3,40	,	91614	,	-19399	,	-16978	,	-8.903908	,	0
3,40	,	91646	,	-19400	,	-16962	,	-10.8906145	,	0
3,40	,	91662	,	-19415	,	-16980	,	-12.984142	,	0
3,40	,	91678	,	-19432	,	-16988	,	-15.174244	,	0
3,40	,	91710	,	-19442	,	-16996	,	-17.588795	,	0
3,40	,	91726	,	-19439	,	-16987	,	-20.250679	,	0
3,40	,	91758	,	-19445	,	-16972	,	-22.853588	,	0
3,40	,	91774	,	-19439	,	-16998	,	-24.898396	,	0
3,40	,	91790	,	-19447	,	-16997	,	-25.949928	,	0
3,40	,	91822	,	-19457	,	-16997	,	-25.867325	,	0
3,40	,	91838	,	-19474	,	-17007	,	-24.93983	,	0
3,40	,	91854	,	-19479	,	-17007	,	-23.728794	,	0
3,40	,	91886	,	-19474	,	-16997	,	-22.655909	,	1
3,40	,	91902	,	-19495	,	-17007	,	-21.825827	,	2
3,40	,	91934	,	-19488	,	-17019	,	-21.236546	,	2
3,40	,	91950	,	-19498	,	-17016	,	-20.84683	,	2
3,40	,	91966	,	-19517	,	-17026	,	-20.617218	,	2
3,40	,	91998	,	-19513	,	-17023	,	-20.636806	,	2
3,40	,	92014	,	-19517	,	-17031	,	-20.906565	,	2
3,40	,	92030	,	-19527	,	-17033	,	-21.229218	,	2
3,40	,	92063	,	-19520	,	-17049	,	-21.399088	,	2
3,40	,	92078	,	-19492	,	-17060	,	-21.05863	,	1
3,40	,	92094	,	-19464	,	-17006	,	-19.439308	,	0
3,40	,	92126	,	-19406	,	-16978	,	-15.460704	,	1
3,40	,	92142	,	-19391	,	-16988	,	-8.162984	,	4
3,40	,	92174	,	-19390	,	-17001	,	2.4950228	,	11
3,40	,	92190	,	-19378	,	-16971	,	15.232668	,	21
3,40	,	92206	,	-19369	,	-16982	,	28.133244	,	33
3,40	,	92238	,	-19365	,	-16983	,	39.482967	,	45
3,40	,	92254	,	-19356	,	-16983	,	48.074654	,	56
3,40	,	92269	,	-19341	,	-16965	,	53.351387	,	64
3,40	,	92302	,	-19330	,	-16979	,	55.453606	,	69
3,40	,	92318	,	-19330	,	-16993	,	54.938835	,	70
3,40	,	92350	,	-19329	,	-16966	,	52.37811	,	67
3,40	,	92366	,	-19335	,	-16969	,	48.185036	,	60
3,40	,	92382	,	-19321	,	-16979	,	42.73989	,	50
3,40	,	92414	,	-19321	,	-16969	,	36.590897	,	38
3,40	,	92430	,	-19332	,	-16978	,	30.31628	,	26
3,40	,	92446	,	-19328	,	-16967	,	24.233902	,	15
3,40	,	92478	,	-19331	,	-16970	,	18.493404	,	7
3,40	,	92494	,	-19330	,	-16975	,	13.268496	,	2
3,40	,	92510	,	-19347	,	-16984	,	8.655162	,	0
3,40	,	92542	,	-19334	,	-16978	,	4.606655	,	0
3,40	,	92558	,	-19345	,	-16997	,	1.1146455	,	0
3,41	,	92590	,	-19359	,	-16975	,	-1.8361526	,	0
3,41	,	92606	,	-19375	,	-16982	,	-4.514493	,	0
3,41	,	92622	,	-19383	,	-16979	,	-7.3275533	,	0
3,41	,	92654	,	-19390	,	-17000	,	-10.492441	,	0
3,41	,	92670	,	-19384	,	-17009	,	-13.860264	,	0
3,41	,	92686	,	-19402	,	-17026	,	-17.03035	,	0
3,41	,	92718	,	-19411	,	-17035	,	-19.72543	,	0
3,41	,	92734	,	-19416	,	-17033	,	-21.92694	,	0
3,41	,	92765	,	-19418	,	-17027	,	-23.631777	,	0
3,41	,	92782	,	-19427	,	-17041	,	-24.7537	,	0
3,41	,	92798	,	-19431	,	-17044	,	-25.252537	,	0
3,41	,	92830	,	-19435	,	-17023	,	-25.169197	,	0
3,41	,	92846	,	-19450	,	-17028	,	-24.621815	,	0
3,41	,	92862	,	-19461	,	-17033	,	-23.88453	,	0
3,41	,	92894	,	-19476	,	-17029	,	-23.353058	,	0
3,41	,	92910	,	-19476	,	-17060	,	-23.319725	,	0
3,41	,	92926	,	-19483	,	-17063	,	-23.771025	,	0
3,41	,	92958	,	-19491	,	-17026	,	-24.458153	,	0
3,41	,	92974	,	-19498	,	-17068	,	-25.13839	,	0
3,41	,	93006	,	-19492	,	-17068	,	-25.60626	,	0
3,41	,	93022	,	-19509	,	-17080	,	-25.653027	,	0
3,41	,	93038	,	-19525	,	-17100	,	-25.29345	,	0
3,41	,	93070	,	-19534	,	-17071	,	-24.868725	,	0
3,41	,	93085	,	-19525	,	-17060	,	-24.652115	,	0
3,41	,	93101	,	-19501	,	-17036	,	-24.369917	,	0
3,41	,	93133	,	-19460	,	-17048	,	-23.076298	,	0
3,41	,	93149	,	-19428	,	-17038	,	-19.47654	,	1
3,41	,	93181	,	-19405	,	-17007	,	-12.614787	,	4
3,41	,	93197	,	-19399	,	-16993	,	-2.5146646	,	10
3,41	,	93214	,	-19399	,	-17017	,	9.669002	,	20
3,41	,	93245	,	-19398	,	-16998	,	22.065773	,	32
3,41	,	93261	,	-19394	,	-17024	,	32.80814	,	44
3,41	,	93277	,	-19387	,	-17027	,	40.615364	,	54
3,41	,	93310	,	-19388	,	-16986	,	44.962006	,	61
3,41	,	93325	,	-19382	,	-16989	,	45.926834	,	65
3,41	,	93357	,	-19388	,	-16997	,	43.96657	,	64
3,41	,	93374	,	-19385	,	-17003	,	39.72489	,	61
3,41	,	93390	,	-19379	,	-17004	,	33.966026	,	55
3,41	,	93421	,	-19387	,	-17017	,	27.510796	,	45
3,41	,	93437	,	-19380	,	-17003	,	21.052675	,	33
3,41	,	93453	,	-19378	,	-17010	,	15.119552	,	21
3,41	,	93485	,	-19378	,	-17004	,	10.117688	,	11
3,41	,	93502	,	-19376	,	-16992	,	6.264598	,	4
3,41	,	93518	,	-19383	,	-17002	,	3.548849	,	0
3,41	,	93549	,	-19396	,	-16993	,	1.6960387	,	0
3,41	,	93566	,	-19399	,	-17014	,	0.2209692	,	0
3,42	,	93597	,	-19402	,	-16999	,	-1.2921937	,	0
3,42	,	93613	,	-19399	,	-17006	,	-2.9549203	,	0
3,42	,	93629	,	-19409	,	-17006	,	-4.648477	,	0
3,42	,	93661	,	-19421	,	-16988	,	-6.3047504	,	0
3,42	,	93677	,	-19427	,	-16998	,	-8.030823	,	0
3,42	,	93693	,	-19441	,	-17039	,	-9.975573	,	0
3,42	,	93725	,	-19440	,	-17006	,	-12.185913	,	0
3,42	,	93741	,	-19435	,	-17014	,	-14.470561	,	0
3,42	,	93773	,	-19443	,	-17021	,	-16.411331	,	0
3,42	,	93789	,	-19454	,	-17023	,	-17.705204	,	0
3,42	,	93805	,	-19460	,	-17028	,	-18.39648	,	0
3,42	,	93837	,	-19461	,	-16996	,	-18.68833	,	0
3,42	,	93853	,	-19465	,	-17035	,	-18.69408	,	0
3,42	,	93869	,	-19469	,	-17007	,	-18.43234	,	0
