Data recorded on Sun Jul 23 15-48-55 CAT 2017
Time: 15:49:6
Time		Millis		IR PPG		Red PPG		Filtered		SSF
49,15	,	57890	,	-23915	,	-22261	,	-5.970091	,	0
49,15	,	57906	,	-23919	,	-22266	,	-8.304787	,	0
49,15	,	57938	,	-23920	,	-22267	,	-10.307258	,	0
49,15	,	57954	,	-23921	,	-22274	,	-11.630726	,	0
49,15	,	57970	,	-23933	,	-22277	,	-12.21866	,	0
49,15	,	58002	,	-23934	,	-22286	,	-12.259487	,	0
49,15	,	58018	,	-23938	,	-22270	,	-12.024284	,	0
49,15	,	58050	,	-23936	,	-22276	,	-11.674978	,	0
49,15	,	58066	,	-23928	,	-22280	,	-11.18733	,	0
49,15	,	58082	,	-23913	,	-22269	,	-10.316551	,	0
49,15	,	58114	,	-23908	,	-22268	,	-8.692434	,	0
49,15	,	58130	,	-23898	,	-22259	,	-6.076481	,	1
49,15	,	58146	,	-23899	,	-22258	,	-2.5443397	,	3
49,15	,	58178	,	-23894	,	-22264	,	1.5311456	,	6
49,15	,	58194	,	-23893	,	-22253	,	5.636792	,	10
49,15	,	58210	,	-23881	,	-22269	,	9.337527	,	14
49,15	,	58242	,	-23891	,	-22247	,	12.361442	,	17
49,15	,	58258	,	-23895	,	-22251	,	14.444954	,	20
49,15	,	58290	,	-23889	,	-22251	,	15.326618	,	22
49,15	,	58306	,	-23892	,	-22253	,	14.980571	,	22
49,15	,	58322	,	-23890	,	-22254	,	13.628981	,	21
49,15	,	58354	,	-23890	,	-22253	,	11.58955	,	19
49,15	,	58370	,	-23906	,	-22256	,	9.130808	,	16
49,15	,	58386	,	-23895	,	-22260	,	6.3954945	,	12
49,15	,	58418	,	-23888	,	-22252	,	3.6187353	,	8
49,15	,	58434	,	-23889	,	-22254	,	1.2375274	,	5
49,15	,	58466	,	-23890	,	-22272	,	-0.41427612	,	2
49,15	,	58482	,	-23897	,	-22240	,	-1.3300021	,	0
49,15	,	58498	,	-23908	,	-22264	,	-1.790669	,	0
49,15	,	58530	,	-23914	,	-22259	,	-2.2308736	,	0
49,15	,	58545	,	-23916	,	-22263	,	-3.0127976	,	0
49,15	,	58562	,	-23911	,	-22261	,	-4.2004595	,	0
49,15	,	58594	,	-23913	,	-22270	,	-5.5483937	,	0
49,15	,	58610	,	-23905	,	-22268	,	-6.6895456	,	0
49,15	,	58626	,	-23908	,	-22271	,	-7.307523	,	0
49,15	,	58658	,	-23925	,	-22271	,	-7.335051	,	0
49,15	,	58674	,	-23923	,	-22278	,	-7.0551777	,	0
49,15	,	58706	,	-23931	,	-22294	,	-6.838384	,	0
49,15	,	58722	,	-23936	,	-22271	,	-6.908038	,	0
49,15	,	58738	,	-23940	,	-22282	,	-7.3618784	,	0
49,15	,	58770	,	-23934	,	-22275	,	-8.1352005	,	0
49,15	,	58786	,	-23922	,	-22281	,	-8.900646	,	0
49,15	,	58801	,	-23909	,	-22277	,	-9.105046	,	0
49,15	,	58834	,	-23919	,	-22266	,	-8.282584	,	0
49,15	,	58850	,	-23902	,	-22261	,	-6.368511	,	0
49,15	,	58882	,	-23899	,	-22265	,	-3.563548	,	1
49,16	,	58898	,	-23894	,	-22270	,	-0.1197207	,	3
49,16	,	58914	,	-23904	,	-22258	,	3.5608585	,	6
49,16	,	58946	,	-23885	,	-22282	,	6.969655	,	9
49,16	,	58961	,	-23894	,	-22250	,	9.773162	,	12
49,16	,	58977	,	-23898	,	-22271	,	11.77894	,	14
49,16	,	59010	,	-23896	,	-22268	,	12.774401	,	16
49,16	,	59026	,	-23898	,	-22265	,	12.670218	,	16
49,16	,	59042	,	-23906	,	-22266	,	11.564279	,	16
49,16	,	59074	,	-23911	,	-22265	,	9.586664	,	15
49,16	,	59090	,	-23898	,	-22263	,	6.9452167	,	13
49,16	,	59122	,	-23897	,	-22270	,	4.0999665	,	10
49,16	,	59138	,	-23910	,	-22269	,	1.5488901	,	7
49,16	,	59154	,	-23917	,	-22265	,	-0.57347846	,	4
49,16	,	59186	,	-23917	,	-22285	,	-2.42944	,	2
49,16	,	59201	,	-23918	,	-22262	,	-4.12528	,	0
49,16	,	59217	,	-23926	,	-22260	,	-5.6373825	,	0
49,16	,	59250	,	-23931	,	-22264	,	-6.97314	,	0
49,16	,	59266	,	-23932	,	-22271	,	-8.193131	,	0
49,16	,	59297	,	-23941	,	-22278	,	-9.324428	,	0
49,16	,	59313	,	-23941	,	-22274	,	-10.362099	,	0
49,16	,	59329	,	-23945	,	-22281	,	-11.271677	,	0
49,16	,	59361	,	-23948	,	-22276	,	-11.98754	,	0
49,16	,	59378	,	-23954	,	-22276	,	-12.477062	,	0
49,16	,	59394	,	-23968	,	-22286	,	-12.823746	,	0
49,16	,	59425	,	-23974	,	-22287	,	-13.241262	,	0
49,16	,	59442	,	-23954	,	-22285	,	-13.805044	,	0
49,16	,	59457	,	-23961	,	-22277	,	-14.198135	,	0
49,16	,	59489	,	-23947	,	-22281	,	-13.953728	,	0
49,16	,	59505	,	-23939	,	-22277	,	-12.73328	,	0
49,16	,	59538	,	-23932	,	-22274	,	-10.352812	,	1
49,16	,	59554	,	-23943	,	-22274	,	-6.93516	,	3
49,16	,	59570	,	-23942	,	-22277	,	-3.0308208	,	6
49,16	,	59601	,	-23931	,	-22275	,	0.69994354	,	9
49,16	,	59617	,	-23939	,	-22273	,	3.8555412	,	12
49,16	,	59634	,	-23933	,	-22271	,	6.236639	,	15
49,16	,	59665	,	-23935	,	-22263	,	7.741972	,	17
49,16	,	59681	,	-23945	,	-22275	,	8.347727	,	18
49,16	,	59713	,	-23939	,	-22272	,	8.048838	,	18
49,16	,	59730	,	-23944	,	-22267	,	6.950307	,	17
49,16	,	59745	,	-23947	,	-22277	,	5.286747	,	15
49,16	,	59777	,	-23952	,	-22274	,	3.2712612	,	12
49,16	,	59793	,	-23954	,	-22273	,	1.0577507	,	9
49,16	,	59809	,	-23945	,	-22271	,	-1.1521149	,	6
49,16	,	59841	,	-23952	,	-22281	,	-3.0664752	,	3
49,16	,	59857	,	-23948	,	-22284	,	-4.4479566	,	1
49,16	,	59873	,	-23954	,	-22289	,	-5.2335253	,	0
49,17	,	59905	,	-23959	,	-22271	,	-5.5286937	,	0
49,17	,	59921	,	-23958	,	-22283	,	-5.5408278	,	0
49,17	,	59953	,	-23967	,	-22279	,	-5.4751787	,	0
49,17	,	59969	,	-23974	,	-22286	,	-5.5303774	,	0
49,17	,	59985	,	-23969	,	-22286	,	-5.8609676	,	0
49,17	,	60017	,	-23972	,	-22292	,	-6.4297338	,	0
49,17	,	60033	,	-23981	,	-22290	,	-7.0883155	,	0
49,17	,	60049	,	-23983	,	-22296	,	-7.7828245	,	0
49,17	,	60081	,	-23989	,	-22297	,	-8.53156	,	0
49,17	,	60097	,	-23989	,	-22306	,	-9.319266	,	0
49,17	,	60129	,	-24000	,	-22305	,	-10.1115465	,	0
49,17	,	60145	,	-23998	,	-22289	,	-10.894561	,	0
49,17	,	60161	,	-23983	,	-22302	,	-11.532942	,	0
49,17	,	60193	,	-23983	,	-22295	,	-11.655603	,	0
49,17	,	60209	,	-23976	,	-22303	,	-10.900137	,	0
49,17	,	60225	,	-23981	,	-22301	,	-9.197674	,	0
49,17	,	60257	,	-23979	,	-22300	,	-6.799004	,	1
49,17	,	60273	,	-23976	,	-22300	,	-4.104677	,	3
49,17	,	60289	,	-23980	,	-22301	,	-1.4774342	,	5
49,17	,	60321	,	-23988	,	-22302	,	0.7486067	,	7
49,17	,	60337	,	-23987	,	-22296	,	2.2475853	,	9
49,17	,	60369	,	-23992	,	-22311	,	2.8405564	,	10
49,17	,	60385	,	-23998	,	-22284	,	2.5316494	,	10
49,17	,	60401	,	-23996	,	-22305	,	1.4401551	,	10
49,17	,	60433	,	-23993	,	-22306	,	-0.16216326	,	10
49,17	,	60449	,	-24003	,	-22302	,	-1.9097006	,	9
49,17	,	60465	,	-24003	,	-22307	,	-3.557469	,	7
49,17	,	60497	,	-24006	,	-22308	,	-5.012703	,	5
49,17	,	60513	,	-24004	,	-22304	,	-6.201957	,	3
49,17	,	60545	,	-24009	,	-22313	,	-7.0411744	,	1
49,17	,	60561	,	-24014	,	-22308	,	-7.527077	,	0
49,17	,	60577	,	-24006	,	-22306	,	-7.731434	,	0
49,17	,	60609	,	-24016	,	-22316	,	-7.693123	,	0
49,17	,	60625	,	-24006	,	-22282	,	-7.418035	,	0
49,17	,	60641	,	-24011	,	-22287	,	-6.895149	,	0
49,17	,	60673	,	-24000	,	-22281	,	-6.074127	,	0
49,17	,	60689	,	-24007	,	-22286	,	-4.916119	,	0
49,17	,	60705	,	-24009	,	-22274	,	-3.5126603	,	1
49,17	,	60737	,	-24004	,	-22278	,	-2.0846796	,	2
49,17	,	60753	,	-24005	,	-22277	,	-0.8042195	,	3
49,17	,	60785	,	-24004	,	-22281	,	0.2593782	,	4
49,17	,	60801	,	-24014	,	-22286	,	1.0245025	,	5
49,17	,	60817	,	-23999	,	-22270	,	1.4161451	,	5
49,17	,	60849	,	-23979	,	-22283	,	1.6380985	,	5
49,17	,	60865	,	-23978	,	-22244	,	2.2173421	,	5
49,17	,	60881	,	-23964	,	-22258	,	3.5867658	,	5
49,18	,	60913	,	-23973	,	-22249	,	5.7737627	,	5
49,18	,	60929	,	-23969	,	-22254	,	8.403229	,	6
49,18	,	60961	,	-23972	,	-22248	,	10.89585	,	7
49,18	,	60977	,	-23970	,	-22260	,	12.747675	,	8
49,18	,	60993	,	-23976	,	-22250	,	13.653204	,	8
49,18	,	61025	,	-23963	,	-22247	,	13.548484	,	8
49,18	,	61041	,	-23969	,	-22247	,	12.63699	,	8
49,18	,	61057	,	-23955	,	-22249	,	11.280027	,	8
49,18	,	61089	,	-23968	,	-22251	,	9.816637	,	8
49,18	,	61105	,	-23960	,	-22234	,	8.418375	,	7
49,18	,	61137	,	-23964	,	-22245	,	7.11188	,	5
49,18	,	61153	,	-23967	,	-22243	,	5.880138	,	3
49,18	,	61169	,	-23965	,	-22248	,	4.682118	,	1
49,18	,	61201	,	-23981	,	-22253	,	3.4372525	,	0
49,18	,	61217	,	-23979	,	-22246	,	1.9968581	,	0
49,18	,	61233	,	-23979	,	-22247	,	0.27657557	,	0
49,18	,	61265	,	-23976	,	-22236	,	-1.5665934	,	0
49,18	,	61281	,	-23979	,	-22239	,	-3.23814	,	0
49,18	,	61297	,	-23968	,	-22236	,	-4.4669533	,	0
49,18	,	61329	,	-23985	,	-22239	,	-5.097657	,	0
49,18	,	61345	,	-23994	,	-22246	,	-5.2798023	,	0
49,18	,	61377	,	-23994	,	-22252	,	-5.418933	,	0
49,18	,	61392	,	-24011	,	-22252	,	-5.8658276	,	0
49,18	,	61409	,	-24003	,	-22256	,	-6.7882156	,	0
49,18	,	61441	,	-24012	,	-22253	,	-8.1201105	,	0
49,18	,	61457	,	-24006	,	-22259	,	-9.582404	,	0
49,18	,	61473	,	-24005	,	-22258	,	-10.816927	,	0
49,18	,	61504	,	-24015	,	-22258	,	-11.53618	,	0
49,18	,	61521	,	-24000	,	-22261	,	-11.627247	,	0
49,18	,	61553	,	-23999	,	-22265	,	-11.022987	,	0
49,18	,	61569	,	-23988	,	-22250	,	-9.606619	,	0
49,18	,	61585	,	-23980	,	-22254	,	-7.298918	,	1
49,18	,	61617	,	-23998	,	-22253	,	-4.240393	,	3
49,18	,	61633	,	-23999	,	-22261	,	-0.9815688	,	6
49,18	,	61648	,	-23993	,	-22264	,	1.788415	,	9
49,18	,	61681	,	-23988	,	-22258	,	3.7385633	,	11
49,18	,	61697	,	-23986	,	-22264	,	4.9353	,	12
49,18	,	61713	,	-23992	,	-22260	,	5.55242	,	13
49,18	,	61744	,	-23994	,	-22278	,	5.6666083	,	13
49,18	,	61760	,	-23998	,	-22271	,	5.271265	,	13
49,18	,	61792	,	-24000	,	-22277	,	4.3745403	,	12
49,18	,	61809	,	-23999	,	-22269	,	3.057076	,	10
49,18	,	61825	,	-24005	,	-22287	,	1.4727173	,	7
49,18	,	61857	,	-24000	,	-22283	,	-0.19318986	,	4
49,18	,	61873	,	-24012	,	-22288	,	-1.7761483	,	2
49,18	,	61888	,	-24020	,	-22283	,	-3.2543192	,	1
49,19	,	61920	,	-24013	,	-22294	,	-4.712987	,	0
49,19	,	61936	,	-24024	,	-22296	,	-6.131376	,	0
49,19	,	61969	,	-24033	,	-22293	,	-7.4677157	,	0
49,19	,	61985	,	-24036	,	-22302	,	-8.8089485	,	0
49,19	,	62001	,	-24033	,	-22306	,	-10.182142	,	0
49,19	,	62032	,	-24027	,	-22329	,	-11.370332	,	0
49,19	,	62048	,	-24040	,	-22291	,	-12.074499	,	0
49,19	,	62064	,	-24037	,	-22300	,	-12.205076	,	0
49,19	,	62097	,	-24031	,	-22298	,	-11.832317	,	0
49,19	,	62113	,	-24042	,	-22309	,	-11.013687	,	0
49,19	,	62129	,	-24041	,	-22312	,	-9.882452	,	0
49,19	,	62161	,	-24045	,	-22308	,	-8.666939	,	1
49,19	,	62177	,	-24043	,	-22305	,	-7.54515	,	2
49,19	,	62208	,	-24035	,	-22300	,	-6.539983	,	3
49,19	,	62224	,	-24016	,	-22282	,	-5.4262404	,	4
49,19	,	62240	,	-24016	,	-22297	,	-3.8124514	,	5
49,19	,	62272	,	-24013	,	-22300	,	-1.4901228	,	6
49,19	,	62288	,	-24005	,	-22283	,	1.4040558	,	8
49,19	,	62305	,	-24000	,	-22286	,	4.588047	,	10
49,19	,	62336	,	-23996	,	-22288	,	7.789857	,	13
49,19	,	62352	,	-23991	,	-22278	,	10.75733	,	15
49,19	,	62384	,	-23999	,	-22276	,	13.225144	,	16
49,19	,	62400	,	-23997	,	-22279	,	14.879413	,	17
49,19	,	62416	,	-24000	,	-22279	,	15.466077	,	17
49,19	,	62448	,	-23993	,	-22283	,	14.964553	,	16
49,19	,	62464	,	-23991	,	-22276	,	13.623251	,	15
49,19	,	62480	,	-23987	,	-22290	,	11.836998	,	13
49,19	,	62512	,	-23998	,	-22299	,	9.92905	,	11
49,19	,	62528	,	-23994	,	-22279	,	8.016623	,	8
49,19	,	62544	,	-24003	,	-22286	,	6.0848846	,	5
49,19	,	62576	,	-24013	,	-22296	,	4.055377	,	3
49,19	,	62592	,	-24010	,	-22305	,	1.8243968	,	1
49,19	,	62624	,	-24012	,	-22301	,	-0.5691371	,	0
49,19	,	62640	,	-24012	,	-22303	,	-2.8963528	,	0
49,19	,	62656	,	-24013	,	-22315	,	-4.892286	,	0
49,19	,	62688	,	-24019	,	-22306	,	-6.3930044	,	0
49,19	,	62704	,	-24019	,	-22311	,	-7.3871493	,	0
49,19	,	62720	,	-24015	,	-22317	,	-7.9179087	,	0
49,19	,	62752	,	-24023	,	-22326	,	-8.002542	,	0
49,19	,	62768	,	-24032	,	-22305	,	-7.7693043	,	0
49,19	,	62800	,	-24043	,	-22320	,	-7.5494027	,	0
49,19	,	62816	,	-24045	,	-22330	,	-7.704194	,	0
49,19	,	62832	,	-24047	,	-22330	,	-8.372503	,	0
49,19	,	62864	,	-24045	,	-22332	,	-9.391808	,	0
49,19	,	62880	,	-24032	,	-22326	,	-10.364116	,	0
49,20	,	62896	,	-24026	,	-22326	,	-10.754967	,	0
49,20	,	62928	,	-24008	,	-22312	,	-10.0506	,	0
49,20	,	62944	,	-24007	,	-22315	,	-7.9387455	,	0
49,20	,	62960	,	-23998	,	-22312	,	-4.459048	,	2
49,20	,	62992	,	-23988	,	-22325	,	0.029912472	,	5
49,20	,	63008	,	-23989	,	-22298	,	5.0215635	,	9
49,20	,	63040	,	-23971	,	-22306	,	9.989409	,	13
49,20	,	63056	,	-23988	,	-22301	,	14.4492035	,	17
49,20	,	63072	,	-23987	,	-22302	,	17.867151	,	21
49,20	,	63104	,	-23989	,	-22306	,	19.727337	,	24
49,20	,	63120	,	-23994	,	-22311	,	19.811275	,	25
49,20	,	63136	,	-23992	,	-22309	,	18.247845	,	25
49,20	,	63168	,	-23974	,	-22308	,	15.511364	,	23
49,20	,	63184	,	-23983	,	-22296	,	12.353224	,	20
49,20	,	63216	,	-23983	,	-22305	,	9.388094	,	16
49,20	,	63232	,	-23974	,	-22308	,	6.892018	,	12
49,20	,	63248	,	-23984	,	-22297	,	4.9798956	,	8
49,20	,	63280	,	-23974	,	-22295	,	3.658967	,	4
49,20	,	63296	,	-23982	,	-22299	,	2.838085	,	1
49,20	,	63312	,	-23982	,	-22292	,	2.3628502	,	0
49,20	,	63344	,	-23982	,	-22302	,	2.0360308	,	0
49,20	,	63360	,	-23986	,	-22306	,	1.7028373	,	0
49,20	,	63376	,	-23989	,	-22308	,	1.2568927	,	0
49,20	,	63408	,	-23990	,	-22300	,	0.6189438	,	0
49,20	,	63424	,	-23990	,	-22298	,	-0.20838213	,	0
49,20	,	63456	,	-23993	,	-22304	,	-1.1345906	,	0
49,20	,	63472	,	-23988	,	-22290	,	-2.0306885	,	0
49,20	,	63488	,	-24001	,	-22302	,	-2.8032424	,	0
49,20	,	63520	,	-24002	,	-22300	,	-3.4967031	,	0
49,20	,	63536	,	-24005	,	-22296	,	-4.2339883	,	0
49,20	,	63552	,	-24002	,	-22290	,	-5.027446	,	0
49,20	,	63584	,	-24014	,	-22290	,	-5.7951837	,	0
49,20	,	63600	,	-24007	,	-22300	,	-6.4930134	,	0
49,20	,	63632	,	-23988	,	-22294	,	-6.966322	,	0
49,20	,	63648	,	-23975	,	-22294	,	-6.750576	,	0
49,20	,	63664	,	-23972	,	-22284	,	-5.3409004	,	0
49,20	,	63696	,	-23953	,	-22284	,	-2.5587764	,	1
49,20	,	63712	,	-23955	,	-22259	,	1.4358597	,	3
49,20	,	63728	,	-23938	,	-22269	,	6.240919	,	6
49,20	,	63760	,	-23934	,	-22258	,	11.349273	,	10
49,20	,	63776	,	-23920	,	-22258	,	16.31736	,	15
49,20	,	63792	,	-23919	,	-22264	,	20.79305	,	19
49,20	,	63824	,	-23930	,	-22260	,	24.376795	,	23
49,20	,	63840	,	-23931	,	-22264	,	26.534327	,	26
49,20	,	63872	,	-23934	,	-22266	,	26.837364	,	28
49,20	,	63888	,	-23935	,	-22263	,	25.245308	,	27
49,21	,	63904	,	-23924	,	-22259	,	22.131847	,	25
49,21	,	63936	,	-23922	,	-22271	,	18.178747	,	22
49,21	,	63952	,	-23932	,	-22258	,	14.077898	,	18
49,21	,	63968	,	-23933	,	-22259	,	10.212171	,	13
49,21	,	64000	,	-23918	,	-22256	,	6.7752914	,	9
49,21	,	64016	,	-23927	,	-22257	,	4.0154057	,	5
49,21	,	64048	,	-23915	,	-22254	,	2.1273017	,	2
49,21	,	64064	,	-23924	,	-22263	,	1.1217515	,	0
49,21	,	64080	,	-23924	,	-22247	,	0.82537484	,	0
49,21	,	64112	,	-23927	,	-22250	,	0.9215469	,	0
49,21	,	64128	,	-23936	,	-22251	,	1.0535005	,	0
49,21	,	64144	,	-23924	,	-22258	,	0.9573996	,	0
49,21	,	64176	,	-23926	,	-22266	,	0.62093663	,	0
49,21	,	64192	,	-23924	,	-22243	,	0.22294712	,	0
49,21	,	64224	,	-23939	,	-22257	,	-0.1552096	,	0
49,21	,	64240	,	-23944	,	-22259	,	-0.6745368	,	0
49,21	,	64256	,	-23947	,	-22262	,	-1.5748589	,	0
49,21	,	64288	,	-23949	,	-22252	,	-2.9185183	,	0
49,21	,	64304	,	-23951	,	-22248	,	-4.5560617	,	0
49,21	,	64320	,	-23960	,	-22260	,	-6.2786145	,	0
49,21	,	64352	,	-23961	,	-22254	,	-7.9455853	,	0
49,21	,	64368	,	-23956	,	-22253	,	-9.427907	,	0
49,21	,	64384	,	-23956	,	-22249	,	-10.494482	,	0
49,21	,	64416	,	-23966	,	-22270	,	-10.957274	,	0
49,21	,	64432	,	-23955	,	-22237	,	-10.828243	,	0
49,21	,	64463	,	-23925	,	-22233	,	-10.023338	,	0
49,21	,	64479	,	-23923	,	-22240	,	-8.131779	,	0
49,21	,	64496	,	-23917	,	-22228	,	-4.8566885	,	1
49,21	,	64527	,	-23905	,	-22226	,	-0.38400745	,	4
49,21	,	64543	,	-23909	,	-22231	,	4.77462	,	8
49,21	,	64559	,	-23906	,	-22227	,	9.931155	,	13
49,21	,	64592	,	-23913	,	-22226	,	14.324518	,	18
49,21	,	64608	,	-23895	,	-22222	,	17.402172	,	22
49,21	,	64640	,	-23912	,	-22225	,	18.996101	,	25
49,21	,	64656	,	-23917	,	-22254	,	19.090923	,	26
49,21	,	64671	,	-23930	,	-22223	,	17.607769	,	26
49,21	,	64704	,	-23912	,	-22230	,	14.65022	,	25
49,21	,	64719	,	-23918	,	-22224	,	10.763652	,	22
49,21	,	64735	,	-23928	,	-22227	,	6.6418657	,	18
49,21	,	64767	,	-23916	,	-22235	,	2.7527823	,	13
49,21	,	64784	,	-23918	,	-22241	,	-0.55511904	,	8
49,21	,	64800	,	-23916	,	-22232	,	-2.9739742	,	4
49,21	,	64832	,	-23909	,	-22237	,	-4.3462	,	1
49,21	,	64848	,	-23914	,	-22226	,	-4.668058	,	0
49,21	,	64879	,	-23915	,	-22233	,	-4.124343	,	0
49,22	,	64895	,	-23914	,	-22238	,	-3.0638328	,	0
49,22	,	64911	,	-23926	,	-22239	,	-1.8839858	,	1
49,22	,	64943	,	-23938	,	-22246	,	-1.0377703	,	2
49,22	,	64960	,	-23930	,	-22245	,	-0.9138471	,	2
49,22	,	64976	,	-23932	,	-22248	,	-1.540578	,	2
49,22	,	65008	,	-23948	,	-22246	,	-2.6918614	,	2
49,22	,	65023	,	-23943	,	-22249	,	-4.218041	,	2
49,22	,	65055	,	-23949	,	-22254	,	-5.9855804	,	2
49,22	,	65071	,	-23954	,	-22257	,	-7.778886	,	2
49,22	,	65088	,	-23961	,	-22255	,	-9.443007	,	2
49,22	,	65120	,	-23981	,	-22265	,	-11.009021	,	1
49,22	,	65135	,	-23964	,	-22267	,	-12.5870495	,	0
49,22	,	65151	,	-23957	,	-22260	,	-13.985235	,	0
49,22	,	65183	,	-23944	,	-22252	,	-14.621208	,	0
49,22	,	65199	,	-23954	,	-22249	,	-13.996628	,	0
49,22	,	65215	,	-23933	,	-22246	,	-12.032705	,	0
49,22	,	65247	,	-23930	,	-22244	,	-8.879524	,	1
49,22	,	65263	,	-23926	,	-22246	,	-4.765694	,	4
49,22	,	65295	,	-23933	,	-22244	,	-0.15600777	,	8
49,22	,	65312	,	-23932	,	-22245	,	4.2527504	,	12
49,22	,	65327	,	-23921	,	-22238	,	7.86495	,	16
49,22	,	65359	,	-23940	,	-22242	,	10.373435	,	19
49,22	,	65375	,	-23935	,	-22234	,	11.590429	,	21
49,22	,	65391	,	-23939	,	-22241	,	11.438277	,	22
49,22	,	65423	,	-23940	,	-22247	,	10.089518	,	22
49,22	,	65439	,	-23935	,	-22239	,	7.91133	,	21
49,22	,	65471	,	-23939	,	-22253	,	5.3601007	,	18
49,22	,	65487	,	-23935	,	-22245	,	2.8663235	,	14
49,22	,	65503	,	-23960	,	-22244	,	0.6343088	,	10
49,22	,	65535	,	-23938	,	-22248	,	-1.3829169	,	6
49,22	,	65551	,	-23944	,	-22244	,	-3.1409016	,	3
49,22	,	65567	,	-23951	,	-22246	,	-4.44724	,	1
49,22	,	65599	,	-23955	,	-22265	,	-5.299875	,	0
49,22	,	65615	,	-23965	,	-22249	,	-5.9145007	,	0
49,22	,	65631	,	-23959	,	-22254	,	-6.50206	,	0
49,22	,	65663	,	-23968	,	-22257	,	-7.1298866	,	0
49,22	,	65679	,	-23965	,	-22255	,	-7.755501	,	0
49,22	,	65711	,	-23977	,	-22267	,	-8.345133	,	0
49,22	,	65727	,	-23980	,	-22254	,	-8.938747	,	0
49,22	,	65743	,	-23990	,	-22257	,	-9.641385	,	0
49,22	,	65775	,	-23973	,	-22263	,	-10.45549	,	0
49,22	,	65791	,	-23992	,	-22260	,	-11.179186	,	0
49,22	,	65807	,	-23994	,	-22266	,	-11.663923	,	0
49,22	,	65839	,	-24000	,	-22288	,	-11.983277	,	0
49,22	,	65855	,	-24001	,	-22271	,	-12.247068	,	0
49,23	,	65887	,	-24006	,	-22266	,	-12.482815	,	0
49,23	,	65904	,	-23997	,	-22273	,	-12.618097	,	0
49,23	,	65919	,	-23980	,	-22260	,	-12.369165	,	0
49,23	,	65951	,	-23988	,	-22259	,	-11.334334	,	0
49,23	,	65967	,	-23980	,	-22255	,	-9.367538	,	1
49,23	,	65983	,	-23971	,	-22252	,	-6.623253	,	2
49,23	,	66015	,	-23974	,	-22266	,	-3.333106	,	4
49,23	,	66031	,	-23968	,	-22256	,	0.19044161	,	7
49,23	,	66047	,	-23952	,	-22257	,	3.6448107	,	10
49,23	,	66079	,	-23961	,	-22262	,	6.883103	,	13
49,23	,	66095	,	-23964	,	-22236	,	9.695108	,	16
49,23	,	66127	,	-23965	,	-22253	,	11.690545	,	18
49,23	,	66143	,	-23981	,	-22259	,	12.494763	,	19
49,23	,	66159	,	-23975	,	-22255	,	11.897311	,	18
49,23	,	66191	,	-23974	,	-22260	,	10.017717	,	17
49,23	,	66207	,	-23974	,	-22264	,	7.3331265	,	15
49,23	,	66223	,	-23974	,	-22258	,	4.409758	,	12
49,23	,	66255	,	-23979	,	-22261	,	1.6715903	,	9
49,23	,	66271	,	-23981	,	-22262	,	-0.6693504	,	6
49,23	,	66303	,	-23976	,	-22267	,	-2.5390968	,	3
49,23	,	66319	,	-23980	,	-22284	,	-3.8789687	,	1
49,23	,	66335	,	-23988	,	-22256	,	-4.7015553	,	0
49,23	,	66367	,	-23984	,	-22273	,	-5.155308	,	0
49,23	,	66383	,	-23988	,	-22269	,	-5.3877673	,	0
49,23	,	66399	,	-23995	,	-22272	,	-5.4994698	,	0
49,23	,	66431	,	-23997	,	-22271	,	-5.6262126	,	0
49,23	,	66447	,	-23996	,	-22272	,	-5.8621635	,	0
49,23	,	66463	,	-24008	,	-22283	,	-6.213775	,	0
49,23	,	66495	,	-24004	,	-22275	,	-6.6971664	,	0
49,23	,	66511	,	-24011	,	-22282	,	-7.31117	,	0
49,23	,	66543	,	-24023	,	-22283	,	-8.042371	,	0
49,23	,	66559	,	-24011	,	-22290	,	-8.891881	,	0
49,23	,	66575	,	-24018	,	-22264	,	-9.716421	,	0
49,23	,	66607	,	-24036	,	-22284	,	-10.365662	,	0
49,23	,	66623	,	-24041	,	-22293	,	-10.989922	,	0
49,23	,	66639	,	-24036	,	-22285	,	-11.802275	,	0
49,23	,	66671	,	-24044	,	-22288	,	-12.738339	,	0
49,23	,	66687	,	-24037	,	-22294	,	-13.552301	,	0
49,23	,	66718	,	-24027	,	-22293	,	-13.919217	,	0
49,23	,	66735	,	-24022	,	-22277	,	-13.448532	,	0
49,23	,	66751	,	-24006	,	-22279	,	-11.820271	,	0
49,23	,	66783	,	-24002	,	-22281	,	-8.892658	,	1
49,23	,	66799	,	-24000	,	-22290	,	-4.806493	,	3
49,23	,	66815	,	-24001	,	-22275	,	-0.058257103	,	7
49,23	,	66847	,	-23989	,	-22280	,	4.705608	,	11
49,23	,	66863	,	-23984	,	-22278	,	9.017429	,	15
49,23	,	66879	,	-23983	,	-22267	,	12.637405	,	19
49,24	,	66911	,	-23976	,	-22270	,	15.4121475	,	22
49,24	,	66927	,	-24003	,	-22262	,	17.134495	,	24
49,24	,	66959	,	-23998	,	-22265	,	17.455227	,	25
49,24	,	66975	,	-23997	,	-22267	,	16.179688	,	24
49,24	,	66991	,	-23984	,	-22267	,	13.647539	,	22
49,24	,	67023	,	-23991	,	-22269	,	10.555007	,	18
49,24	,	67039	,	-23992	,	-22274	,	7.489631	,	14
49,24	,	67055	,	-23989	,	-22272	,	4.762347	,	10
49,24	,	67087	,	-23985	,	-22265	,	2.556479	,	6
49,24	,	67103	,	-23994	,	-22266	,	0.97604084	,	3
49,24	,	67135	,	-23998	,	-22269	,	-0.07350302	,	1
49,24	,	67150	,	-24005	,	-22271	,	-0.8734081	,	0
49,24	,	67166	,	-24000	,	-22273	,	-1.6843748	,	0
49,24	,	67199	,	-24010	,	-22271	,	-2.5960793	,	0
49,24	,	67215	,	-24017	,	-22266	,	-3.636119	,	0
49,24	,	67231	,	-24007	,	-22277	,	-4.81597	,	0
49,24	,	67262	,	-24016	,	-22283	,	-5.9952784	,	0
49,24	,	67279	,	-24014	,	-22281	,	-6.9681993	,	0
49,24	,	67310	,	-24022	,	-22278	,	-7.6478567	,	0
49,24	,	67326	,	-24033	,	-22273	,	-8.121183	,	0
49,24	,	67343	,	-24029	,	-22290	,	-8.581087	,	0
49,24	,	67375	,	-24038	,	-22288	,	-9.136649	,	0
49,24	,	67391	,	-24037	,	-22295	,	-9.762501	,	0
49,24	,	67407	,	-24040	,	-22298	,	-10.367114	,	0
49,24	,	67439	,	-24040	,	-22295	,	-10.817078	,	0
49,24	,	67454	,	-24051	,	-22292	,	-11.0321865	,	0
49,24	,	67470	,	-24036	,	-22292	,	-11.008427	,	0
49,24	,	67502	,	-24052	,	-22306	,	-10.721565	,	0
49,24	,	67518	,	-24058	,	-22289	,	-10.242766	,	0
49,24	,	67551	,	-24063	,	-22300	,	-9.829136	,	0
49,24	,	67567	,	-24047	,	-22300	,	-9.614451	,	0
49,24	,	67582	,	-24039	,	-22293	,	-9.32847	,	0
49,24	,	67615	,	-24025	,	-22296	,	-8.443753	,	0
49,24	,	67631	,	-24030	,	-22287	,	-6.5733113	,	0
49,24	,	67646	,	-24019	,	-22289	,	-3.7317219	,	1
49,24	,	67678	,	-24012	,	-22285	,	-0.20839214	,	3
49,24	,	67695	,	-24012	,	-22282	,	3.6467113	,	6
49,24	,	67727	,	-24002	,	-22288	,	7.459119	,	9
49,24	,	67743	,	-24011	,	-22289	,	10.849089	,	12
49,24	,	67758	,	-24011	,	-22266	,	13.423793	,	15
49,24	,	67790	,	-24011	,	-22290	,	14.843538	,	17
49,24	,	67806	,	-24021	,	-22277	,	14.9548235	,	18
49,24	,	67822	,	-24010	,	-22271	,	13.8176155	,	18
49,24	,	67855	,	-24010	,	-22276	,	11.756693	,	17
49,24	,	67871	,	-24018	,	-22287	,	9.239817	,	15
49,24	,	67887	,	-24018	,	-22277	,	6.5928445	,	12
49,25	,	67919	,	-24004	,	-22278	,	4.0642047	,	9
49,25	,	67934	,	-24008	,	-22283	,	1.9970016	,	6
49,25	,	67966	,	-24013	,	-22274	,	0.61871314	,	3
49,25	,	67982	,	-24002	,	-22300	,	-0.1018002	,	1
49,25	,	67998	,	-24011	,	-22265	,	-0.27567244	,	0
49,25	,	68030	,	-24019	,	-22274	,	-0.10444528	,	0
49,25	,	68046	,	-24020	,	-22273	,	0.05380572	,	0
49,25	,	68062	,	-24013	,	-22274	,	-0.058181472	,	0
49,25	,	68094	,	-24020	,	-22274	,	-0.4273302	,	0
49,25	,	68110	,	-24014	,	-22272	,	-0.9201485	,	0
49,25	,	68142	,	-24026	,	-22271	,	-1.4475096	,	0
49,25	,	68158	,	-24028	,	-22269	,	-2.036911	,	0
49,25	,	68174	,	-24031	,	-22276	,	-2.7818532	,	0
49,25	,	68206	,	-24038	,	-22281	,	-3.7274861	,	0
49,25	,	68222	,	-24038	,	-22300	,	-4.8560553	,	0
49,25	,	68238	,	-24037	,	-22274	,	-6.064194	,	0
49,25	,	68270	,	-24043	,	-22290	,	-7.1720486	,	0
49,25	,	68286	,	-24040	,	-22280	,	-8.037664	,	0
49,25	,	68302	,	-24042	,	-22281	,	-8.571825	,	0
49,25	,	68334	,	-24049	,	-22275	,	-8.739179	,	0
49,25	,	68350	,	-24059	,	-22281	,	-8.67351	,	0
49,25	,	68382	,	-24049	,	-22290	,	-8.595857	,	0
49,25	,	68398	,	-24041	,	-22284	,	-8.490841	,	0
49,25	,	68414	,	-24022	,	-22274	,	-7.983282	,	0
49,25	,	68446	,	-24018	,	-22276	,	-6.5742087	,	0
49,25	,	68463	,	-24016	,	-22292	,	-4.0265512	,	1
49,25	,	68478	,	-24005	,	-22255	,	-0.52097416	,	3
49,25	,	68510	,	-24009	,	-22263	,	3.5134888	,	6
49,25	,	68526	,	-23996	,	-22258	,	7.5846057	,	10
49,25	,	68558	,	-23990	,	-22262	,	11.310258	,	14
49,25	,	68574	,	-24010	,	-22255	,	14.388076	,	17
49,25	,	68590	,	-24007	,	-22262	,	16.37644	,	20
49,25	,	68622	,	-24007	,	-22256	,	16.898506	,	21
49,25	,	68638	,	-24015	,	-22269	,	15.935284	,	21
49,25	,	68654	,	-24001	,	-22262	,	13.76853	,	20
49,25	,	68686	,	-24007	,	-22268	,	10.905407	,	18
49,25	,	68702	,	-24012	,	-22275	,	7.869703	,	15
49,25	,	68718	,	-23998	,	-22254	,	5.0160627	,	11
49,25	,	68750	,	-24009	,	-22267	,	2.628399	,	7
49,25	,	68766	,	-23995	,	-22258	,	0.91823006	,	4
49,25	,	68798	,	-23994	,	-22251	,	-5.8841705E-4	,	1
49,25	,	68814	,	-23995	,	-22256	,	-0.10192406	,	0
49,25	,	68830	,	-24005	,	-22254	,	0.41160133	,	0
49,25	,	68862	,	-23999	,	-22260	,	1.133788	,	0
49,25	,	68878	,	-23991	,	-22265	,	1.7761687	,	0
49,26	,	68894	,	-23998	,	-22262	,	2.3121245	,	0
49,26	,	68926	,	-24006	,	-22268	,	2.7089014	,	0
49,26	,	68942	,	-24002	,	-22267	,	2.790063	,	0
49,26	,	68974	,	-24004	,	-22261	,	2.459674	,	0
49,26	,	68990	,	-24020	,	-22261	,	1.720624	,	0
49,26	,	69006	,	-24008	,	-22264	,	0.552891	,	0
49,26	,	69038	,	-24019	,	-22260	,	-0.9507786	,	0
49,26	,	69054	,	-24024	,	-22262	,	-2.6107764	,	0
49,26	,	69070	,	-24028	,	-22270	,	-4.3512416	,	0
49,26	,	69102	,	-24019	,	-22274	,	-6.0750103	,	0
49,26	,	69118	,	-24031	,	-22269	,	-7.5553856	,	0
49,26	,	69134	,	-24022	,	-22264	,	-8.60191	,	0
49,26	,	69166	,	-24032	,	-22275	,	-9.144604	,	0
49,26	,	69182	,	-24035	,	-22277	,	-9.235564	,	0
49,26	,	69214	,	-24044	,	-22279	,	-9.077034	,	0
49,26	,	69230	,	-24043	,	-22279	,	-8.919707	,	0
49,26	,	69246	,	-24020	,	-22266	,	-8.781044	,	0
49,26	,	69278	,	-24014	,	-22266	,	-8.261328	,	0
49,26	,	69294	,	-24018	,	-22266	,	-6.894886	,	0
49,26	,	69310	,	-23991	,	-22257	,	-4.533049	,	1
49,26	,	69342	,	-23986	,	-22261	,	-1.1752145	,	3
49,26	,	69358	,	-23979	,	-22252	,	3.095522	,	6
49,26	,	69390	,	-23975	,	-22244	,	7.923653	,	10
49,26	,	69406	,	-23979	,	-22256	,	12.710484	,	14
49,26	,	69422	,	-23969	,	-22237	,	16.815485	,	18
49,26	,	69454	,	-23967	,	-22243	,	19.809977	,	22
49,26	,	69470	,	-23967	,	-22246	,	21.550426	,	24
49,26	,	69486	,	-23980	,	-22245	,	21.976662	,	25
49,26	,	69518	,	-23974	,	-22237	,	21.019028	,	24
49,26	,	69534	,	-23979	,	-22239	,	18.763565	,	22
49,26	,	69550	,	-23963	,	-22250	,	15.603545	,	19
49,26	,	69582	,	-23968	,	-22246	,	12.163421	,	15
49,26	,	69598	,	-23970	,	-22241	,	8.983322	,	11
49,26	,	69630	,	-23958	,	-22239	,	6.348181	,	7
49,26	,	69646	,	-23970	,	-22246	,	4.3925633	,	3
49,26	,	69662	,	-23966	,	-22224	,	3.0789518	,	1
49,26	,	69694	,	-23950	,	-22237	,	2.2963042	,	0
49,26	,	69710	,	-23962	,	-22231	,	2.0590808	,	0
49,26	,	69726	,	-23962	,	-22235	,	2.289682	,	0
49,26	,	69758	,	-23978	,	-22235	,	2.6204028	,	0
49,26	,	69774	,	-23977	,	-22228	,	2.5763388	,	0
49,26	,	69806	,	-23977	,	-22234	,	1.875702	,	0
49,26	,	69822	,	-23965	,	-22233	,	0.6410706	,	0
49,26	,	69838	,	-23979	,	-22234	,	-0.73671055	,	0
49,26	,	69870	,	-23983	,	-22236	,	-2.0154576	,	0
49,26	,	69886	,	-23978	,	-22254	,	-3.1885092	,	0
49,27	,	69918	,	-23985	,	-22232	,	-4.232716	,	0
49,27	,	69933	,	-23994	,	-22237	,	-5.130576	,	0
49,27	,	69949	,	-23996	,	-22248	,	-5.999245	,	0
49,27	,	69982	,	-23998	,	-22250	,	-6.9422383	,	0
49,27	,	69998	,	-24013	,	-22242	,	-7.978505	,	0
49,27	,	70014	,	-24004	,	-22243	,	-9.112533	,	0
49,27	,	70046	,	-24002	,	-22243	,	-10.199712	,	0
49,27	,	70062	,	-24007	,	-22252	,	-10.930252	,	0
49,27	,	70077	,	-24005	,	-22250	,	-11.099583	,	0
49,27	,	70110	,	-23987	,	-22238	,	-10.601	,	0
49,27	,	70126	,	-23979	,	-22237	,	-9.214039	,	0
49,27	,	70158	,	-23972	,	-22218	,	-6.723945	,	1
49,27	,	70174	,	-23955	,	-22216	,	-3.1271577	,	3
49,27	,	70189	,	-23951	,	-22216	,	1.399086	,	6
49,27	,	70221	,	-23947	,	-22216	,	6.494199	,	10
49,27	,	70238	,	-23938	,	-22218	,	11.626894	,	15
49,27	,	70254	,	-23942	,	-22215	,	16.250654	,	20
49,27	,	70286	,	-23941	,	-22210	,	19.868052	,	24
49,27	,	70302	,	-23935	,	-22211	,	22.113827	,	27
49,27	,	70333	,	-23937	,	-22217	,	22.897158	,	29
49,27	,	70349	,	-23935	,	-22239	,	22.351976	,	28
49,27	,	70365	,	-23938	,	-22204	,	20.700914	,	26
49,27	,	70397	,	-23919	,	-22211	,	18.286854	,	23
49,27	,	70413	,	-23933	,	-22208	,	15.589494	,	19
49,27	,	70430	,	-23928	,	-22219	,	12.967928	,	14
49,27	,	70462	,	-23928	,	-22219	,	10.543381	,	9
49,27	,	70478	,	-23935	,	-22221	,	8.34255	,	5
49,27	,	70494	,	-23928	,	-22216	,	6.3501577	,	2
49,27	,	70525	,	-23947	,	-22213	,	4.4963994	,	0
49,27	,	70541	,	-23929	,	-22215	,	2.6944475	,	0
49,27	,	70573	,	-23931	,	-22217	,	1.0200794	,	0
49,27	,	70589	,	-23946	,	-22227	,	-0.35638332	,	0
49,27	,	70605	,	-23936	,	-22206	,	-1.4602556	,	0
49,27	,	70638	,	-23925	,	-22220	,	-2.3055663	,	0
49,27	,	70654	,	-23944	,	-22215	,	-2.7429562	,	0
49,27	,	70670	,	-23937	,	-22217	,	-2.7919667	,	0
49,27	,	70702	,	-23945	,	-22216	,	-2.672773	,	0
49,27	,	70717	,	-23960	,	-22217	,	-2.6531224	,	0
49,27	,	70749	,	-23951	,	-22229	,	-3.0072098	,	0
49,27	,	70765	,	-23969	,	-22224	,	-3.8549378	,	0
49,27	,	70781	,	-23952	,	-22226	,	-5.0975895	,	0
49,27	,	70813	,	-23967	,	-22237	,	-6.4799495	,	0
49,27	,	70829	,	-23962	,	-22245	,	-7.723995	,	0
49,27	,	70845	,	-23963	,	-22226	,	-8.643079	,	0
49,27	,	70877	,	-23966	,	-22240	,	-9.121526	,	0
49,28	,	70893	,	-23969	,	-22230	,	-9.156588	,	0
49,28	,	70909	,	-23955	,	-22228	,	-8.796444	,	0
49,28	,	70941	,	-23947	,	-22213	,	-7.9291577	,	0
49,28	,	70957	,	-23936	,	-22213	,	-6.3023515	,	0
49,28	,	70989	,	-23917	,	-22202	,	-3.6905236	,	1
49,28	,	71005	,	-23921	,	-22206	,	-0.031521082	,	3
49,28	,	71022	,	-23904	,	-22201	,	4.443319	,	6
49,28	,	71053	,	-23906	,	-22199	,	9.275303	,	10
49,28	,	71069	,	-23896	,	-22194	,	13.953651	,	14
49,28	,	71085	,	-23914	,	-22196	,	17.926575	,	18
49,28	,	71117	,	-23899	,	-22197	,	20.640213	,	21
49,28	,	71133	,	-23905	,	-22203	,	21.7872	,	23
49,28	,	71165	,	-23911	,	-22195	,	21.375526	,	24
49,28	,	71181	,	-23916	,	-22196	,	19.524643	,	23
49,28	,	71197	,	-23896	,	-22184	,	16.529964	,	21
49,28	,	71229	,	-23906	,	-22190	,	12.99685	,	18
49,28	,	71245	,	-23903	,	-22193	,	9.535372	,	14
49,28	,	71261	,	-23898	,	-22192	,	6.5125546	,	10
49,28	,	71293	,	-23897	,	-22200	,	4.164196	,	6
49,28	,	71309	,	-23903	,	-22175	,	2.5921206	,	3
49,28	,	71325	,	-23900	,	-22190	,	1.678266	,	1
49,28	,	71357	,	-23896	,	-22182	,	1.2263587	,	0
49,28	,	71373	,	-23899	,	-22188	,	1.1066133	,	0
49,28	,	71405	,	-23904	,	-22193	,	1.1790462	,	0
49,28	,	71421	,	-23900	,	-22192	,	1.25042	,	0
49,28	,	71437	,	-23902	,	-22189	,	1.1989202	,	0
49,28	,	71469	,	-23905	,	-22198	,	1.0057001	,	0
49,28	,	71485	,	-23903	,	-22192	,	0.6855139	,	0
49,28	,	71501	,	-23908	,	-22197	,	0.26581746	,	0
49,28	,	71533	,	-23916	,	-22213	,	-0.27365136	,	0
49,28	,	71549	,	-23916	,	-22181	,	-1.0287985	,	0
49,28	,	71581	,	-23925	,	-22198	,	-2.0726755	,	0
49,28	,	71597	,	-23921	,	-22206	,	-3.3810964	,	0
49,28	,	71613	,	-23932	,	-22207	,	-4.845544	,	0
49,28	,	71645	,	-23931	,	-22204	,	-6.345734	,	0
49,28	,	71661	,	-23928	,	-22210	,	-7.73759	,	0
49,28	,	71677	,	-23913	,	-22207	,	-8.719873	,	0
49,28	,	71709	,	-23917	,	-22194	,	-8.897291	,	0
49,28	,	71725	,	-23900	,	-22188	,	-8.017323	,	0
49,28	,	71741	,	-23877	,	-22186	,	-5.917691	,	0
49,28	,	71773	,	-23874	,	-22194	,	-2.4268727	,	2
49,28	,	71789	,	-23876	,	-22170	,	2.3048148	,	5
49,28	,	71821	,	-23861	,	-22169	,	7.6566687	,	9
49,28	,	71837	,	-23862	,	-22170	,	12.912689	,	14
49,28	,	71853	,	-23860	,	-22173	,	17.483112	,	19
49,28	,	71885	,	-23860	,	-22170	,	20.879719	,	23
49,29	,	71901	,	-23855	,	-22174	,	22.808329	,	26
49,29	,	71917	,	-23856	,	-22182	,	23.250624	,	27
49,29	,	71949	,	-23862	,	-22168	,	22.353352	,	27
49,29	,	71965	,	-23857	,	-22171	,	20.31792	,	25
49,29	,	71997	,	-23856	,	-22175	,	17.454193	,	22
49,29	,	72013	,	-23853	,	-22183	,	14.193756	,	18
49,29	,	72029	,	-23854	,	-22154	,	10.958005	,	13
49,29	,	72061	,	-23858	,	-22172	,	8.029292	,	8
49,29	,	72077	,	-23858	,	-22167	,	5.5148067	,	4
49,29	,	72093	,	-23843	,	-22163	,	3.4908514	,	1
49,29	,	72125	,	-23853	,	-22170	,	2.1097755	,	0
49,29	,	72141	,	-23854	,	-22165	,	1.3890584	,	0
49,29	,	72157	,	-23859	,	-22164	,	1.0835758	,	0
49,29	,	72189	,	-23855	,	-22170	,	0.90061986	,	0
49,29	,	72205	,	-23863	,	-22167	,	0.6590882	,	0
49,29	,	72237	,	-23874	,	-22164	,	0.19340402	,	0
49,29	,	72253	,	-23862	,	-22176	,	-0.6438837	,	0
49,29	,	72269	,	-23875	,	-22146	,	-1.8046465	,	0
49,29	,	72301	,	-23883	,	-22165	,	-3.1643467	,	0
49,29	,	72317	,	-23888	,	-22176	,	-4.729146	,	0
49,29	,	72333	,	-23890	,	-22166	,	-6.5059085	,	0
49,29	,	72365	,	-23888	,	-22171	,	-8.339636	,	0
49,29	,	72381	,	-23898	,	-22177	,	-9.987495	,	0
49,29	,	72413	,	-23897	,	-22173	,	-11.292043	,	0
49,29	,	72429	,	-23899	,	-22174	,	-12.186839	,	0
49,29	,	72445	,	-23905	,	-22188	,	-12.638106	,	0
49,29	,	72477	,	-23900	,	-22178	,	-12.663701	,	0
49,29	,	72493	,	-23909	,	-22204	,	-12.309819	,	0
49,29	,	72509	,	-23901	,	-22175	,	-11.632022	,	0
49,29	,	72541	,	-23867	,	-22179	,	-10.495957	,	0
49,29	,	72556	,	-23859	,	-22167	,	-8.383259	,	1
49,29	,	72573	,	-23851	,	-22163	,	-4.816148	,	3
49,29	,	72605	,	-23840	,	-22155	,	0.15658522	,	6
49,29	,	72621	,	-23819	,	-22152	,	6.1273336	,	10
49,29	,	72653	,	-23833	,	-22153	,	12.549984	,	15
49,29	,	72669	,	-23820	,	-22152	,	18.662497	,	21
49,29	,	72685	,	-23821	,	-22142	,	23.674322	,	27
49,29	,	72717	,	-23828	,	-22157	,	27.035936	,	32
49,29	,	72732	,	-23819	,	-22154	,	28.450428	,	35
49,29	,	72748	,	-23818	,	-22151	,	27.96587	,	35
49,29	,	72781	,	-23820	,	-22140	,	25.9553	,	33
49,29	,	72797	,	-23813	,	-22137	,	22.897596	,	30
49,29	,	72829	,	-23821	,	-22139	,	19.273811	,	26
49,29	,	72845	,	-23811	,	-22141	,	15.510927	,	21
49,29	,	72861	,	-23812	,	-22140	,	11.972254	,	15
49,30	,	72893	,	-23808	,	-22143	,	8.955101	,	9
49,30	,	72908	,	-23812	,	-22142	,	6.605173	,	4
49,30	,	72924	,	-23811	,	-22135	,	4.8881655	,	1
49,30	,	72957	,	-23805	,	-22144	,	3.7013083	,	0
49,30	,	72973	,	-23811	,	-22128	,	2.9694414	,	0
49,30	,	73004	,	-23818	,	-22144	,	2.54579	,	0
49,30	,	73021	,	-23822	,	-22140	,	2.1363769	,	0
49,30	,	73037	,	-23825	,	-22140	,	1.4542253	,	0
49,30	,	73069	,	-23820	,	-22136	,	0.4162135	,	0
49,30	,	73085	,	-23829	,	-22153	,	-0.8514141	,	0
49,30	,	73100	,	-23830	,	-22148	,	-2.2046905	,	0
49,30	,	73132	,	-23831	,	-22149	,	-3.5614371	,	0
49,30	,	73148	,	-23843	,	-22147	,	-4.864988	,	0
49,30	,	73165	,	-23835	,	-22151	,	-6.091257	,	0
49,30	,	73197	,	-23838	,	-22164	,	-7.1533937	,	0
49,30	,	73213	,	-23853	,	-22151	,	-7.953039	,	0
49,30	,	73245	,	-23847	,	-22165	,	-8.560347	,	0
49,30	,	73261	,	-23859	,	-22158	,	-9.105952	,	0
49,30	,	73276	,	-23847	,	-22165	,	-9.607917	,	0
49,30	,	73308	,	-23859	,	-22160	,	-9.963388	,	0
49,30	,	73325	,	-23879	,	-22170	,	-10.180892	,	0
49,30	,	73340	,	-23868	,	-22167	,	-10.503817	,	0
49,30	,	73372	,	-23876	,	-22166	,	-11.053574	,	0
49,30	,	73389	,	-23870	,	-22166	,	-11.653852	,	0
49,30	,	73420	,	-23836	,	-22157	,	-11.859472	,	0
49,30	,	73436	,	-23823	,	-22160	,	-10.896159	,	0
49,30	,	73452	,	-23820	,	-22132	,	-8.100268	,	0
49,30	,	73484	,	-23811	,	-22131	,	-3.4866905	,	2
49,30	,	73500	,	-23804	,	-22140	,	2.3537378	,	6
49,30	,	73516	,	-23799	,	-22135	,	8.639012	,	11
49,30	,	73549	,	-23792	,	-22132	,	14.617217	,	17
49,30	,	73565	,	-23791	,	-22133	,	19.683092	,	22
49,30	,	73580	,	-23792	,	-22123	,	23.396095	,	27
49,30	,	73612	,	-23784	,	-22133	,	25.500212	,	30
49,30	,	73628	,	-23799	,	-22133	,	25.941713	,	32
49,30	,	73660	,	-23808	,	-22129	,	24.710865	,	32
49,30	,	73676	,	-23784	,	-22136	,	21.923439	,	30
49,30	,	73692	,	-23798	,	-22115	,	18.10947	,	26
49,30	,	73724	,	-23789	,	-22132	,	13.975785	,	21
49,30	,	73740	,	-23792	,	-22126	,	10.040186	,	15
49,30	,	73756	,	-23790	,	-22124	,	6.629917	,	10
49,30	,	73788	,	-23775	,	-22129	,	3.995853	,	5
49,30	,	73804	,	-23787	,	-22124	,	2.3389006	,	2
49,30	,	73836	,	-23790	,	-22128	,	1.5971336	,	0
49,30	,	73852	,	-23801	,	-22128	,	1.3475232	,	0
49,30	,	73868	,	-23795	,	-22139	,	1.0932634	,	0
49,31	,	73900	,	-23798	,	-22123	,	0.5786998	,	0
49,31	,	73916	,	-23801	,	-22148	,	-0.19263035	,	0
49,31	,	73932	,	-23790	,	-22128	,	-1.0807905	,	0
49,31	,	73964	,	-23807	,	-22148	,	-1.9041455	,	0
49,31	,	73980	,	-23817	,	-22149	,	-2.6774263	,	0
49,31	,	73996	,	-23820	,	-22145	,	-3.6631694	,	0
49,31	,	74028	,	-23817	,	-22150	,	-5.0137773	,	0
49,31	,	74044	,	-23819	,	-22147	,	-6.5645475	,	0
49,31	,	74076	,	-23821	,	-22153	,	-8.005052	,	0
49,31	,	74092	,	-23823	,	-22157	,	-9.102345	,	0
49,31	,	74109	,	-23838	,	-22151	,	-9.82509	,	0
49,31	,	74140	,	-23828	,	-22161	,	-10.307742	,	0
49,31	,	74156	,	-23832	,	-22166	,	-10.604889	,	0
49,31	,	74172	,	-23832	,	-22152	,	-10.616829	,	0
49,31	,	74204	,	-23840	,	-22171	,	-10.304615	,	0
49,31	,	74220	,	-23846	,	-22170	,	-9.810985	,	0
49,31	,	74252	,	-23850	,	-22170	,	-9.373331	,	0
49,31	,	74268	,	-23838	,	-22149	,	-9.099569	,	0
49,31	,	74284	,	-23821	,	-22147	,	-8.739407	,	0
49,31	,	74316	,	-23820	,	-22155	,	-7.7807846	,	0
49,31	,	74332	,	-23808	,	-22145	,	-5.8509774	,	0
49,31	,	74348	,	-23789	,	-22145	,	-2.8416781	,	1
49,31	,	74380	,	-23794	,	-22140	,	1.1837559	,	4
49,31	,	74396	,	-23793	,	-22144	,	5.84058	,	8
49,31	,	74412	,	-23791	,	-22135	,	10.424682	,	12
49,31	,	74444	,	-23790	,	-22138	,	14.258735	,	16
49,31	,	74460	,	-23793	,	-22132	,	16.89071	,	19
49,31	,	74492	,	-23788	,	-22149	,	18.106422	,	21
49,31	,	74508	,	-23797	,	-22145	,	17.923582	,	22
49,31	,	74524	,	-23783	,	-22139	,	16.56205	,	22
49,31	,	74556	,	-23793	,	-22140	,	14.402925	,	21
49,31	,	74572	,	-23777	,	-22141	,	11.893549	,	18
49,31	,	74588	,	-23778	,	-22138	,	9.487984	,	14
49,31	,	74620	,	-23785	,	-22143	,	7.523271	,	10
49,31	,	74636	,	-23782	,	-22125	,	6.038667	,	6
49,31	,	74668	,	-23775	,	-22141	,	4.9271545	,	3
49,31	,	74684	,	-23778	,	-22146	,	4.1608233	,	1
49,31	,	74700	,	-23799	,	-22150	,	3.6166215	,	0
49,31	,	74732	,	-23794	,	-22142	,	2.9225757	,	0
49,31	,	74748	,	-23798	,	-22151	,	1.7717673	,	0
49,31	,	74764	,	-23799	,	-22148	,	0.18400514	,	0
49,31	,	74796	,	-23796	,	-22149	,	-1.6060599	,	0
49,31	,	74812	,	-23812	,	-22144	,	-3.3607635	,	0
49,31	,	74844	,	-23811	,	-22151	,	-5.0131	,	0
49,31	,	74860	,	-23815	,	-22155	,	-6.5920486	,	0
49,31	,	74876	,	-23810	,	-22150	,	-8.012205	,	0
49,32	,	74908	,	-23825	,	-22163	,	-9.132223	,	0
49,32	,	74924	,	-23821	,	-22158	,	-9.940033	,	0
49,32	,	74940	,	-23837	,	-22169	,	-10.551046	,	0
49,32	,	74972	,	-23828	,	-22168	,	-11.083956	,	0
49,32	,	74988	,	-23833	,	-22164	,	-11.5307665	,	0
49,32	,	75004	,	-23844	,	-22178	,	-11.815474	,	0
49,32	,	75036	,	-23843	,	-22171	,	-11.977375	,	0
49,32	,	75052	,	-23847	,	-22167	,	-12.093853	,	0
49,32	,	75084	,	-23847	,	-22174	,	-12.143103	,	0
49,32	,	75100	,	-23859	,	-22187	,	-12.096655	,	0
49,32	,	75116	,	-23847	,	-22158	,	-11.964386	,	0
49,32	,	75148	,	-23807	,	-22168	,	-11.455414	,	0
49,32	,	75164	,	-23811	,	-22165	,	-9.839941	,	0
49,32	,	75180	,	-23809	,	-22154	,	-6.6504836	,	1
49,32	,	75212	,	-23810	,	-22157	,	-2.2148495	,	4
49,32	,	75228	,	-23802	,	-22149	,	2.705432	,	8
49,32	,	75260	,	-23792	,	-22152	,	7.4508314	,	12
49,32	,	75276	,	-23780	,	-22151	,	11.69238	,	16
49,32	,	75292	,	-23785	,	-22149	,	15.314936	,	20
49,32	,	75324	,	-23787	,	-22143	,	18.119267	,	23
49,32	,	75340	,	-23783	,	-22171	,	19.805351	,	25
49,32	,	75356	,	-23786	,	-22137	,	20.216923	,	26
49,32	,	75387	,	-23789	,	-22148	,	19.394432	,	25
49,32	,	75404	,	-23786	,	-22142	,	17.50095	,	22
49,32	,	75419	,	-23782	,	-22144	,	14.849093	,	18
49,32	,	75452	,	-23793	,	-22142	,	11.82699	,	14
49,32	,	75468	,	-23786	,	-22147	,	8.731557	,	10
49,32	,	75500	,	-23800	,	-22152	,	5.7369823	,	6
49,32	,	75516	,	-23784	,	-22141	,	2.9730563	,	3
49,32	,	75532	,	-23779	,	-22144	,	0.68832636	,	1
49,32	,	75564	,	-23794	,	-22146	,	-0.8345442	,	0
49,32	,	75580	,	-23801	,	-22172	,	-1.6756016	,	0
49,32	,	75596	,	-23794	,	-22131	,	-2.2106342	,	0
49,32	,	75627	,	-23800	,	-22158	,	-2.6750383	,	0
49,32	,	75643	,	-23797	,	-22168	,	-3.10263	,	0
49,32	,	75675	,	-23809	,	-22153	,	-3.5139303	,	0
49,32	,	75692	,	-23813	,	-22160	,	-4.020456	,	0
49,32	,	75707	,	-23802	,	-22159	,	-4.7041225	,	0
49,32	,	75739	,	-23819	,	-22170	,	-5.47479	,	0
49,32	,	75755	,	-23813	,	-22172	,	-6.225884	,	0
49,32	,	75772	,	-23810	,	-22162	,	-6.877081	,	0
49,32	,	75804	,	-23826	,	-22174	,	-7.3231206	,	0
49,32	,	75820	,	-23823	,	-22176	,	-7.60563	,	0
49,32	,	75835	,	-23826	,	-22157	,	-7.8532343	,	0
49,32	,	75867	,	-23829	,	-22179	,	-8.090251	,	0
49,32	,	75884	,	-23839	,	-22180	,	-8.330467	,	0
49,33	,	75915	,	-23845	,	-22176	,	-8.6898365	,	0
49,33	,	75931	,	-23845	,	-22172	,	-9.282732	,	0
49,33	,	75947	,	-23852	,	-22182	,	-10.0889015	,	0
49,33	,	75979	,	-23861	,	-22184	,	-11.025198	,	0
49,33	,	75996	,	-23871	,	-22188	,	-12.088953	,	0
49,33	,	76012	,	-23861	,	-22193	,	-13.262726	,	0
49,33	,	76044	,	-23860	,	-22195	,	-14.292823	,	0
49,33	,	76060	,	-23846	,	-22197	,	-14.713182	,	0
49,33	,	76091	,	-23836	,	-22171	,	-14.045951	,	0
49,33	,	76107	,	-23816	,	-22170	,	-11.916288	,	0
49,33	,	76123	,	-23818	,	-22169	,	-8.183215	,	2
49,33	,	76155	,	-23805	,	-22170	,	-3.1062016	,	5
49,33	,	76171	,	-23794	,	-22165	,	2.7730374	,	10
49,33	,	76187	,	-23795	,	-22158	,	8.870244	,	15
49,33	,	76219	,	-23794	,	-22163	,	14.550336	,	21
49,33	,	76235	,	-23793	,	-22160	,	19.155924	,	26
49,33	,	76251	,	-23794	,	-22158	,	22.201866	,	30
49,33	,	76284	,	-23784	,	-22162	,	23.521473	,	33
49,33	,	76299	,	-23783	,	-22158	,	23.306923	,	34
49,33	,	76331	,	-23795	,	-22148	,	21.903625	,	32
49,33	,	76347	,	-23787	,	-22148	,	19.569775	,	29
49,33	,	76363	,	-23785	,	-22156	,	16.582453	,	24
49,33	,	76395	,	-23782	,	-22160	,	13.35469	,	19
49,33	,	76411	,	-23789	,	-22158	,	10.260191	,	13
49,33	,	76427	,	-23781	,	-22162	,	7.5058413	,	8
49,33	,	76459	,	-23787	,	-22160	,	5.203094	,	4
49,33	,	76475	,	-23789	,	-22159	,	3.3765688	,	1
49,33	,	76507	,	-23794	,	-22156	,	1.9118891	,	0
49,33	,	76523	,	-23797	,	-22168	,	0.6265452	,	0
49,33	,	76539	,	-23794	,	-22150	,	-0.5912055	,	0
49,33	,	76572	,	-23795	,	-22161	,	-1.7072977	,	0
49,33	,	76587	,	-23789	,	-22159	,	-2.581386	,	0
49,33	,	76603	,	-23789	,	-22161	,	-3.0579405	,	0
49,33	,	76635	,	-23805	,	-22173	,	-3.1372528	,	0
49,33	,	76651	,	-23816	,	-22169	,	-3.1454291	,	0
49,33	,	76667	,	-23816	,	-22184	,	-3.5430927	,	0
49,33	,	76699	,	-23822	,	-22179	,	-4.547056	,	0
49,33	,	76715	,	-23831	,	-22186	,	-6.102247	,	0
49,33	,	76747	,	-23830	,	-22179	,	-8.047847	,	0
49,33	,	76763	,	-23844	,	-22202	,	-10.178959	,	0
49,33	,	76779	,	-23836	,	-22185	,	-12.27532	,	0
49,33	,	76811	,	-23835	,	-22195	,	-14.036081	,	0
49,33	,	76827	,	-23843	,	-22187	,	-15.12382	,	0
49,33	,	76843	,	-23853	,	-22193	,	-15.460165	,	0
49,33	,	76875	,	-23864	,	-22192	,	-15.326532	,	0
49,34	,	76891	,	-23852	,	-22203	,	-15.058481	,	0
49,34	,	76923	,	-23870	,	-22194	,	-14.772062	,	0
49,34	,	76939	,	-23859	,	-22208	,	-14.4496155	,	0
49,34	,	76955	,	-23869	,	-22202	,	-14.039312	,	0
49,34	,	76988	,	-23857	,	-22208	,	-13.429207	,	0
49,34	,	77003	,	-23855	,	-22213	,	-12.449063	,	0
49,34	,	77019	,	-23849	,	-22187	,	-10.918287	,	0
49,34	,	77051	,	-23821	,	-22192	,	-8.641403	,	1
49,34	,	77067	,	-23816	,	-22188	,	-5.342838	,	3
49,34	,	77083	,	-23817	,	-22180	,	-0.9409933	,	6
49,34	,	77115	,	-23819	,	-22182	,	4.108162	,	10
49,34	,	77131	,	-23806	,	-22184	,	9.058683	,	15
49,34	,	77163	,	-23802	,	-22191	,	13.361899	,	19
49,34	,	77179	,	-23808	,	-22183	,	16.72289	,	23
49,34	,	77195	,	-23801	,	-22171	,	18.912617	,	26
49,34	,	77227	,	-23805	,	-22189	,	19.80357	,	28
49,34	,	77243	,	-23817	,	-22200	,	19.38292	,	27
49,34	,	77259	,	-23827	,	-22173	,	17.606096	,	25
49,34	,	77291	,	-23812	,	-22184	,	14.535727	,	22
49,34	,	77307	,	-23799	,	-22182	,	10.708209	,	18
49,34	,	77339	,	-23815	,	-22185	,	6.9655237	,	13
49,34	,	77355	,	-23801	,	-22184	,	3.877708	,	9
49,34	,	77371	,	-23811	,	-22182	,	1.6395383	,	5
49,34	,	77403	,	-23803	,	-22184	,	0.25947332	,	2
49,34	,	77419	,	-23807	,	-22179	,	-0.3747133	,	0
49,34	,	77435	,	-23818	,	-22177	,	-0.5028856	,	0
49,34	,	77467	,	-23810	,	-22184	,	-0.466085	,	0
49,34	,	77483	,	-23811	,	-22199	,	-0.48394778	,	0
49,34	,	77515	,	-23818	,	-22176	,	-0.58740044	,	0
49,34	,	77531	,	-23813	,	-22193	,	-0.7900714	,	0
49,34	,	77547	,	-23816	,	-22196	,	-1.0871623	,	0
49,34	,	77579	,	-23824	,	-22191	,	-1.4581219	,	0
49,34	,	77595	,	-23833	,	-22198	,	-2.004119	,	0
49,34	,	77611	,	-23829	,	-22197	,	-2.8773403	,	0
49,34	,	77643	,	-23840	,	-22201	,	-4.0908074	,	0
49,34	,	77659	,	-23846	,	-22202	,	-5.5767937	,	0
49,34	,	77675	,	-23840	,	-22193	,	-7.2450066	,	0
49,34	,	77707	,	-23841	,	-22204	,	-8.852335	,	0
49,34	,	77723	,	-23850	,	-22223	,	-10.101621	,	0
49,34	,	77755	,	-23859	,	-22203	,	-10.9277525	,	0
49,34	,	77771	,	-23856	,	-22209	,	-11.473496	,	0
49,34	,	77787	,	-23868	,	-22212	,	-11.869398	,	0
49,34	,	77819	,	-23867	,	-22211	,	-12.19805	,	0
49,34	,	77835	,	-23876	,	-22219	,	-12.52626	,	0
49,34	,	77851	,	-23875	,	-22217	,	-12.873022	,	0
49,34	,	77883	,	-23868	,	-22212	,	-13.1348095	,	0
49,35	,	77899	,	-23863	,	-22209	,	-13.030206	,	0
49,35	,	77931	,	-23850	,	-22209	,	-12.196524	,	0
49,35	,	77947	,	-23836	,	-22204	,	-10.3021755	,	0
49,35	,	77962	,	-23837	,	-22206	,	-7.1786942	,	1
49,35	,	77995	,	-23832	,	-22200	,	-3.0297694	,	4
49,35	,	78011	,	-23828	,	-22196	,	1.616466	,	8
49,35	,	78027	,	-23820	,	-22191	,	6.2034144	,	12
49,35	,	78059	,	-23824	,	-22193	,	10.2922	,	16
49,35	,	78075	,	-23825	,	-22194	,	13.501892	,	20
49,35	,	78091	,	-23819	,	-22198	,	15.538243	,	23
49,35	,	78123	,	-23830	,	-22195	,	16.291916	,	25
49,35	,	78139	,	-23818	,	-22188	,	15.828704	,	25
49,35	,	78170	,	-23824	,	-22197	,	14.392303	,	24
49,35	,	78187	,	-23823	,	-22190	,	12.326391	,	21
49,35	,	78203	,	-23821	,	-22186	,	9.936653	,	17
49,35	,	78235	,	-23828	,	-22199	,	7.472004	,	13
49,35	,	78251	,	-23827	,	-22193	,	5.099067	,	9
49,35	,	78266	,	-23824	,	-22202	,	2.9315176	,	5
49,35	,	78299	,	-23826	,	-22185	,	1.1010458	,	2
49,35	,	78315	,	-23829	,	-22187	,	-0.30756116	,	0
49,35	,	78347	,	-23827	,	-22198	,	-1.3054904	,	0
49,35	,	78363	,	-23820	,	-22191	,	-1.9005635	,	0
49,35	,	78379	,	-23830	,	-22196	,	-2.0801253	,	0
49,35	,	78410	,	-23830	,	-22196	,	-1.9538015	,	0
49,35	,	78426	,	-23837	,	-22207	,	-1.7615507	,	0
49,35	,	78442	,	-23824	,	-22197	,	-1.672931	,	0
49,35	,	78475	,	-23836	,	-22200	,	-1.6761395	,	0
49,35	,	78491	,	-23860	,	-22206	,	-1.8547797	,	0
49,35	,	78507	,	-23852	,	-22197	,	-2.5565019	,	0
49,35	,	78539	,	-23860	,	-22200	,	-3.976286	,	0
49,35	,	78555	,	-23851	,	-22210	,	-5.874594	,	0
49,35	,	78586	,	-23867	,	-22214	,	-7.8282847	,	0
49,35	,	78602	,	-23858	,	-22211	,	-9.521279	,	0
49,35	,	78618	,	-23861	,	-22213	,	-10.744903	,	0
49,35	,	78651	,	-23865	,	-22215	,	-11.349517	,	0
49,35	,	78667	,	-23877	,	-22229	,	-11.391613	,	0
49,35	,	78683	,	-23871	,	-22204	,	-11.125813	,	0
49,35	,	78715	,	-23886	,	-22223	,	-10.79464	,	0
49,35	,	78730	,	-23892	,	-22223	,	-10.612633	,	0
49,35	,	78762	,	-23899	,	-22223	,	-10.798197	,	0
49,35	,	78778	,	-23899	,	-22226	,	-11.428225	,	0
49,35	,	78794	,	-23896	,	-22227	,	-12.329592	,	0
49,35	,	78827	,	-23892	,	-22225	,	-13.128176	,	0
49,35	,	78843	,	-23886	,	-22222	,	-13.39345	,	0
49,35	,	78859	,	-23864	,	-22214	,	-12.70862	,	0
49,36	,	78891	,	-23850	,	-22215	,	-10.641533	,	0
49,36	,	78906	,	-23856	,	-22215	,	-6.9793444	,	2
49,36	,	78922	,	-23849	,	-22189	,	-2.0720801	,	5
49,36	,	78954	,	-23816	,	-22196	,	3.468503	,	9
49,36	,	78971	,	-23829	,	-22196	,	9.244352	,	14
49,36	,	79002	,	-23828	,	-22192	,	14.807082	,	19
49,36	,	79019	,	-23835	,	-22196	,	19.407234	,	24
49,36	,	79035	,	-23831	,	-22195	,	22.353287	,	28
49,36	,	79067	,	-23827	,	-22193	,	23.378717	,	30
49,36	,	79082	,	-23844	,	-22194	,	22.593346	,	31
49,36	,	79098	,	-23836	,	-22197	,	20.228851	,	29
49,36	,	79130	,	-23829	,	-22193	,	16.696938	,	26
49,36	,	79146	,	-23825	,	-22201	,	12.705991	,	22
49,36	,	79178	,	-23825	,	-22173	,	8.979717	,	17
49,36	,	79194	,	-23819	,	-22186	,	5.989434	,	12
49,36	,	79210	,	-23821	,	-22186	,	3.9462647	,	7
49,36	,	79242	,	-23825	,	-22192	,	2.8081508	,	3
49,36	,	79258	,	-23833	,	-22186	,	2.2733521	,	1
49,36	,	79274	,	-23827	,	-22190	,	1.9406691	,	0
49,36	,	79306	,	-23827	,	-22193	,	1.5744407	,	0
49,36	,	79322	,	-23838	,	-22189	,	1.1122686	,	0
49,36	,	79338	,	-23830	,	-22195	,	0.50318307	,	0
49,36	,	79371	,	-23845	,	-22205	,	-0.2942658	,	0
49,36	,	79387	,	-23840	,	-22209	,	-1.2972426	,	0
49,36	,	79418	,	-23840	,	-22180	,	-2.4525366	,	0
49,36	,	79434	,	-23847	,	-22197	,	-3.60258	,	0
49,36	,	79450	,	-23850	,	-22196	,	-4.6448283	,	0
49,36	,	79482	,	-23853	,	-22203	,	-5.5872784	,	0
49,36	,	79498	,	-23862	,	-22203	,	-6.473446	,	0
49,36	,	79514	,	-23857	,	-22205	,	-7.3427777	,	0
49,36	,	79546	,	-23861	,	-22207	,	-8.150448	,	0
49,36	,	79562	,	-23860	,	-22199	,	-8.765383	,	0
49,36	,	79594	,	-23861	,	-22204	,	-9.065763	,	0
49,36	,	79610	,	-23863	,	-22211	,	-8.997011	,	0
49,36	,	79626	,	-23872	,	-22221	,	-8.631394	,	0
49,36	,	79658	,	-23866	,	-22202	,	-8.136547	,	0
49,36	,	79674	,	-23889	,	-22215	,	-7.7005634	,	0
49,36	,	79690	,	-23870	,	-22209	,	-7.50269	,	0
49,36	,	79722	,	-23896	,	-22212	,	-7.6205764	,	0
49,36	,	79738	,	-23892	,	-22217	,	-8.082008	,	0
49,36	,	79754	,	-23892	,	-22214	,	-8.881555	,	0
49,36	,	79786	,	-23880	,	-22214	,	-9.763661	,	0
49,36	,	79802	,	-23856	,	-22203	,	-10.144455	,	0
49,36	,	79834	,	-23847	,	-22195	,	-9.287574	,	0
49,36	,	79850	,	-23849	,	-22197	,	-6.7604713	,	0
49,36	,	79866	,	-23837	,	-22209	,	-2.7613897	,	2
49,37	,	79898	,	-23826	,	-22182	,	2.1664186	,	5
49,37	,	79914	,	-23835	,	-22179	,	7.4320345	,	9
49,37	,	79930	,	-23821	,	-22186	,	12.383964	,	14
49,37	,	79962	,	-23824	,	-22178	,	16.461363	,	18
49,37	,	79978	,	-23819	,	-22187	,	19.351236	,	22
49,37	,	80010	,	-23826	,	-22182	,	20.896786	,	24
49,37	,	80026	,	-23826	,	-22184	,	21.017103	,	25
49,37	,	80042	,	-23825	,	-22179	,	19.76455	,	25
49,37	,	80074	,	-23819	,	-22184	,	17.429836	,	23
49,37	,	80090	,	-23815	,	-22185	,	14.523428	,	20
49,37	,	80106	,	-23833	,	-22191	,	11.50674	,	16
49,37	,	80138	,	-23817	,	-22190	,	8.583358	,	11
49,37	,	80154	,	-23828	,	-22183	,	5.8662953	,	7
49,37	,	80170	,	-23816	,	-22182	,	3.5267482	,	3
49,37	,	80202	,	-23826	,	-22184	,	1.7088614	,	1
49,37	,	80218	,	-23827	,	-22192	,	0.41671467	,	0
49,37	,	80250	,	-23829	,	-22187	,	-0.4931183	,	0
49,37	,	80266	,	-23835	,	-22189	,	-1.2037232	,	0
49,37	,	80282	,	-23827	,	-22192	,	-1.842737	,	0
49,37	,	80314	,	-23832	,	-22183	,	-2.4110498	,	0
49,37	,	80330	,	-23832	,	-22193	,	-2.8336234	,	0
49,37	,	80346	,	-23834	,	-22180	,	-3.0852213	,	0
49,37	,	80378	,	-23836	,	-22190	,	-3.199275	,	0
49,37	,	80394	,	-23828	,	-22192	,	-3.1972914	,	0
49,37	,	80426	,	-23840	,	-22199	,	-3.0726278	,	0
49,37	,	80442	,	-23845	,	-22193	,	-2.9254174	,	0
49,37	,	80458	,	-23852	,	-22203	,	-3.0027099	,	0
49,37	,	80490	,	-23849	,	-22202	,	-3.486606	,	0
49,37	,	80506	,	-23862	,	-22198	,	-4.3807254	,	0
49,37	,	80522	,	-23855	,	-22199	,	-5.588064	,	0
49,37	,	80554	,	-23858	,	-22197	,	-6.903475	,	0
49,37	,	80570	,	-23869	,	-22204	,	-8.085826	,	0
49,37	,	80602	,	-23857	,	-22188	,	-9.009844	,	0
49,37	,	80618	,	-23861	,	-22206	,	-9.561701	,	0
49,37	,	80634	,	-23868	,	-22205	,	-9.634585	,	0
49,37	,	80665	,	-23875	,	-22205	,	-9.337918	,	0
49,37	,	80682	,	-23879	,	-22208	,	-8.958208	,	0
49,37	,	80697	,	-23863	,	-22205	,	-8.65382	,	0
49,37	,	80730	,	-23854	,	-22191	,	-8.21081	,	0
49,37	,	80746	,	-23828	,	-22193	,	-7.0934005	,	0
49,37	,	80762	,	-23831	,	-22193	,	-4.7759776	,	1
49,37	,	80794	,	-23822	,	-22187	,	-1.1542997	,	3
49,37	,	80809	,	-23815	,	-22195	,	3.3960974	,	6
49,37	,	80842	,	-23805	,	-22162	,	8.34438	,	10
49,37	,	80858	,	-23809	,	-22180	,	13.167626	,	14
49,37	,	80874	,	-23814	,	-22171	,	17.273998	,	18
49,38	,	80906	,	-23805	,	-22187	,	20.102377	,	22
49,38	,	80921	,	-23809	,	-22179	,	21.388205	,	24
49,38	,	80937	,	-23819	,	-22180	,	21.131191	,	25
49,38	,	80970	,	-23814	,	-22172	,	19.423992	,	24
49,38	,	80986	,	-23801	,	-22172	,	16.602995	,	22
49,38	,	81018	,	-23805	,	-22172	,	13.318936	,	19
49,38	,	81034	,	-23797	,	-22165	,	10.213892	,	15
49,38	,	81049	,	-23802	,	-22190	,	7.6696796	,	11
49,38	,	81082	,	-23809	,	-22156	,	5.7601233	,	7
49,38	,	81098	,	-23797	,	-22166	,	4.3498926	,	3
49,38	,	81113	,	-23806	,	-22175	,	3.3243237	,	1
49,38	,	81146	,	-23800	,	-22174	,	2.6183743	,	0
49,38	,	81161	,	-23796	,	-22176	,	2.1713169	,	0
49,38	,	81177	,	-23805	,	-22164	,	1.9434476	,	0
49,38	,	81210	,	-23810	,	-22168	,	1.7948347	,	0
49,38	,	81226	,	-23814	,	-22168	,	1.470214	,	0
49,38	,	81258	,	-23812	,	-22175	,	0.7985972	,	0
49,38	,	81273	,	-23820	,	-22178	,	-0.2171393	,	0
49,38	,	81289	,	-23823	,	-22188	,	-1.5084401	,	0
49,38	,	81321	,	-23826	,	-22166	,	-3.0062745	,	0
49,38	,	81337	,	-23835	,	-22178	,	-4.6322794	,	0
49,38	,	81353	,	-23840	,	-22175	,	-6.345873	,	0
49,38	,	81386	,	-23842	,	-22183	,	-8.118551	,	0
49,38	,	81401	,	-23832	,	-22189	,	-9.782457	,	0
49,38	,	81434	,	-23851	,	-22182	,	-11.072956	,	0
49,38	,	81449	,	-23840	,	-22186	,	-11.864666	,	0
49,38	,	81465	,	-23845	,	-22185	,	-12.14407	,	0
49,38	,	81497	,	-23853	,	-22186	,	-11.930136	,	0
49,38	,	81513	,	-23852	,	-22188	,	-11.370977	,	0
49,38	,	81529	,	-23869	,	-22199	,	-10.724912	,	0
49,38	,	81562	,	-23850	,	-22179	,	-10.204919	,	0
49,38	,	81578	,	-23849	,	-22187	,	-9.740782	,	0
49,38	,	81594	,	-23837	,	-22177	,	-8.968889	,	0
49,38	,	81625	,	-23824	,	-22173	,	-7.48325	,	0
49,38	,	81641	,	-23816	,	-22174	,	-4.9880104	,	1
49,38	,	81673	,	-23813	,	-22166	,	-1.4495721	,	3
49,38	,	81689	,	-23795	,	-22168	,	2.8689535	,	6
49,38	,	81705	,	-23801	,	-22165	,	7.5725756	,	10
49,38	,	81738	,	-23799	,	-22166	,	12.146887	,	14
49,38	,	81754	,	-23794	,	-22159	,	16.005468	,	18
49,38	,	81770	,	-23799	,	-22163	,	18.712252	,	21
49,38	,	81801	,	-23785	,	-22146	,	20.096516	,	23
49,38	,	81817	,	-23787	,	-22160	,	20.27813	,	24
49,38	,	81849	,	-23797	,	-22158	,	19.493748	,	23
49,38	,	81865	,	-23780	,	-22155	,	17.925575	,	21
49,38	,	81881	,	-23781	,	-22149	,	15.868864	,	18
49,39	,	81914	,	-23775	,	-22152	,	13.742171	,	14
49,39	,	81929	,	-23780	,	-22155	,	11.830434	,	10
49,39	,	81961	,	-23783	,	-22151	,	10.171997	,	6
49,39	,	81977	,	-23767	,	-22155	,	8.716995	,	3
49,39	,	81993	,	-23782	,	-22147	,	7.502707	,	1
49,39	,	82025	,	-23793	,	-22154	,	6.444055	,	0
49,39	,	82041	,	-23797	,	-22164	,	5.184982	,	0
49,39	,	82057	,	-23787	,	-22156	,	3.4757066	,	0
49,39	,	82089	,	-23795	,	-22157	,	1.4496357	,	0
49,39	,	82105	,	-23778	,	-22152	,	-0.5244787	,	0
49,39	,	82121	,	-23800	,	-22157	,	-2.1037962	,	0
49,39	,	82153	,	-23795	,	-22169	,	-3.215093	,	0
49,39	,	82169	,	-23814	,	-22166	,	-4.0806856	,	0
49,39	,	82201	,	-23821	,	-22160	,	-5.059969	,	0
49,39	,	82217	,	-23815	,	-22166	,	-6.415348	,	0
49,39	,	82233	,	-23814	,	-22172	,	-8.03173	,	0
49,39	,	82265	,	-23813	,	-22165	,	-9.4940605	,	0
49,39	,	82281	,	-23824	,	-22170	,	-10.479962	,	0
49,39	,	82297	,	-23819	,	-22161	,	-10.938854	,	0
49,39	,	82329	,	-23831	,	-22169	,	-10.977277	,	0
49,39	,	82345	,	-23822	,	-22170	,	-10.719334	,	0
49,39	,	82361	,	-23823	,	-22180	,	-10.205048	,	0
49,39	,	82393	,	-23829	,	-22171	,	-9.419296	,	0
49,39	,	82409	,	-23836	,	-22181	,	-8.481175	,	0
49,39	,	82441	,	-23827	,	-22179	,	-7.599764	,	0
49,39	,	82457	,	-23833	,	-22182	,	-6.8441477	,	0
49,39	,	82473	,	-23837	,	-22170	,	-6.1862245	,	0
49,39	,	82505	,	-23851	,	-22181	,	-5.720332	,	0
49,39	,	82521	,	-23856	,	-22186	,	-5.6931486	,	0
49,39	,	82537	,	-23860	,	-22182	,	-6.30427	,	0
49,39	,	82569	,	-23853	,	-22179	,	-7.4755225	,	0
49,39	,	82585	,	-23829	,	-22175	,	-8.704656	,	0
49,39	,	82617	,	-23815	,	-22179	,	-9.127027	,	0
49,39	,	82633	,	-23827	,	-22162	,	-8.047852	,	0
49,39	,	82649	,	-23810	,	-22157	,	-5.45205	,	1
49,39	,	82681	,	-23805	,	-22160	,	-1.761498	,	3
49,39	,	82697	,	-23800	,	-22158	,	2.5690253	,	6
49,39	,	82713	,	-23798	,	-22156	,	7.0565634	,	10
49,39	,	82745	,	-23797	,	-22155	,	11.175827	,	14
49,39	,	82761	,	-23791	,	-22163	,	14.485852	,	18
49,39	,	82777	,	-23794	,	-22161	,	16.733082	,	21
49,39	,	82809	,	-23787	,	-22155	,	17.847692	,	23
49,39	,	82825	,	-23790	,	-22159	,	17.901432	,	24
49,39	,	82857	,	-23791	,	-22156	,	17.040424	,	23
49,39	,	82873	,	-23797	,	-22152	,	15.392355	,	21
49,39	,	82889	,	-23776	,	-22159	,	13.169572	,	18
49,40	,	82921	,	-23791	,	-22143	,	10.777951	,	14
49,40	,	82937	,	-23794	,	-22162	,	8.51907	,	10
49,40	,	82953	,	-23794	,	-22138	,	6.391876	,	6
49,40	,	82985	,	-23791	,	-22149	,	4.3570814	,	3
49,40	,	83001	,	-23789	,	-22160	,	2.5141578	,	1
49,40	,	83033	,	-23794	,	-22158	,	0.99744415	,	0
49,40	,	83049	,	-23796	,	-22150	,	-0.16459656	,	0
49,40	,	83065	,	-23805	,	-22152	,	-1.0881896	,	0
49,40	,	83097	,	-23797	,	-22163	,	-1.9212347	,	0
49,40	,	83113	,	-23815	,	-22156	,	-2.751654	,	0
49,40	,	83129	,	-23799	,	-22158	,	-3.6224391	,	0
49,40	,	83161	,	-23806	,	-22158	,	-4.4512596	,	0
49,40	,	83177	,	-23809	,	-22174	,	-5.0714264	,	0
49,40	,	83193	,	-23828	,	-22152	,	-5.528412	,	0
49,40	,	83225	,	-23813	,	-22168	,	-6.05525	,	0
49,40	,	83241	,	-23815	,	-22164	,	-6.6713653	,	0
49,40	,	83273	,	-23835	,	-22168	,	-7.2236514	,	0
49,40	,	83289	,	-23819	,	-22178	,	-7.7200246	,	0
49,40	,	83305	,	-23813	,	-22167	,	-8.102806	,	0
49,40	,	83337	,	-23831	,	-22179	,	-8.137707	,	0
49,40	,	83353	,	-23826	,	-22176	,	-7.8134737	,	0
49,40	,	83369	,	-23850	,	-22181	,	-7.4264736	,	0
49,40	,	83401	,	-23847	,	-22185	,	-7.375311	,	0
49,40	,	83417	,	-23838	,	-22216	,	-7.839778	,	0
49,40	,	83449	,	-23850	,	-22180	,	-8.599206	,	0
49,40	,	83465	,	-23860	,	-22189	,	-9.410847	,	0
49,40	,	83481	,	-23861	,	-22192	,	-10.277466	,	0
49,40	,	83512	,	-23871	,	-22190	,	-11.253422	,	0
49,40	,	83529	,	-23866	,	-22191	,	-12.297683	,	0
49,40	,	83545	,	-23877	,	-22200	,	-13.28194	,	0
49,40	,	83577	,	-23869	,	-22194	,	-14.04302	,	0
49,40	,	83593	,	-23883	,	-22199	,	-14.449102	,	0
49,40	,	83609	,	-23870	,	-22192	,	-14.429497	,	0
49,40	,	83641	,	-23856	,	-22193	,	-13.832252	,	0
49,40	,	83657	,	-23840	,	-22206	,	-12.283994	,	0
49,40	,	83688	,	-23842	,	-22174	,	-9.44898	,	1
49,40	,	83704	,	-23824	,	-22189	,	-5.3561873	,	3
49,40	,	83721	,	-23823	,	-22176	,	-0.33926153	,	7
49,40	,	83753	,	-23812	,	-22180	,	5.135877	,	12
49,40	,	83769	,	-23820	,	-22177	,	10.503112	,	17
49,40	,	83785	,	-23826	,	-22175	,	15.073919	,	22
49,40	,	83817	,	-23816	,	-22177	,	18.20539	,	26
49,40	,	83833	,	-23819	,	-22170	,	19.631222	,	29
49,40	,	83865	,	-23831	,	-22179	,	19.421978	,	30
49,40	,	83880	,	-23813	,	-22180	,	17.790295	,	29
49,41	,	83896	,	-23829	,	-22188	,	15.13898	,	27
49,41	,	83928	,	-23821	,	-22175	,	11.941055	,	23
49,41	,	83944	,	-23814	,	-22177	,	8.629355	,	18
49,41	,	83961	,	-23807	,	-22172	,	5.7050285	,	13
49,41	,	83993	,	-23818	,	-22185	,	3.5773811	,	8
49,41	,	84009	,	-23816	,	-22171	,	2.28028	,	4
49,41	,	84025	,	-23818	,	-22177	,	1.5625107	,	1
49,41	,	84057	,	-23825	,	-22182	,	1.1285089	,	0
49,41	,	84072	,	-23827	,	-22173	,	0.70041907	,	0
49,41	,	84104	,	-23816	,	-22185	,	0.13032353	,	0
49,41	,	84120	,	-23822	,	-22189	,	-0.4850943	,	0
49,41	,	84137	,	-23827	,	-22191	,	-1.0119046	,	0
49,41	,	84169	,	-23828	,	-22185	,	-1.4782362	,	0
49,41	,	84185	,	-23828	,	-22185	,	-1.9573394	,	0
49,41	,	84201	,	-23826	,	-22187	,	-2.42491	,	0
49,41	,	84232	,	-23838	,	-22182	,	-2.8351767	,	0
49,41	,	84248	,	-23840	,	-22190	,	-3.2709413	,	0
49,41	,	84281	,	-23841	,	-22187	,	-3.868826	,	0
49,41	,	84297	,	-23850	,	-22198	,	-4.6700773	,	0
49,41	,	84313	,	-23848	,	-22188	,	-5.6457167	,	0
49,41	,	84345	,	-23852	,	-22193	,	-6.7088737	,	0
49,41	,	84360	,	-23858	,	-22194	,	-7.734397	,	0
49,41	,	84376	,	-23864	,	-22196	,	-8.67429	,	0
49,41	,	84409	,	-23858	,	-22200	,	-9.523589	,	0
49,41	,	84425	,	-23867	,	-22196	,	-10.202423	,	0
49,41	,	84440	,	-23875	,	-22200	,	-10.669008	,	0
49,41	,	84472	,	-23880	,	-22206	,	-11.043096	,	0
49,41	,	84488	,	-23887	,	-22210	,	-11.488418	,	0
49,41	,	84520	,	-23893	,	-22205	,	-12.104491	,	0
49,41	,	84536	,	-23892	,	-22200	,	-12.89304	,	0
49,41	,	84552	,	-23903	,	-22213	,	-13.7512245	,	0
49,41	,	84585	,	-23895	,	-22210	,	-14.523329	,	0
49,41	,	84601	,	-23888	,	-22206	,	-14.955301	,	0
49,41	,	84616	,	-23879	,	-22195	,	-14.663145	,	0
49,41	,	84648	,	-23872	,	-22199	,	-13.298227	,	0
49,41	,	84664	,	-23857	,	-22192	,	-10.684459	,	1
49,41	,	84697	,	-23852	,	-22190	,	-6.834744	,	3
49,41	,	84713	,	-23845	,	-22191	,	-1.9953327	,	6
49,41	,	84729	,	-23837	,	-22184	,	3.3757133	,	10
49,41	,	84760	,	-23845	,	-22187	,	8.701384	,	15
49,41	,	84776	,	-23838	,	-22183	,	13.341065	,	20
49,41	,	84792	,	-23829	,	-22182	,	16.818367	,	24
49,41	,	84824	,	-23828	,	-22179	,	19.029718	,	27
49,41	,	84840	,	-23848	,	-22189	,	19.984308	,	29
49,41	,	84872	,	-23833	,	-22181	,	19.581833	,	28
49,42	,	84888	,	-23839	,	-22190	,	17.891762	,	26
49,42	,	84904	,	-23836	,	-22190	,	15.28507	,	23
49,42	,	84936	,	-23841	,	-22188	,	12.185817	,	19
49,42	,	84952	,	-23834	,	-22188	,	8.956222	,	14
49,42	,	84968	,	-23838	,	-22187	,	5.9311233	,	9
49,42	,	85000	,	-23827	,	-22184	,	3.4123316	,	5
49,42	,	85016	,	-23833	,	-22190	,	1.62186	,	2
49,42	,	85032	,	-23845	,	-22187	,	0.53797317	,	0
49,42	,	85064	,	-23836	,	-22189	,	-0.13034666	,	0
49,42	,	85080	,	-23843	,	-22200	,	-0.64567196	,	0
49,42	,	85112	,	-23842	,	-22171	,	-1.1106527	,	0
49,42	,	85128	,	-23856	,	-22191	,	-1.6267626	,	0
49,42	,	85144	,	-23847	,	-22192	,	-2.3220963	,	0
49,42	,	85176	,	-23859	,	-22196	,	-3.2220216	,	0
49,42	,	85192	,	-23858	,	-22196	,	-4.2628536	,	0
49,42	,	85208	,	-23849	,	-22192	,	-5.315625	,	0
49,42	,	85240	,	-23851	,	-22194	,	-6.116184	,	0
49,42	,	85256	,	-23862	,	-22193	,	-6.4654565	,	0
49,42	,	85288	,	-23869	,	-22200	,	-6.4905643	,	0
49,42	,	85304	,	-23862	,	-22192	,	-6.4702997	,	0
49,42	,	85320	,	-23878	,	-22222	,	-6.5640664	,	0
49,42	,	85352	,	-23880	,	-22196	,	-6.8796024	,	0
49,42	,	85368	,	-23879	,	-22211	,	-7.495908	,	0
49,42	,	85384	,	-23878	,	-22199	,	-8.29646	,	0
49,42	,	85416	,	-23886	,	-22211	,	-9.043969	,	0
49,42	,	85432	,	-23900	,	-22212	,	-9.665866	,	0
49,42	,	85448	,	-23890	,	-22213	,	-10.269468	,	0
49,42	,	85480	,	-23903	,	-22219	,	-10.881193	,	0
49,42	,	85496	,	-23908	,	-22209	,	-11.455704	,	0
49,42	,	85528	,	-23910	,	-22215	,	-12.017944	,	0
49,42	,	85544	,	-23894	,	-22213	,	-12.479139	,	0
49,42	,	85560	,	-23891	,	-22214	,	-12.478998	,	0
49,42	,	85592	,	-23877	,	-22187	,	-11.573936	,	0
49,42	,	85608	,	-23858	,	-22196	,	-9.414183	,	0
49,42	,	85624	,	-23851	,	-22201	,	-5.7962046	,	2
49,42	,	85656	,	-23851	,	-22195	,	-0.8675432	,	5
49,42	,	85672	,	-23856	,	-22189	,	4.7172327	,	9
49,42	,	85704	,	-23848	,	-22180	,	10.044735	,	14
49,42	,	85720	,	-23841	,	-22187	,	14.41654	,	19
49,42	,	85736	,	-23839	,	-22178	,	17.558863	,	23
49,42	,	85768	,	-23838	,	-22184	,	19.45043	,	26
49,42	,	85784	,	-23843	,	-22183	,	20.110691	,	27
49,42	,	85800	,	-23834	,	-22201	,	19.597946	,	27
49,42	,	85832	,	-23837	,	-22168	,	18.122355	,	25
49,42	,	85848	,	-23830	,	-22172	,	16.030912	,	22
49,42	,	85864	,	-23832	,	-22179	,	13.690972	,	18
49,43	,	85896	,	-23821	,	-22175	,	11.436959	,	13
49,43	,	85912	,	-23835	,	-22168	,	9.500053	,	8
49,43	,	85944	,	-23825	,	-22166	,	7.914576	,	4
49,43	,	85960	,	-23830	,	-22174	,	6.6030197	,	1
49,43	,	85976	,	-23829	,	-22176	,	5.495668	,	0
49,43	,	86008	,	-23837	,	-22182	,	4.4889545	,	0
49,43	,	86024	,	-23834	,	-22184	,	3.4448001	,	0
49,43	,	86040	,	-23839	,	-22193	,	2.2876658	,	0
49,43	,	86072	,	-23839	,	-22172	,	1.032007	,	0
49,43	,	86088	,	-23837	,	-22175	,	-0.24013758	,	0
49,43	,	86119	,	-23842	,	-22188	,	-1.4059366	,	0
49,43	,	86135	,	-23844	,	-22189	,	-2.392231	,	0
49,43	,	86152	,	-23849	,	-22192	,	-3.2311277	,	0
49,43	,	86184	,	-23849	,	-22194	,	-3.9943457	,	0
49,43	,	86200	,	-23851	,	-22195	,	-4.704906	,	0
49,43	,	86216	,	-23862	,	-22195	,	-5.3707776	,	0
49,43	,	86248	,	-23857	,	-22197	,	-6.0447416	,	0
49,43	,	86264	,	-23865	,	-22201	,	-6.743747	,	0
49,43	,	86280	,	-23881	,	-22207	,	-7.5025554	,	0
49,43	,	86311	,	-23882	,	-22201	,	-8.492733	,	0
49,43	,	86327	,	-23885	,	-22209	,	-9.820306	,	0
49,43	,	86360	,	-23887	,	-22204	,	-11.338178	,	0
49,43	,	86376	,	-23885	,	-22205	,	-12.746894	,	0
49,43	,	86392	,	-23892	,	-22205	,	-13.762757	,	0
49,43	,	86424	,	-23896	,	-22217	,	-14.261203	,	0
49,43	,	86440	,	-23905	,	-22221	,	-14.329693	,	0
49,43	,	86456	,	-23903	,	-22219	,	-14.155462	,	0
49,43	,	86487	,	-23891	,	-22223	,	-13.785553	,	0
49,43	,	86503	,	-23912	,	-22230	,	-13.115813	,	0
49,43	,	86536	,	-23905	,	-22224	,	-12.185848	,	0
49,43	,	86552	,	-23892	,	-22222	,	-11.090736	,	0
49,43	,	86568	,	-23864	,	-22203	,	-9.555378	,	1
49,43	,	86599	,	-23859	,	-22198	,	-6.9973187	,	2
49,43	,	86615	,	-23857	,	-22193	,	-3.1056924	,	4
49,43	,	86631	,	-23856	,	-22193	,	1.7964892	,	7
49,43	,	86664	,	-23838	,	-22186	,	7.0420737	,	11
49,43	,	86680	,	-23844	,	-22198	,	12.05192	,	16
49,43	,	86696	,	-23838	,	-22191	,	16.35912	,	21
49,43	,	86728	,	-23832	,	-22176	,	19.589266	,	25
49,43	,	86743	,	-23828	,	-22184	,	21.604458	,	28
49,43	,	86776	,	-23836	,	-22182	,	22.42968	,	29
49,43	,	86792	,	-23833	,	-22196	,	22.073906	,	28
49,43	,	86808	,	-23848	,	-22184	,	20.528774	,	26
49,43	,	86840	,	-23824	,	-22188	,	17.930405	,	23
49,43	,	86856	,	-23822	,	-22193	,	14.783576	,	19
49,43	,	86872	,	-23828	,	-22187	,	11.761487	,	14
49,44	,	86903	,	-23835	,	-22182	,	9.181858	,	9
49,44	,	86919	,	-23831	,	-22183	,	6.97347	,	5
49,44	,	86951	,	-23823	,	-22188	,	5.067493	,	2
49,44	,	86967	,	-23827	,	-22196	,	3.554027	,	0
49,44	,	86983	,	-23835	,	-22205	,	2.4619482	,	0
49,44	,	87015	,	-23835	,	-22177	,	1.6181431	,	0
49,44	,	87031	,	-23846	,	-22193	,	0.77576876	,	0
49,44	,	87047	,	-23844	,	-22187	,	-0.26341903	,	0
49,44	,	87080	,	-23833	,	-22192	,	-1.4930029	,	0
49,44	,	87096	,	-23835	,	-22190	,	-2.6244442	,	0
49,44	,	87111	,	-23851	,	-22200	,	-3.4213104	,	0
49,44	,	87143	,	-23852	,	-22198	,	-4.00259	,	0
49,44	,	87159	,	-23855	,	-22196	,	-4.626765	,	0
49,44	,	87191	,	-23856	,	-22205	,	-5.388633	,	0
49,44	,	87207	,	-23863	,	-22203	,	-6.245525	,	0
49,44	,	87224	,	-23861	,	-22209	,	-7.1370735	,	0
49,44	,	87255	,	-23871	,	-22185	,	-8.009385	,	0
49,44	,	87272	,	-23867	,	-22208	,	-8.81694	,	0
49,44	,	87287	,	-23881	,	-22202	,	-9.533904	,	0
49,44	,	87319	,	-23883	,	-22199	,	-10.199359	,	0
49,44	,	87335	,	-23888	,	-22216	,	-10.8916	,	0
49,44	,	87367	,	-23885	,	-22211	,	-11.592461	,	0
49,44	,	87383	,	-23886	,	-22211	,	-12.1411495	,	0
49,44	,	87399	,	-23892	,	-22220	,	-12.364239	,	0
49,44	,	87431	,	-23892	,	-22214	,	-12.220806	,	0
49,44	,	87447	,	-23883	,	-22206	,	-11.724687	,	0
49,44	,	87463	,	-23869	,	-22209	,	-10.735664	,	0
49,44	,	87495	,	-23863	,	-22177	,	-8.966381	,	0
49,44	,	87511	,	-23856	,	-22198	,	-6.232303	,	1
49,44	,	87527	,	-23849	,	-22192	,	-2.614665	,	3
49,44	,	87559	,	-23844	,	-22191	,	1.5947032	,	6
49,44	,	87575	,	-23846	,	-22192	,	5.963752	,	10
49,44	,	87607	,	-23846	,	-22189	,	9.957052	,	14
49,44	,	87623	,	-23840	,	-22187	,	13.092129	,	17
49,44	,	87639	,	-23846	,	-22184	,	15.096955	,	20
49,44	,	87671	,	-23855	,	-22200	,	15.828232	,	22
49,44	,	87687	,	-23862	,	-22195	,	15.153555	,	22
49,44	,	87703	,	-23854	,	-22212	,	13.104109	,	21
49,44	,	87735	,	-23846	,	-22177	,	10.110611	,	19
49,44	,	87751	,	-23852	,	-22186	,	6.872739	,	16
49,44	,	87783	,	-23851	,	-22201	,	3.9428248	,	12
49,44	,	87799	,	-23850	,	-22189	,	1.5736704	,	8
49,44	,	87815	,	-23852	,	-22200	,	-0.15625834	,	5
49,44	,	87847	,	-23850	,	-22202	,	-1.2643667	,	2
49,44	,	87863	,	-23854	,	-22205	,	-1.8431492	,	0
49,44	,	87879	,	-23861	,	-22202	,	-2.076312	,	0
49,45	,	87911	,	-23856	,	-22202	,	-2.198305	,	0
49,45	,	87927	,	-23859	,	-22198	,	-2.3393178	,	0
49,45	,	87959	,	-23866	,	-22214	,	-2.5328329	,	0
49,45	,	87975	,	-23863	,	-22187	,	-2.824916	,	0
49,45	,	87991	,	-23875	,	-22203	,	-3.2611778	,	0
49,45	,	88023	,	-23872	,	-22194	,	-3.8823195	,	0
49,45	,	88039	,	-23877	,	-22206	,	-4.693282	,	0
49,45	,	88055	,	-23880	,	-22206	,	-5.6269574	,	0
49,45	,	88087	,	-23879	,	-22210	,	-6.584427	,	0
49,45	,	88103	,	-23885	,	-22206	,	-7.455095	,	0
49,45	,	88119	,	-23889	,	-22214	,	-8.174524	,	0
49,45	,	88151	,	-23901	,	-22211	,	-8.803154	,	0
49,45	,	88167	,	-23895	,	-22212	,	-9.452061	,	0
49,45	,	88199	,	-23899	,	-22217	,	-10.102152	,	0
49,45	,	88215	,	-23912	,	-22209	,	-10.662968	,	0
49,45	,	88231	,	-23909	,	-22215	,	-11.157723	,	0
49,45	,	88263	,	-23916	,	-22217	,	-11.633496	,	0
49,45	,	88279	,	-23923	,	-22216	,	-12.088572	,	0
49,45	,	88295	,	-23922	,	-22226	,	-12.536682	,	0
49,45	,	88327	,	-23912	,	-22224	,	-12.882388	,	0
49,45	,	88343	,	-23900	,	-22217	,	-12.77621	,	0
49,45	,	88375	,	-23899	,	-22211	,	-11.782351	,	0
49,45	,	88391	,	-23886	,	-22202	,	-9.669654	,	0
49,45	,	88407	,	-23885	,	-22206	,	-6.482865	,	2
49,45	,	88439	,	-23877	,	-22210	,	-2.4860883	,	5
49,45	,	88455	,	-23873	,	-22193	,	1.9137583	,	8
49,45	,	88471	,	-23864	,	-22190	,	6.3052864	,	12
49,45	,	88503	,	-23865	,	-22192	,	10.339864	,	16
49,45	,	88519	,	-23860	,	-22193	,	13.7080345	,	20
49,45	,	88535	,	-23850	,	-22190	,	16.214376	,	23
49,45	,	88567	,	-23864	,	-22198	,	17.797932	,	25
49,45	,	88583	,	-23861	,	-22204	,	18.355263	,	26
49,45	,	88615	,	-23867	,	-22198	,	17.758581	,	24
49,45	,	88631	,	-23846	,	-22193	,	16.14057	,	21
49,45	,	88647	,	-23865	,	-22202	,	13.922592	,	18
49,45	,	88679	,	-23848	,	-22181	,	11.50907	,	14
49,45	,	88695	,	-23858	,	-22188	,	9.168948	,	10
49,45	,	88711	,	-23855	,	-22192	,	7.0745687	,	6
49,45	,	88743	,	-23862	,	-22190	,	5.251745	,	3
49,45	,	88759	,	-23862	,	-22189	,	3.6228971	,	1
49,45	,	88791	,	-23856	,	-22188	,	2.1503363	,	0
49,45	,	88807	,	-23867	,	-22190	,	0.8722074	,	0
49,45	,	88823	,	-23853	,	-22190	,	-0.16999412	,	0
49,45	,	88855	,	-23868	,	-22191	,	-0.9505464	,	0
49,45	,	88871	,	-23864	,	-22199	,	-1.5083919	,	0
49,45	,	88886	,	-23878	,	-22204	,	-1.9998009	,	0
49,46	,	88919	,	-23870	,	-22186	,	-2.5962536	,	0
49,46	,	88934	,	-23870	,	-22190	,	-3.3123598	,	0
49,46	,	88950	,	-23875	,	-22198	,	-4.001887	,	0
49,46	,	88983	,	-23885	,	-22192	,	-4.5986423	,	0
49,46	,	88999	,	-23882	,	-22204	,	-5.1988683	,	0
49,46	,	89031	,	-23896	,	-22198	,	-5.9153013	,	0
49,46	,	89047	,	-23889	,	-22197	,	-6.800071	,	0
49,46	,	89063	,	-23894	,	-22205	,	-7.780134	,	0
49,46	,	89095	,	-23895	,	-22202	,	-8.67187	,	0
49,46	,	89110	,	-23898	,	-22204	,	-9.32802	,	0
49,46	,	89127	,	-23894	,	-22221	,	-9.663643	,	0
49,46	,	89159	,	-23910	,	-22193	,	-9.665365	,	0
49,46	,	89175	,	-23916	,	-22221	,	-9.525327	,	0
49,46	,	89206	,	-23925	,	-22215	,	-9.588274	,	0
49,46	,	89222	,	-23922	,	-22219	,	-10.06748	,	0
49,46	,	89238	,	-23921	,	-22216	,	-10.864601	,	0
49,46	,	89270	,	-23911	,	-22212	,	-11.607405	,	0
49,46	,	89287	,	-23903	,	-22211	,	-11.797539	,	0
49,46	,	89303	,	-23887	,	-22199	,	-10.9549885	,	0
49,46	,	89335	,	-23888	,	-22203	,	-8.786968	,	0
49,46	,	89351	,	-23862	,	-22187	,	-5.281202	,	2
49,46	,	89366	,	-23858	,	-22195	,	-0.5868225	,	5
49,46	,	89398	,	-23862	,	-22153	,	4.9331565	,	9
49,46	,	89414	,	-23835	,	-22172	,	10.661102	,	14
49,46	,	89446	,	-23845	,	-22155	,	16.04214	,	19
49,46	,	89463	,	-23835	,	-22160	,	20.650352	,	24
49,46	,	89479	,	-23836	,	-22163	,	24.088837	,	28
49,46	,	89511	,	-23842	,	-22161	,	26.060146	,	31
49,46	,	89526	,	-23839	,	-22153	,	26.385862	,	32
49,46	,	89543	,	-23833	,	-22146	,	25.12349	,	30
49,46	,	89574	,	-23828	,	-22144	,	22.681503	,	27
49,46	,	89590	,	-23822	,	-22147	,	19.671051	,	23
49,46	,	89622	,	-23825	,	-22164	,	16.642769	,	18
49,46	,	89639	,	-23826	,	-22125	,	13.891706	,	13
49,46	,	89655	,	-23819	,	-22145	,	11.491721	,	8
49,46	,	89686	,	-23818	,	-22158	,	9.490737	,	4
49,46	,	89702	,	-23826	,	-22144	,	7.9101343	,	1
49,46	,	89718	,	-23840	,	-22154	,	6.5533338	,	0
49,46	,	89750	,	-23836	,	-22148	,	5.053708	,	0
49,46	,	89766	,	-23836	,	-22135	,	3.2219894	,	0
49,46	,	89782	,	-23830	,	-22142	,	1.222691	,	0
49,46	,	89814	,	-23836	,	-22150	,	-0.6226733	,	0
49,46	,	89831	,	-23839	,	-22152	,	-2.111554	,	0
49,46	,	89862	,	-23838	,	-22163	,	-3.218458	,	0
49,46	,	89879	,	-23839	,	-22132	,	-3.972716	,	0
49,47	,	89895	,	-23833	,	-22154	,	-4.370349	,	0
49,47	,	89926	,	-23852	,	-22152	,	-4.4544477	,	0
49,47	,	89942	,	-23852	,	-22149	,	-4.460395	,	0
49,47	,	89958	,	-23853	,	-22148	,	-4.674076	,	0
49,47	,	89990	,	-23843	,	-22149	,	-5.117319	,	0
49,47	,	90006	,	-23857	,	-22156	,	-5.5851355	,	0
49,47	,	90038	,	-23853	,	-22153	,	-5.939924	,	0
49,47	,	90054	,	-23857	,	-22144	,	-6.166731	,	0
49,47	,	90070	,	-23860	,	-22147	,	-6.273497	,	0
49,47	,	90102	,	-23863	,	-22161	,	-6.305115	,	0
49,47	,	90118	,	-23862	,	-22140	,	-6.3187494	,	0
49,47	,	90134	,	-23865	,	-22158	,	-6.3153915	,	0
49,47	,	90166	,	-23869	,	-22158	,	-6.2844963	,	0
49,47	,	90182	,	-23878	,	-22163	,	-6.2940607	,	0
49,47	,	90198	,	-23885	,	-22154	,	-6.506675	,	0
49,47	,	90230	,	-23889	,	-22154	,	-7.08731	,	0
49,47	,	90246	,	-23878	,	-22162	,	-8.005441	,	0
49,47	,	90278	,	-23875	,	-22151	,	-8.912766	,	0
49,47	,	90294	,	-23861	,	-22153	,	-9.289047	,	0
49,47	,	90310	,	-23853	,	-22150	,	-8.661551	,	0
49,47	,	90342	,	-23840	,	-22147	,	-6.727323	,	0
49,47	,	90358	,	-23841	,	-22147	,	-3.4769607	,	1
49,47	,	90374	,	-23824	,	-22127	,	0.78145695	,	4
49,47	,	90406	,	-23832	,	-22131	,	5.5550847	,	8
49,47	,	90422	,	-23828	,	-22126	,	10.224184	,	12
49,47	,	90454	,	-23823	,	-22123	,	14.159242	,	16
49,47	,	90470	,	-23830	,	-22127	,	16.928099	,	19
49,47	,	90486	,	-23826	,	-22130	,	18.304707	,	21
49,47	,	90518	,	-23844	,	-22139	,	18.185783	,	22
49,47	,	90534	,	-23830	,	-22130	,	16.61127	,	22
49,47	,	90550	,	-23824	,	-22132	,	13.946102	,	21
49,47	,	90582	,	-23821	,	-22131	,	10.887189	,	18
49,47	,	90598	,	-23817	,	-22134	,	8.105988	,	14
49,47	,	90614	,	-23828	,	-22136	,	5.948484	,	10
49,47	,	90646	,	-23827	,	-22137	,	4.3842974	,	6
49,47	,	90662	,	-23831	,	-22132	,	3.1800244	,	3
49,47	,	90694	,	-23832	,	-22129	,	2.121068	,	1
49,47	,	90710	,	-23828	,	-22137	,	1.1068866	,	0
49,47	,	90726	,	-23832	,	-22131	,	0.15876734	,	0
49,47	,	90758	,	-23843	,	-22146	,	-0.7180972	,	0
49,47	,	90774	,	-23835	,	-22135	,	-1.6098944	,	0
49,47	,	90790	,	-23835	,	-22154	,	-2.5014067	,	0
49,47	,	90822	,	-23842	,	-22137	,	-3.2473814	,	0
49,47	,	90838	,	-23849	,	-22144	,	-3.8298752	,	0
49,47	,	90870	,	-23860	,	-22147	,	-4.4482093	,	0
49,47	,	90886	,	-23851	,	-22140	,	-5.298971	,	0
49,48	,	90902	,	-23857	,	-22153	,	-6.3336105	,	0
49,48	,	90934	,	-23855	,	-22153	,	-7.3235397	,	0
49,48	,	90950	,	-23859	,	-22156	,	-8.074553	,	0
49,48	,	90966	,	-23861	,	-22151	,	-8.505616	,	0
49,48	,	90998	,	-23867	,	-22160	,	-8.6533575	,	0
49,48	,	91014	,	-23862	,	-22155	,	-8.599268	,	0
49,48	,	91030	,	-23877	,	-22171	,	-8.415635	,	0
49,48	,	91062	,	-23875	,	-22152	,	-8.233233	,	0
49,48	,	91078	,	-23869	,	-22171	,	-8.138514	,	0
49,48	,	91110	,	-23884	,	-22174	,	-8.070161	,	0
49,48	,	91126	,	-23891	,	-22170	,	-8.059107	,	0
49,48	,	91142	,	-23873	,	-22163	,	-8.204229	,	0
49,48	,	91174	,	-23862	,	-22158	,	-8.260975	,	0
49,48	,	91190	,	-23858	,	-22147	,	-7.6948905	,	0
49,48	,	91206	,	-23863	,	-22148	,	-6.1983366	,	0
49,48	,	91238	,	-23846	,	-22159	,	-3.8652854	,	1
49,48	,	91254	,	-23836	,	-22149	,	-0.8741367	,	3
49,48	,	91286	,	-23830	,	-22160	,	2.6830113	,	5
49,48	,	91302	,	-23831	,	-22137	,	6.6023645	,	8
49,48	,	91318	,	-23833	,	-22147	,	10.43118	,	11
49,48	,	91350	,	-23822	,	-22151	,	13.65216	,	14
49,48	,	91366	,	-23824	,	-22146	,	15.961986	,	17
49,48	,	91382	,	-23839	,	-22154	,	17.19413	,	19
49,48	,	91414	,	-23829	,	-22157	,	17.161287	,	20
49,48	,	91430	,	-23827	,	-22154	,	15.899839	,	19
49,48	,	91461	,	-23832	,	-22146	,	13.771652	,	17
49,48	,	91478	,	-23832	,	-22148	,	11.169346	,	15
49,48	,	91494	,	-23830	,	-22149	,	8.3897085	,	12
49,48	,	91526	,	-23830	,	-22161	,	5.704306	,	9
49,48	,	91542	,	-23834	,	-22132	,	3.3252788	,	6
49,48	,	91558	,	-23845	,	-22149	,	1.2915668	,	3
49,48	,	91590	,	-23821	,	-22146	,	-0.42463827	,	1
49,48	,	91606	,	-23831	,	-22143	,	-1.6668584	,	0
49,48	,	91622	,	-23840	,	-22152	,	-2.3005226	,	0
49,48	,	91654	,	-23832	,	-22149	,	-2.489993	,	0
49,48	,	91670	,	-23836	,	-22147	,	-2.4523852	,	0
49,48	,	91702	,	-23855	,	-22154	,	-2.3707228	,	0
49,48	,	91718	,	-23841	,	-22147	,	-2.5028577	,	0
49,48	,	91734	,	-23845	,	-22152	,	-2.9309943	,	0
49,48	,	91766	,	-23849	,	-22173	,	-3.4960203	,	0
49,48	,	91782	,	-23844	,	-22144	,	-4.047785	,	0
49,48	,	91798	,	-23850	,	-22154	,	-4.4833956	,	0
49,48	,	91830	,	-23860	,	-22155	,	-4.788046	,	0
49,48	,	91846	,	-23862	,	-22149	,	-5.1190233	,	0
49,48	,	91877	,	-23868	,	-22166	,	-5.656864	,	0
49,49	,	91894	,	-23876	,	-22160	,	-6.490799	,	0
49,49	,	91910	,	-23877	,	-22165	,	-7.639268	,	0
49,49	,	91942	,	-23882	,	-22153	,	-9.015486	,	0
49,49	,	91958	,	-23878	,	-22156	,	-10.409076	,	0
49,49	,	91974	,	-23878	,	-22167	,	-11.531731	,	0
49,49	,	92006	,	-23895	,	-22178	,	-12.193197	,	0
49,49	,	92021	,	-23886	,	-22158	,	-12.45215	,	0
49,49	,	92038	,	-23881	,	-22162	,	-12.37466	,	0
49,49	,	92070	,	-23872	,	-22156	,	-11.788537	,	0
49,49	,	92086	,	-23855	,	-22151	,	-10.373377	,	0
49,49	,	92118	,	-23843	,	-22147	,	-7.805401	,	1
49,49	,	92134	,	-23838	,	-22137	,	-3.952104	,	3
49,49	,	92150	,	-23845	,	-22151	,	0.8800249	,	6
49,49	,	92182	,	-23831	,	-22140	,	6.0020494	,	10
49,49	,	92198	,	-23832	,	-22135	,	10.7392645	,	15
49,49	,	92213	,	-23825	,	-22132	,	14.659833	,	19
49,49	,	92246	,	-23812	,	-22153	,	17.579405	,	22
49,49	,	92262	,	-23820	,	-22129	,	19.518482	,	24
49,49	,	92293	,	-23818	,	-22130	,	20.494368	,	25
49,49	,	92310	,	-23826	,	-22133	,	20.413252	,	24
49,49	,	92325	,	-23821	,	-22132	,	19.219452	,	22
49,49	,	92357	,	-23814	,	-22129	,	17.085262	,	19
49,49	,	92373	,	-23810	,	-22132	,	14.456026	,	15
49,49	,	92389	,	-23807	,	-22125	,	11.853518	,	10
49,49	,	92422	,	-23819	,	-22132	,	9.592063	,	6
49,49	,	92438	,	-23823	,	-22126	,	7.63354	,	3
49,49	,	92454	,	-23811	,	-22122	,	5.7992306	,	1
49,49	,	92485	,	-23810	,	-22132	,	4.123762	,	0
49,49	,	92501	,	-23810	,	-22122	,	2.8107946	,	0
49,49	,	92533	,	-23813	,	-22118	,	1.9548726	,	0
49,49	,	92549	,	-23817	,	-22134	,	1.4549367	,	0
49,49	,	92565	,	-23815	,	-22126	,	1.1185098	,	0
49,49	,	92597	,	-23814	,	-22134	,	0.81957465	,	0
49,49	,	92613	,	-23816	,	-22130	,	0.53692114	,	0
49,49	,	92629	,	-23836	,	-22135	,	0.1773234	,	0
49,49	,	92662	,	-23832	,	-22142	,	-0.5228461	,	0
49,49	,	92677	,	-23846	,	-22136	,	-1.7853667	,	0
49,49	,	92709	,	-23836	,	-22147	,	-3.583986	,	0
49,49	,	92725	,	-23821	,	-22136	,	-5.5403566	,	0
49,49	,	92742	,	-23842	,	-22144	,	-7.084931	,	0
49,49	,	92773	,	-23845	,	-22148	,	-7.999301	,	0
49,49	,	92789	,	-23841	,	-22140	,	-8.473702	,	0
49,49	,	92806	,	-23854	,	-22146	,	-8.702578	,	0
49,49	,	92837	,	-23849	,	-22143	,	-8.816931	,	0
49,49	,	92853	,	-23862	,	-22151	,	-8.937404	,	0
49,49	,	92869	,	-23858	,	-22146	,	-9.143509	,	0
49,50	,	92901	,	-23861	,	-22143	,	-9.429821	,	0
49,50	,	92917	,	-23865	,	-22155	,	-9.7021675	,	0
49,50	,	92949	,	-23875	,	-22163	,	-9.927613	,	0
49,50	,	92965	,	-23864	,	-22140	,	-10.137718	,	0
49,50	,	92982	,	-23885	,	-22155	,	-10.309444	,	0
49,50	,	93013	,	-23857	,	-22154	,	-10.364794	,	0
49,50	,	93029	,	-23858	,	-22145	,	-10.056908	,	0
49,50	,	93045	,	-23850	,	-22137	,	-9.018938	,	0
49,50	,	93077	,	-23837	,	-22129	,	-7.034194	,	1
49,50	,	93093	,	-23826	,	-22132	,	-4.037527	,	2
49,50	,	93125	,	-23828	,	-22131	,	-0.12794971	,	4
49,50	,	93141	,	-23821	,	-22130	,	4.3021	,	7
49,50	,	93157	,	-23819	,	-22127	,	8.697111	,	11
49,50	,	93189	,	-23816	,	-22128	,	12.564341	,	15
49,50	,	93205	,	-23814	,	-22110	,	15.549688	,	18
49,50	,	93221	,	-23813	,	-22119	,	17.451603	,	20
49,50	,	93254	,	-23802	,	-22123	,	18.270258	,	21
49,50	,	93269	,	-23813	,	-22117	,	18.169231	,	20
49,50	,	93285	,	-23806	,	-22127	,	17.299492	,	19
49,50	,	93317	,	-23809	,	-22125	,	15.774712	,	17
49,50	,	93333	,	-23807	,	-22118	,	13.766403	,	14
49,50	,	93365	,	-23807	,	-22124	,	11.485132	,	10
49,50	,	93381	,	-23806	,	-22118	,	9.141383	,	6
49,50	,	93397	,	-23798	,	-22118	,	6.958146	,	3
49,50	,	93429	,	-23802	,	-22137	,	5.1555862	,	1
49,50	,	93445	,	-23811	,	-22108	,	3.798306	,	0
49,50	,	93461	,	-23810	,	-22128	,	2.7213962	,	0
49,50	,	93493	,	-23819	,	-22131	,	1.69453	,	0
49,50	,	93509	,	-23821	,	-22127	,	0.5347482	,	0
49,50	,	93541	,	-23817	,	-22134	,	-0.82770574	,	0
49,50	,	93557	,	-23822	,	-22135	,	-2.2804039	,	0
49,50	,	93573	,	-23821	,	-22132	,	-3.6371312	,	0
49,50	,	93605	,	-23823	,	-22130	,	-4.7571216	,	0
49,50	,	93621	,	-23837	,	-22138	,	-5.6132545	,	0
49,50	,	93637	,	-23823	,	-22133	,	-6.2929435	,	0
49,50	,	93669	,	-23829	,	-22149	,	-6.7955923	,	0
49,50	,	93685	,	-23833	,	-22118	,	-7.024623	,	0
49,50	,	93701	,	-23849	,	-22141	,	-7.070611	,	0
49,50	,	93733	,	-23851	,	-22148	,	-7.250309	,	0
49,50	,	93749	,	-23853	,	-22145	,	-7.809828	,	0
49,50	,	93781	,	-23853	,	-22147	,	-8.708319	,	0
49,50	,	93797	,	-23861	,	-22152	,	-9.731325	,	0
49,50	,	93813	,	-23865	,	-22156	,	-10.717005	,	0
49,50	,	93845	,	-23854	,	-22158	,	-11.543938	,	0
49,50	,	93861	,	-23861	,	-22158	,	-12.005047	,	0
49,50	,	93877	,	-23874	,	-22160	,	-11.990156	,	0
49,51	,	93909	,	-23874	,	-22173	,	-11.685911	,	0
49,51	,	93925	,	-23885	,	-22149	,	-11.391623	,	0
49,51	,	93957	,	-23882	,	-22162	,	-11.295044	,	0
49,51	,	93973	,	-23875	,	-22160	,	-11.351544	,	0
49,51	,	93989	,	-23862	,	-22157	,	-11.214789	,	0
49,51	,	94021	,	-23849	,	-22146	,	-10.361612	,	0
49,51	,	94037	,	-23844	,	-22133	,	-8.365035	,	0
49,51	,	94069	,	-23852	,	-22145	,	-5.2022147	,	1
49,51	,	94085	,	-23847	,	-22140	,	-1.3496985	,	4
49,51	,	94101	,	-23832	,	-22137	,	2.5941672	,	7
49,51	,	94133	,	-23836	,	-22133	,	6.2821484	,	10
49,51	,	94149	,	-23827	,	-22152	,	9.524603	,	13
49,51	,	94165	,	-23824	,	-22128	,	12.166292	,	16
49,51	,	94197	,	-23833	,	-22137	,	14.074891	,	18
49,51	,	94213	,	-23833	,	-22140	,	15.052706	,	19
49,51	,	94229	,	-23830	,	-22129	,	14.942329	,	19
49,51	,	94261	,	-23837	,	-22128	,	13.802935	,	18
49,51	,	94277	,	-23827	,	-22130	,	11.876957	,	15
49,51	,	94309	,	-23824	,	-22125	,	9.554958	,	12
49,51	,	94325	,	-23819	,	-22133	,	7.3175387	,	9
49,51	,	94341	,	-23813	,	-22142	,	5.5791416	,	6
49,51	,	94373	,	-23820	,	-22124	,	4.547788	,	3
49,51	,	94389	,	-23826	,	-22122	,	4.103878	,	1
49,51	,	94405	,	-23821	,	-22129	,	3.8977125	,	0
49,51	,	94437	,	-23822	,	-22122	,	3.6586204	,	0
49,51	,	94453	,	-23835	,	-22129	,	3.2456658	,	0
49,51	,	94485	,	-23818	,	-22121	,	2.5739708	,	0
49,51	,	94500	,	-23838	,	-22139	,	1.6799357	,	0
49,51	,	94516	,	-23834	,	-22126	,	0.60684633	,	0
49,51	,	94549	,	-23832	,	-22116	,	-0.6369835	,	0
49,51	,	94565	,	-23831	,	-22126	,	-1.8940275	,	0
49,51	,	94581	,	-23849	,	-22126	,	-3.002567	,	0
49,51	,	94613	,	-23834	,	-22124	,	-3.9851053	,	0
49,51	,	94629	,	-23845	,	-22129	,	-4.852149	,	0
49,51	,	94645	,	-23852	,	-22130	,	-5.573384	,	0
49,51	,	94677	,	-23864	,	-22139	,	-6.290381	,	0
49,51	,	94693	,	-23861	,	-22140	,	-7.2241564	,	0
49,51	,	94724	,	-23856	,	-22138	,	-8.365365	,	0
49,51	,	94741	,	-23853	,	-22129	,	-9.395484	,	0
49,51	,	94757	,	-23869	,	-22152	,	-10.003424	,	0
49,51	,	94789	,	-23868	,	-22148	,	-10.196076	,	0
49,51	,	94805	,	-23864	,	-22147	,	-10.124883	,	0
49,51	,	94821	,	-23861	,	-22154	,	-9.787513	,	0
49,51	,	94852	,	-23876	,	-22145	,	-9.153358	,	0
49,51	,	94869	,	-23877	,	-22151	,	-8.409265	,	0
49,52	,	94900	,	-23865	,	-22158	,	-7.7665195	,	0
49,52	,	94916	,	-23857	,	-22144	,	-7.111232	,	0
49,52	,	94932	,	-23842	,	-22139	,	-6.0449257	,	0
49,52	,	94965	,	-23848	,	-22135	,	-4.2285795	,	1
49,52	,	94981	,	-23837	,	-22142	,	-1.6547091	,	2
49,52	,	94997	,	-23837	,	-22134	,	1.4079776	,	4
49,52	,	95029	,	-23831	,	-22136	,	4.6192775	,	7
49,52	,	95045	,	-23826	,	-22131	,	7.671364	,	10
49,52	,	95060	,	-23827	,	-22148	,	10.322891	,	13
49,52	,	95092	,	-23826	,	-22113	,	12.360762	,	15
49,52	,	95108	,	-23821	,	-22127	,	13.623122	,	17
49,52	,	95141	,	-23832	,	-22128	,	14.049053	,	18
49,52	,	95157	,	-23831	,	-22122	,	13.601565	,	17
49,52	,	95173	,	-23821	,	-22120	,	12.338033	,	16
49,52	,	95204	,	-23821	,	-22128	,	10.565689	,	14
49,52	,	95220	,	-23818	,	-22130	,	8.701948	,	11
49,52	,	95236	,	-23824	,	-22118	,	7.0248775	,	8
49,52	,	95268	,	-23814	,	-22125	,	5.6425867	,	5
49,52	,	95284	,	-23814	,	-22126	,	4.6241107	,	3
49,52	,	95317	,	-23808	,	-22136	,	4.046322	,	1
49,52	,	95333	,	-23821	,	-22117	,	3.873264	,	0
49,52	,	95349	,	-23829	,	-22134	,	3.8212419	,	0
49,52	,	95380	,	-23829	,	-22119	,	3.4708676	,	0
49,52	,	95396	,	-23823	,	-22133	,	2.6163187	,	0
49,52	,	95412	,	-23823	,	-22130	,	1.4130342	,	0
49,52	,	95444	,	-23837	,	-22138	,	0.10877335	,	0
49,52	,	95460	,	-23837	,	-22134	,	-1.2409801	,	0
49,52	,	95477	,	-23844	,	-22126	,	-2.6986551	,	0
49,52	,	95509	,	-23850	,	-22139	,	-4.2906475	,	0
49,52	,	95525	,	-23846	,	-22131	,	-5.9680185	,	0
49,52	,	95557	,	-23856	,	-22159	,	-7.5862246	,	0
49,52	,	95572	,	-23852	,	-22118	,	-8.983646	,	0
49,52	,	95588	,	-23868	,	-22143	,	-10.095282	,	0
49,52	,	95620	,	-23858	,	-22134	,	-10.947344	,	0
49,52	,	95636	,	-23855	,	-22147	,	-11.480308	,	0
49,52	,	95652	,	-23876	,	-22147	,	-11.585545	,	0
49,52	,	95685	,	-23873	,	-22148	,	-11.40356	,	0
49,52	,	95700	,	-23872	,	-22147	,	-11.177727	,	0
49,52	,	95732	,	-23870	,	-22147	,	-10.919899	,	0
49,52	,	95748	,	-23874	,	-22152	,	-10.503192	,	0
49,52	,	95764	,	-23885	,	-22160	,	-9.92235	,	0
49,52	,	95796	,	-23886	,	-22169	,	-9.359762	,	0
49,52	,	95812	,	-23883	,	-22133	,	-8.976029	,	0
49,52	,	95828	,	-23867	,	-22140	,	-8.647314	,	0
49,52	,	95860	,	-23854	,	-22136	,	-7.9269	,	0
49,52	,	95876	,	-23843	,	-22140	,	-6.2789483	,	0
49,53	,	95892	,	-23835	,	-22149	,	-3.4004912	,	1
49,53	,	95924	,	-23840	,	-22139	,	0.5715327	,	3
49,53	,	95940	,	-23837	,	-22130	,	5.058297	,	6
49,53	,	95972	,	-23821	,	-22124	,	9.382883	,	10
49,53	,	95988	,	-23830	,	-22124	,	13.111281	,	14
49,53	,	96004	,	-23819	,	-22127	,	15.982399	,	17
49,53	,	96036	,	-23815	,	-22133	,	17.857744	,	19
49,53	,	96052	,	-23821	,	-22099	,	18.755936	,	20
49,53	,	96068	,	-23819	,	-22124	,	18.708744	,	20
49,53	,	96100	,	-23824	,	-22114	,	17.7266	,	19
49,53	,	96116	,	-23820	,	-22126	,	15.90559	,	17
49,53	,	96148	,	-23816	,	-22109	,	13.49687	,	14
49,53	,	96164	,	-23818	,	-22114	,	10.867595	,	10
49,53	,	96180	,	-23820	,	-22124	,	8.324659	,	6
49,53	,	96212	,	-23801	,	-22113	,	6.1078577	,	3
49,53	,	96228	,	-23807	,	-22118	,	4.5117536	,	1
49,53	,	96244	,	-23810	,	-22119	,	3.684793	,	0
49,53	,	96276	,	-23814	,	-22117	,	3.4182184	,	0
49,53	,	96292	,	-23819	,	-22112	,	3.3227165	,	0
49,53	,	96308	,	-23818	,	-22115	,	3.0742733	,	0
49,53	,	96340	,	-23823	,	-22118	,	2.5102553	,	0
49,53	,	96356	,	-23819	,	-22122	,	1.6280997	,	0
49,53	,	96388	,	-23820	,	-22122	,	0.56045675	,	0
49,53	,	96404	,	-23824	,	-22114	,	-0.509158	,	0
49,53	,	96420	,	-23838	,	-22125	,	-1.5398034	,	0
49,53	,	96452	,	-23830	,	-22119	,	-2.6465642	,	0
49,53	,	96468	,	-23830	,	-22127	,	-3.8276615	,	0
49,53	,	96484	,	-23838	,	-22126	,	-4.9149847	,	0
49,53	,	96516	,	-23850	,	-22123	,	-5.8719883	,	0
49,53	,	96532	,	-23848	,	-22125	,	-6.8542757	,	0
49,53	,	96564	,	-23855	,	-22136	,	-7.9551315	,	0
49,53	,	96580	,	-23855	,	-22129	,	-9.107544	,	0
49,53	,	96596	,	-23863	,	-22140	,	-10.198349	,	0
49,53	,	96628	,	-23858	,	-22140	,	-11.124902	,	0
49,53	,	96644	,	-23855	,	-22136	,	-11.723623	,	0
49,53	,	96660	,	-23863	,	-22143	,	-11.811632	,	0
49,53	,	96692	,	-23869	,	-22145	,	-11.406073	,	0
49,53	,	96708	,	-23867	,	-22151	,	-10.728624	,	0
49,53	,	96724	,	-23873	,	-22147	,	-9.982037	,	0
49,53	,	96756	,	-23884	,	-22142	,	-9.331088	,	0
49,53	,	96772	,	-23875	,	-22154	,	-8.931245	,	0
49,53	,	96804	,	-23875	,	-22141	,	-8.739557	,	0
49,53	,	96820	,	-23860	,	-22134	,	-8.443289	,	0
49,53	,	96836	,	-23861	,	-22139	,	-7.6492877	,	0
49,53	,	96868	,	-23834	,	-22139	,	-6.0303054	,	0
49,53	,	96884	,	-23828	,	-22131	,	-3.3187728	,	1
49,54	,	96900	,	-23838	,	-22125	,	0.48629618	,	3
49,54	,	96932	,	-23828	,	-22135	,	4.8779154	,	6
49,54	,	96948	,	-23824	,	-22120	,	9.164785	,	10
49,54	,	96980	,	-23817	,	-22130	,	12.888145	,	14
49,54	,	96996	,	-23820	,	-22114	,	15.797914	,	17
49,54	,	97012	,	-23824	,	-22116	,	17.674515	,	19
49,54	,	97044	,	-23806	,	-22117	,	18.392387	,	20
49,54	,	97060	,	-23820	,	-22124	,	18.082851	,	20
49,54	,	97076	,	-23813	,	-22111	,	16.970907	,	19
49,54	,	97108	,	-23816	,	-22110	,	15.220474	,	17
49,54	,	97124	,	-23808	,	-22114	,	13.051387	,	14
49,54	,	97156	,	-23805	,	-22119	,	10.79616	,	10
49,54	,	97172	,	-23815	,	-22108	,	8.744532	,	6
49,54	,	97188	,	-23811	,	-22110	,	6.959459	,	3
49,54	,	97220	,	-23808	,	-22120	,	5.390224	,	1
49,54	,	97236	,	-23815	,	-22091	,	4.0379133	,	0
49,54	,	97252	,	-23802	,	-22115	,	2.9302344	,	0
49,54	,	97284	,	-23814	,	-22120	,	2.1111717	,	0
49,54	,	97300	,	-23811	,	-22115	,	1.5612382	,	0
49,54	,	97316	,	-23811	,	-22111	,	1.1679087	,	0
49,54	,	97348	,	-23820	,	-22118	,	0.8120141	,	0
49,54	,	97364	,	-23819	,	-22120	,	0.35422575	,	0
49,54	,	97396	,	-23827	,	-22120	,	-0.33524668	,	0
49,54	,	97412	,	-23832	,	-22118	,	-1.3306344	,	0
49,54	,	97428	,	-23816	,	-22119	,	-2.5777493	,	0
49,54	,	97460	,	-23841	,	-22141	,	-3.868963	,	0
49,54	,	97476	,	-23821	,	-22104	,	-5.03973	,	0
49,54	,	97492	,	-23839	,	-22124	,	-5.99971	,	0
49,54	,	97524	,	-23845	,	-22125	,	-6.7424	,	0
49,54	,	97540	,	-23849	,	-22121	,	-7.4416895	,	0
49,54	,	97571	,	-23842	,	-22125	,	-8.217657	,	0
49,54	,	97588	,	-23847	,	-22126	,	-8.940433	,	0
49,54	,	97604	,	-23844	,	-22133	,	-9.392918	,	0
49,54	,	97636	,	-23847	,	-22119	,	-9.442656	,	0
49,54	,	97652	,	-23843	,	-22135	,	-9.055402	,	0
49,54	,	97668	,	-23862	,	-22133	,	-8.342383	,	0
49,54	,	97699	,	-23849	,	-22144	,	-7.5648847	,	0
49,54	,	97715	,	-23827	,	-22121	,	-6.7616286	,	0
49,54	,	97731	,	-23838	,	-22118	,	-5.5867147	,	0
49,54	,	97764	,	-23798	,	-22121	,	-3.6589773	,	1
49,54	,	97780	,	-23802	,	-22112	,	-0.68452954	,	2
49,54	,	97811	,	-23818	,	-22103	,	3.2856092	,	4
49,54	,	97827	,	-23797	,	-22107	,	7.594158	,	7
49,54	,	97843	,	-23791	,	-22103	,	11.565005	,	11
49,54	,	97876	,	-23787	,	-22106	,	14.938389	,	14
49,55	,	97892	,	-23781	,	-22106	,	17.625235	,	17
49,55	,	97908	,	-23796	,	-22097	,	19.476046	,	19
49,55	,	97940	,	-23795	,	-22116	,	20.210331	,	20
49,55	,	97956	,	-23793	,	-22087	,	19.607937	,	19
49,55	,	97987	,	-23794	,	-22101	,	17.766823	,	18
49,55	,	98003	,	-23800	,	-22104	,	15.006845	,	16
49,55	,	98019	,	-23785	,	-22090	,	11.734551	,	13
49,55	,	98052	,	-23776	,	-22091	,	8.528694	,	9
49,55	,	98068	,	-23784	,	-22093	,	5.9840546	,	6
49,55	,	98084	,	-23786	,	-22094	,	4.3047132	,	3
49,55	,	98115	,	-23780	,	-22098	,	3.31813	,	1
49,55	,	98132	,	-23781	,	-22093	,	2.822259	,	0
49,55	,	98147	,	-23783	,	-22098	,	2.6669984	,	0
49,55	,	98180	,	-23784	,	-22105	,	2.6695776	,	0
49,55	,	98195	,	-23796	,	-22103	,	2.600964	,	0
49,55	,	98227	,	-23785	,	-22107	,	2.2505379	,	0
49,55	,	98243	,	-23802	,	-22109	,	1.5307647	,	0
49,55	,	98259	,	-23809	,	-22109	,	0.38446057	,	0
49,55	,	98292	,	-23797	,	-22108	,	-1.2176335	,	0
49,55	,	98307	,	-23809	,	-22107	,	-3.0709062	,	0
49,55	,	98323	,	-23808	,	-22111	,	-4.8779516	,	0
49,55	,	98355	,	-23818	,	-22110	,	-6.496057	,	0
49,55	,	98371	,	-23819	,	-22105	,	-7.9122486	,	0
49,55	,	98403	,	-23824	,	-22120	,	-9.145821	,	0
49,55	,	98420	,	-23829	,	-22098	,	-10.206441	,	0
49,55	,	98436	,	-23825	,	-22109	,	-11.069999	,	0
49,55	,	98467	,	-23819	,	-22120	,	-11.594299	,	0
49,55	,	98483	,	-23831	,	-22123	,	-11.597061	,	0
49,55	,	98499	,	-23837	,	-22116	,	-11.129498	,	0
49,55	,	98531	,	-23836	,	-22123	,	-10.465513	,	0
49,55	,	98547	,	-23848	,	-22120	,	-9.861404	,	0
49,55	,	98563	,	-23845	,	-22125	,	-9.48256	,	0
49,55	,	98595	,	-23848	,	-22119	,	-9.370538	,	0
49,55	,	98611	,	-23823	,	-22112	,	-9.300173	,	0
49,55	,	98643	,	-23814	,	-22125	,	-8.722288	,	0
49,55	,	98659	,	-23804	,	-22092	,	-7.0449195	,	0
49,55	,	98675	,	-23794	,	-22110	,	-4.013416	,	1
49,55	,	98707	,	-23785	,	-22090	,	0.23726225	,	4
49,55	,	98723	,	-23771	,	-22095	,	5.348791	,	8
49,55	,	98739	,	-23772	,	-22097	,	10.846605	,	13
49,55	,	98771	,	-23778	,	-22089	,	16.086538	,	18
49,55	,	98787	,	-23773	,	-22092	,	20.30468	,	23
49,55	,	98819	,	-23761	,	-22089	,	23.000225	,	27
49,55	,	98835	,	-23745	,	-22085	,	24.25349	,	29
49,55	,	98851	,	-23760	,	-22086	,	24.480465	,	30
49,55	,	98883	,	-23757	,	-22092	,	23.900068	,	29
49,56	,	98899	,	-23762	,	-22067	,	22.467861	,	26
49,56	,	98915	,	-23755	,	-22080	,	20.203552	,	22
49,56	,	98947	,	-23767	,	-22083	,	17.289963	,	17
49,56	,	98963	,	-23749	,	-22072	,	14.002726	,	12
49,56	,	98995	,	-23756	,	-22074	,	10.729766	,	7
49,56	,	99011	,	-23743	,	-22078	,	7.893648	,	3
49,56	,	99027	,	-23748	,	-22079	,	5.7884145	,	1
49,56	,	99059	,	-23743	,	-22073	,	4.5045567	,	0
49,56	,	99075	,	-23754	,	-22076	,	3.8994267	,	0
49,56	,	99091	,	-23759	,	-22074	,	3.6158106	,	0
49,56	,	99123	,	-23748	,	-22096	,	3.287266	,	0
49,56	,	99139	,	-23752	,	-22059	,	2.809869	,	0
49,56	,	99155	,	-23746	,	-22076	,	2.2991157	,	0
49,56	,	99187	,	-23780	,	-22082	,	1.7289122	,	0
49,56	,	99203	,	-23758	,	-22088	,	0.8104203	,	0
49,56	,	99235	,	-23768	,	-22090	,	-0.58465886	,	0
49,56	,	99251	,	-23755	,	-22088	,	-2.1732132	,	0
49,56	,	99267	,	-23781	,	-22090	,	-3.627232	,	0
49,56	,	99299	,	-23766	,	-22099	,	-4.876098	,	0
49,56	,	99315	,	-23762	,	-22095	,	-5.8756537	,	0
49,56	,	99331	,	-23777	,	-22091	,	-6.4705625	,	0
49,56	,	99363	,	-23772	,	-22107	,	-6.665991	,	0
49,56	,	99379	,	-23783	,	-22084	,	-6.6483183	,	0
49,56	,	99411	,	-23778	,	-22103	,	-6.586999	,	0
49,56	,	99427	,	-23789	,	-22103	,	-6.5906835	,	0
49,56	,	99443	,	-23812	,	-22102	,	-6.847099	,	0
49,56	,	99475	,	-23803	,	-22103	,	-7.659672	,	0
49,56	,	99491	,	-23802	,	-22098	,	-9.058599	,	0
49,56	,	99507	,	-23802	,	-22100	,	-10.632802	,	0
49,56	,	99539	,	-23782	,	-22105	,	-11.796768	,	0
49,56	,	99555	,	-23783	,	-22092	,	-11.977097	,	0
49,56	,	99571	,	-23767	,	-22091	,	-10.789162	,	0
49,56	,	99603	,	-23759	,	-22099	,	-8.134047	,	1
49,56	,	99619	,	-23740	,	-22065	,	-4.09221	,	3
49,56	,	99651	,	-23739	,	-22072	,	1.1002932	,	7
49,56	,	99667	,	-23731	,	-22074	,	6.966453	,	12
49,56	,	99683	,	-23725	,	-22076	,	12.853078	,	17
49,56	,	99715	,	-23720	,	-22066	,	18.145498	,	22
49,56	,	99731	,	-23716	,	-22057	,	22.390228	,	27
49,56	,	99747	,	-23716	,	-22060	,	25.292494	,	31
49,56	,	99779	,	-23721	,	-22071	,	26.664375	,	33
49,56	,	99795	,	-23723	,	-22060	,	26.398216	,	33
49,56	,	99827	,	-23714	,	-22072	,	24.586891	,	31
49,56	,	99843	,	-23730	,	-22084	,	21.56306	,	27
49,56	,	99859	,	-23712	,	-22058	,	17.754509	,	22
49,57	,	99891	,	-23723	,	-22066	,	13.652298	,	17
49,57	,	99907	,	-23710	,	-22058	,	9.766496	,	12
49,57	,	99923	,	-23723	,	-22062	,	6.4543333	,	7
49,57	,	99955	,	-23697	,	-22060	,	3.929892	,	3
49,57	,	99971	,	-23721	,	-22057	,	2.3326087	,	1
49,57	,	99987	,	-23706	,	-22060	,	1.5881042	,	0
49,57	,	100019	,	-23721	,	-22056	,	1.3982677	,	0
49,57	,	100035	,	-23725	,	-22064	,	1.3771567	,	0
49,57	,	100067	,	-23708	,	-22058	,	1.2155323	,	0
49,57	,	100082	,	-23722	,	-22070	,	0.88473994	,	0
49,57	,	100098	,	-23715	,	-22061	,	0.49091494	,	0
49,57	,	100131	,	-23718	,	-22067	,	0.08678424	,	0
49,57	,	100147	,	-23730	,	-22070	,	-0.3343461	,	0
49,57	,	100163	,	-23726	,	-22069	,	-0.8894445	,	0
49,57	,	100195	,	-23728	,	-22067	,	-1.6596525	,	0
49,57	,	100211	,	-23742	,	-22075	,	-2.615738	,	0
49,57	,	100242	,	-23742	,	-22078	,	-3.783385	,	0
49,57	,	100258	,	-23742	,	-22071	,	-5.1730275	,	0
49,57	,	100274	,	-23743	,	-22085	,	-6.620842	,	0
49,57	,	100307	,	-23740	,	-22069	,	-7.8651104	,	0
49,57	,	100323	,	-23742	,	-22072	,	-8.672466	,	0
49,57	,	100339	,	-23740	,	-22078	,	-8.905277	,	0
49,57	,	100371	,	-23760	,	-22088	,	-8.637176	,	0
49,57	,	100387	,	-23760	,	-22082	,	-8.222195	,	0
49,57	,	100402	,	-23754	,	-22081	,	-8.001367	,	0
49,57	,	100434	,	-23742	,	-22074	,	-7.903101	,	0
49,57	,	100450	,	-23716	,	-22068	,	-7.4074206	,	0
49,57	,	100483	,	-23719	,	-22061	,	-5.870371	,	0
49,57	,	100499	,	-23716	,	-22068	,	-3.0502493	,	1
49,57	,	100515	,	-23713	,	-22058	,	0.69975877	,	3
49,57	,	100547	,	-23719	,	-22063	,	4.72229	,	6
49,57	,	100562	,	-23692	,	-22048	,	8.446337	,	10
49,57	,	100579	,	-23704	,	-22061	,	11.635168	,	13
49,57	,	100611	,	-23713	,	-22053	,	14.123894	,	16
49,57	,	100627	,	-23707	,	-22053	,	15.562883	,	18
49,57	,	100658	,	-23711	,	-22057	,	15.726587	,	19
49,57	,	100675	,	-23723	,	-22042	,	14.641663	,	19
49,57	,	100691	,	-23694	,	-22047	,	12.5404215	,	18
49,57	,	100723	,	-23711	,	-22052	,	9.965347	,	16
49,57	,	100739	,	-23714	,	-22047	,	7.429523	,	13
49,57	,	100754	,	-23694	,	-22045	,	5.1594133	,	9
49,57	,	100787	,	-23690	,	-22060	,	3.4464536	,	6
49,57	,	100802	,	-23705	,	-22033	,	2.5722165	,	3
49,57	,	100819	,	-23696	,	-22039	,	2.4134464	,	1
49,57	,	100850	,	-23705	,	-22049	,	2.608029	,	0
49,57	,	100867	,	-23710	,	-22056	,	2.8049173	,	0
49,58	,	100898	,	-23716	,	-22048	,	2.6652193	,	0
49,58	,	100915	,	-23704	,	-22051	,	2.015293	,	0
49,58	,	100931	,	-23711	,	-22051	,	0.9949622	,	0
49,58	,	100962	,	-23724	,	-22055	,	-0.19667387	,	0
49,58	,	100978	,	-23711	,	-22054	,	-1.5131258	,	0
49,58	,	100994	,	-23700	,	-22055	,	-2.7694054	,	0
49,58	,	101026	,	-23727	,	-22070	,	-3.643187	,	0
49,58	,	101042	,	-23706	,	-22042	,	-4.0845475	,	0
49,58	,	101075	,	-23710	,	-22056	,	-4.169258	,	0
49,58	,	101091	,	-23717	,	-22061	,	-3.8949525	,	0
49,58	,	101107	,	-23730	,	-22067	,	-3.454341	,	0
49,58	,	101138	,	-23731	,	-22066	,	-3.251381	,	0
49,58	,	101154	,	-23732	,	-22063	,	-3.5594337	,	0
49,58	,	101170	,	-23738	,	-22065	,	-4.3746243	,	0
49,58	,	101202	,	-23735	,	-22069	,	-5.5294747	,	0
49,58	,	101218	,	-23733	,	-22061	,	-6.7544637	,	0
49,58	,	101234	,	-23740	,	-22063	,	-7.750086	,	0
49,58	,	101267	,	-23752	,	-22090	,	-8.42258	,	0
49,58	,	101283	,	-23747	,	-22062	,	-8.917513	,	0
49,58	,	101314	,	-23744	,	-22059	,	-9.306741	,	0
49,58	,	101330	,	-23725	,	-22056	,	-9.356171	,	0
49,58	,	101346	,	-23694	,	-22053	,	-8.49473	,	0
49,58	,	101378	,	-23696	,	-22044	,	-6.0563602	,	0
49,58	,	101394	,	-23693	,	-22050	,	-1.8862662	,	2
49,58	,	101410	,	-23701	,	-22044	,	3.3700213	,	6
49,58	,	101442	,	-23695	,	-22044	,	8.661629	,	11
49,58	,	101458	,	-23682	,	-22035	,	13.150887	,	16
49,58	,	101490	,	-23674	,	-22040	,	16.552505	,	20
49,58	,	101506	,	-23685	,	-22050	,	18.889713	,	23
49,58	,	101522	,	-23682	,	-22024	,	20.090881	,	25
49,58	,	101554	,	-23675	,	-22034	,	20.081537	,	26
49,58	,	101570	,	-23683	,	-22043	,	19.006195	,	26
49,58	,	101586	,	-23680	,	-22027	,	17.103685	,	24
49,58	,	101618	,	-23671	,	-22037	,	14.655203	,	20
49,58	,	101634	,	-23682	,	-22044	,	12.021157	,	15
49,58	,	101666	,	-23686	,	-22041	,	9.418063	,	10
49,58	,	101682	,	-23685	,	-22044	,	6.8503556	,	6
49,58	,	101698	,	-23673	,	-22039	,	4.4017067	,	3
49,58	,	101730	,	-23669	,	-22046	,	2.387794	,	1
49,58	,	101746	,	-23702	,	-22046	,	0.98693895	,	0
49,58	,	101762	,	-23691	,	-22044	,	-0.11199093	,	0
49,58	,	101794	,	-23681	,	-22049	,	-1.2385465	,	0
49,58	,	101810	,	-23676	,	-22039	,	-2.223869	,	0
49,58	,	101826	,	-23697	,	-22041	,	-2.79109	,	0
49,58	,	101858	,	-23680	,	-22052	,	-2.9872391	,	0
49,58	,	101874	,	-23698	,	-22050	,	-2.999154	,	0
49,59	,	101906	,	-23705	,	-22046	,	-3.0527773	,	0
49,59	,	101922	,	-23689	,	-22055	,	-3.366964	,	0
49,59	,	101938	,	-23702	,	-22049	,	-3.8958116	,	0
49,59	,	101970	,	-23717	,	-22058	,	-4.530945	,	0
49,59	,	101986	,	-23730	,	-22057	,	-5.473425	,	0
49,59	,	102002	,	-23713	,	-22058	,	-6.93551	,	0
49,59	,	102034	,	-23734	,	-22060	,	-8.74931	,	0
49,59	,	102050	,	-23733	,	-22069	,	-10.618096	,	0
49,59	,	102082	,	-23723	,	-22070	,	-12.311089	,	0
49,59	,	102098	,	-23715	,	-22066	,	-13.435358	,	0
49,59	,	102114	,	-23735	,	-22075	,	-13.619257	,	0
49,59	,	102146	,	-23728	,	-22072	,	-12.926611	,	0
49,59	,	102162	,	-23750	,	-22076	,	-11.781782	,	0
49,59	,	102178	,	-23754	,	-22074	,	-10.737885	,	1
49,59	,	102210	,	-23743	,	-22081	,	-10.193626	,	2
49,59	,	102226	,	-23728	,	-22068	,	-9.994865	,	2
49,59	,	102242	,	-23720	,	-22069	,	-9.509212	,	2
49,59	,	102274	,	-23711	,	-22062	,	-8.133369	,	2
49,59	,	102290	,	-23707	,	-22053	,	-5.6207104	,	3
49,59	,	102322	,	-23681	,	-22050	,	-2.0122738	,	5
49,59	,	102338	,	-23704	,	-22054	,	2.451541	,	8
49,59	,	102354	,	-23692	,	-22031	,	7.1725907	,	12
49,59	,	102386	,	-23686	,	-22048	,	11.407412	,	15
49,59	,	102402	,	-23680	,	-22052	,	14.747735	,	18
49,59	,	102418	,	-23680	,	-22040	,	17.103521	,	21
49,59	,	102450	,	-23677	,	-22048	,	18.4681	,	23
49,59	,	102466	,	-23685	,	-22040	,	18.831308	,	24
49,59	,	102498	,	-23685	,	-22052	,	18.159435	,	23
49,59	,	102514	,	-23685	,	-22049	,	16.486643	,	21
49,59	,	102530	,	-23683	,	-22048	,	14.029664	,	18
49,59	,	102561	,	-23688	,	-22047	,	11.12927	,	14
49,59	,	102578	,	-23683	,	-22052	,	8.116262	,	10
49,59	,	102594	,	-23687	,	-22053	,	5.270745	,	6
49,59	,	102626	,	-23704	,	-22049	,	2.7153363	,	3
49,59	,	102642	,	-23690	,	-22041	,	0.3814876	,	1
49,59	,	102658	,	-23682	,	-22050	,	-1.6568418	,	0
49,59	,	102690	,	-23677	,	-22063	,	-3.0314121	,	0
49,59	,	102706	,	-23690	,	-22044	,	-3.4797525	,	0
49,59	,	102738	,	-23710	,	-22052	,	-3.2675176	,	0
49,59	,	102754	,	-23686	,	-22058	,	-2.9740143	,	0
49,59	,	102770	,	-23715	,	-22061	,	-2.9455295	,	0
49,59	,	102802	,	-23689	,	-22061	,	-3.2303557	,	0
49,59	,	102818	,	-23706	,	-22063	,	-3.7024267	,	0
49,59	,	102834	,	-23702	,	-22062	,	-4.1755247	,	0
49,59	,	102866	,	-23705	,	-22065	,	-4.5718813	,	0
49,59	,	102882	,	-23721	,	-22071	,	-4.9407444	,	0
50,0	,	102913	,	-23722	,	-22062	,	-5.4673147	,	0
50,0	,	102929	,	-23732	,	-22082	,	-6.3569927	,	0
50,0	,	102946	,	-23737	,	-22064	,	-7.6834273	,	0
50,0	,	102978	,	-23737	,	-22081	,	-9.370701	,	0
50,0	,	102994	,	-23749	,	-22077	,	-11.22122	,	0
50,0	,	103010	,	-23722	,	-22080	,	-12.908116	,	0
50,0	,	103042	,	-23740	,	-22084	,	-13.958202	,	0
50,0	,	103058	,	-23743	,	-22084	,	-14.091534	,	0
50,0	,	103073	,	-23741	,	-22087	,	-13.455044	,	0
50,0	,	103105	,	-23740	,	-22080	,	-12.30015	,	0
50,0	,	103121	,	-23759	,	-22086	,	-10.868193	,	1
50,0	,	103154	,	-23744	,	-22078	,	-9.4853325	,	2
50,0	,	103170	,	-23736	,	-22083	,	-8.271412	,	3
50,0	,	103186	,	-23729	,	-22047	,	-6.96504	,	4
50,0	,	103218	,	-23730	,	-22066	,	-5.26171	,	5
50,0	,	103234	,	-23724	,	-22060	,	-3.1022792	,	6
50,0	,	103250	,	-23720	,	-22062	,	-0.61359906	,	8
50,0	,	103281	,	-23704	,	-22059	,	2.086625	,	10
50,0	,	103297	,	-23703	,	-22062	,	4.974043	,	12
50,0	,	103330	,	-23698	,	-22061	,	7.9795976	,	13
50,0	,	103346	,	-23715	,	-22058	,	10.792149	,	15
50,0	,	103362	,	-23711	,	-22063	,	12.869694	,	16
50,0	,	103394	,	-23710	,	-22063	,	13.768813	,	17
50,0	,	103410	,	-23714	,	-22080	,	13.416338	,	16
50,0	,	103426	,	-23700	,	-22051	,	12.069935	,	15
50,0	,	103457	,	-23706	,	-22066	,	10.185141	,	13
50,0	,	103473	,	-23697	,	-22060	,	8.225122	,	11
50,0	,	103489	,	-23705	,	-22065	,	6.4949164	,	9
50,0	,	103522	,	-23709	,	-22069	,	5.070708	,	7
50,0	,	103538	,	-23721	,	-22067	,	3.7725537	,	4
50,0	,	103570	,	-23711	,	-22077	,	2.3523014	,	2
50,0	,	103585	,	-23723	,	-22086	,	0.7501123	,	0
50,0	,	103601	,	-23730	,	-22096	,	-0.9926677	,	0
50,0	,	103633	,	-23716	,	-22083	,	-2.8212159	,	0
50,0	,	103649	,	-23726	,	-22089	,	-4.516019	,	0
50,0	,	103665	,	-23732	,	-22085	,	-5.853176	,	0
50,0	,	103698	,	-23738	,	-22093	,	-6.869671	,	0
50,0	,	103714	,	-23741	,	-22101	,	-7.7404795	,	0
50,0	,	103746	,	-23755	,	-22102	,	-8.622204	,	0
50,0	,	103761	,	-23754	,	-22101	,	-9.647909	,	0
50,0	,	103777	,	-23746	,	-22113	,	-10.785887	,	0
50,0	,	103809	,	-23757	,	-22108	,	-11.767815	,	0
50,0	,	103825	,	-23747	,	-22110	,	-12.319942	,	0
50,0	,	103841	,	-23756	,	-22103	,	-12.308443	,	0
50,0	,	103873	,	-23760	,	-22107	,	-11.768248	,	0
50,1	,	103890	,	-23764	,	-22120	,	-10.916913	,	0
50,1	,	103906	,	-23780	,	-22114	,	-10.078938	,	0
50,1	,	103938	,	-23773	,	-22122	,	-9.573521	,	0
50,1	,	103953	,	-23760	,	-22118	,	-9.427923	,	0
50,1	,	103985	,	-23773	,	-22123	,	-9.310505	,	0
50,1	,	104001	,	-23783	,	-22128	,	-9.022242	,	0
50,1	,	104017	,	-23782	,	-22118	,	-8.7254715	,	0
50,1	,	104049	,	-23766	,	-22118	,	-8.518427	,	0
50,1	,	104065	,	-23766	,	-22113	,	-8.143607	,	0
50,1	,	104082	,	-23741	,	-22108	,	-7.156901	,	0
50,1	,	104113	,	-23751	,	-22117	,	-5.202591	,	0
50,1	,	104129	,	-23748	,	-22096	,	-2.315121	,	1
50,1	,	104161	,	-23731	,	-22110	,	1.1174006	,	3
50,1	,	104177	,	-23729	,	-22095	,	4.7647676	,	6
50,1	,	104193	,	-23732	,	-22099	,	8.371029	,	9
50,1	,	104225	,	-23728	,	-22098	,	11.558491	,	12
50,1	,	104241	,	-23735	,	-22092	,	13.922924	,	15
50,1	,	104257	,	-23732	,	-22103	,	15.166491	,	17
50,1	,	104289	,	-23746	,	-22109	,	15.127636	,	18
50,1	,	104305	,	-23729	,	-22104	,	13.844374	,	18
50,1	,	104337	,	-23741	,	-22102	,	11.631013	,	17
50,1	,	104353	,	-23714	,	-22106	,	9.034655	,	15
50,1	,	104369	,	-23728	,	-22081	,	6.6745834	,	12
50,1	,	104401	,	-23740	,	-22098	,	4.868016	,	9
50,1	,	104417	,	-23724	,	-22096	,	3.4908128	,	6
50,1	,	104433	,	-23740	,	-22094	,	2.368002	,	3
50,1	,	104465	,	-23723	,	-22096	,	1.4623692	,	1
50,1	,	104481	,	-23736	,	-22095	,	0.79476583	,	0
50,1	,	104497	,	-23741	,	-22103	,	0.31383264	,	0
50,1	,	104529	,	-23736	,	-22099	,	-0.16194445	,	0
50,1	,	104545	,	-23734	,	-22097	,	-0.705618	,	0
50,1	,	104577	,	-23741	,	-22105	,	-1.2283041	,	0
50,1	,	104593	,	-23738	,	-22117	,	-1.6813982	,	0
50,1	,	104609	,	-23759	,	-22091	,	-2.1524613	,	0
50,1	,	104641	,	-23764	,	-22112	,	-2.9046605	,	0
50,1	,	104657	,	-23759	,	-22104	,	-4.1768923	,	0
50,1	,	104673	,	-23761	,	-22117	,	-5.858577	,	0
50,1	,	104705	,	-23776	,	-22121	,	-7.641441	,	0
50,1	,	104721	,	-23781	,	-22115	,	-9.39484	,	0
50,1	,	104753	,	-23773	,	-22115	,	-11.081574	,	0
50,1	,	104769	,	-23781	,	-22114	,	-12.508841	,	0
50,1	,	104785	,	-23768	,	-22127	,	-13.397168	,	0
50,1	,	104817	,	-23782	,	-22126	,	-13.550339	,	0
50,1	,	104833	,	-23780	,	-22146	,	-12.98412	,	0
50,1	,	104849	,	-23790	,	-22105	,	-11.947348	,	0
50,1	,	104881	,	-23800	,	-22125	,	-10.81964	,	1
50,2	,	104897	,	-23798	,	-22132	,	-9.975815	,	2
50,2	,	104913	,	-23804	,	-22135	,	-9.596505	,	2
50,2	,	104945	,	-23804	,	-22134	,	-9.630312	,	2
50,2	,	104961	,	-23804	,	-22144	,	-9.896038	,	2
50,2	,	104993	,	-23805	,	-22133	,	-10.152138	,	2
50,2	,	105009	,	-23785	,	-22127	,	-10.100299	,	2
50,2	,	105025	,	-23784	,	-22124	,	-9.35798	,	2
50,2	,	105057	,	-23780	,	-22123	,	-7.6507688	,	2
50,2	,	105073	,	-23765	,	-22134	,	-4.9830084	,	2
50,2	,	105089	,	-23767	,	-22104	,	-1.5314984	,	3
50,2	,	105121	,	-23762	,	-22106	,	2.3819766	,	6
50,2	,	105137	,	-23761	,	-22111	,	6.2939663	,	9
50,2	,	105169	,	-23760	,	-22098	,	9.743347	,	12
50,2	,	105185	,	-23748	,	-22098	,	12.428661	,	15
50,2	,	105201	,	-23736	,	-22101	,	14.354078	,	17
50,2	,	105233	,	-23743	,	-22111	,	15.723019	,	18
50,2	,	105249	,	-23751	,	-22099	,	16.559803	,	19
50,2	,	105265	,	-23741	,	-22106	,	16.668716	,	18
50,2	,	105297	,	-23747	,	-22103	,	15.960432	,	16
50,2	,	105313	,	-23751	,	-22117	,	14.504889	,	13
50,2	,	105329	,	-23738	,	-22096	,	12.458807	,	10
50,2	,	105361	,	-23741	,	-22102	,	10.150745	,	7
50,2	,	105377	,	-23744	,	-22099	,	7.9359827	,	4
50,2	,	105409	,	-23743	,	-22109	,	5.9724445	,	2
50,2	,	105425	,	-23759	,	-22104	,	4.2149315	,	1
50,2	,	105441	,	-23747	,	-22114	,	2.5150363	,	0
50,2	,	105473	,	-23738	,	-22110	,	0.9006729	,	0
50,2	,	105489	,	-23743	,	-22109	,	-0.3411535	,	0
50,2	,	105505	,	-23742	,	-22108	,	-1.0143797	,	0
50,2	,	105537	,	-23746	,	-22119	,	-1.1849686	,	0
50,2	,	105553	,	-23771	,	-22114	,	-1.1644033	,	0
50,2	,	105584	,	-23751	,	-22109	,	-1.3997788	,	0
50,2	,	105601	,	-23760	,	-22117	,	-2.0649052	,	0
50,2	,	105617	,	-23763	,	-22125	,	-2.9962616	,	0
50,2	,	105649	,	-23771	,	-22127	,	-4.0618052	,	0
50,2	,	105665	,	-23762	,	-22126	,	-5.1968284	,	0
50,2	,	105681	,	-23775	,	-22116	,	-6.263377	,	0
50,2	,	105713	,	-23769	,	-22123	,	-7.1351585	,	0
50,2	,	105729	,	-23766	,	-22129	,	-7.716298	,	0
50,2	,	105745	,	-23774	,	-22127	,	-7.9022903	,	0
50,2	,	105777	,	-23777	,	-22125	,	-7.7223325	,	0
50,2	,	105792	,	-23788	,	-22120	,	-7.4012804	,	0
50,2	,	105825	,	-23773	,	-22126	,	-7.153158	,	0
50,2	,	105841	,	-23781	,	-22143	,	-6.9603796	,	0
50,2	,	105857	,	-23792	,	-22138	,	-6.7411623	,	0
50,2	,	105889	,	-23799	,	-22134	,	-6.646102	,	0
50,3	,	105905	,	-23794	,	-22141	,	-6.8889613	,	0
50,3	,	105921	,	-23798	,	-22145	,	-7.4429235	,	0
50,3	,	105953	,	-23807	,	-22139	,	-8.142321	,	0
50,3	,	105969	,	-23776	,	-22136	,	-8.755185	,	0
50,3	,	106001	,	-23781	,	-22123	,	-8.812889	,	0
50,3	,	106017	,	-23751	,	-22128	,	-7.749824	,	0
50,3	,	106033	,	-23752	,	-22112	,	-5.2042727	,	1
50,3	,	106065	,	-23744	,	-22113	,	-1.2042189	,	3
50,3	,	106081	,	-23743	,	-22107	,	3.7618287	,	7
50,3	,	106097	,	-23746	,	-22115	,	8.920519	,	11
50,3	,	106129	,	-23745	,	-22106	,	13.459646	,	16
50,3	,	106145	,	-23738	,	-22106	,	16.780613	,	20
50,3	,	106176	,	-23734	,	-22107	,	18.686615	,	23
50,3	,	106192	,	-23735	,	-22103	,	19.291632	,	24
50,3	,	106208	,	-23751	,	-22108	,	18.72659	,	24
50,3	,	106240	,	-23729	,	-22100	,	17.085716	,	23
50,3	,	106257	,	-23729	,	-22114	,	14.726261	,	21
50,3	,	106273	,	-23726	,	-22089	,	12.23907	,	17
50,3	,	106304	,	-23729	,	-22085	,	10.0475645	,	13
50,3	,	106320	,	-23730	,	-22088	,	8.260632	,	8
50,3	,	106352	,	-23728	,	-22093	,	6.805159	,	4
50,3	,	106368	,	-23724	,	-22098	,	5.6137886	,	1
50,3	,	106385	,	-23738	,	-22102	,	4.6377573	,	0
50,3	,	106417	,	-23734	,	-22105	,	3.7241151	,	0
50,3	,	106433	,	-23727	,	-22105	,	2.7583117	,	0
50,3	,	106448	,	-23734	,	-22104	,	1.8226035	,	0
50,3	,	106481	,	-23734	,	-22113	,	1.009744	,	0
50,3	,	106497	,	-23747	,	-22092	,	0.24782145	,	0
50,3	,	106512	,	-23747	,	-22106	,	-0.6535662	,	0
50,3	,	106544	,	-23750	,	-22110	,	-1.8337996	,	0
50,3	,	106561	,	-23753	,	-22102	,	-3.2634537	,	0
50,3	,	106592	,	-23745	,	-22114	,	-4.762276	,	0
50,3	,	106608	,	-23750	,	-22114	,	-6.0526357	,	0
50,3	,	106624	,	-23762	,	-22112	,	-6.9600487	,	0
50,3	,	106656	,	-23768	,	-22121	,	-7.608629	,	0
50,3	,	106672	,	-23770	,	-22112	,	-8.254896	,	0
50,3	,	106688	,	-23769	,	-22115	,	-8.995036	,	0
50,3	,	106720	,	-23767	,	-22134	,	-9.695451	,	0
50,3	,	106736	,	-23772	,	-22103	,	-10.13592	,	0
50,3	,	106768	,	-23785	,	-22118	,	-10.257917	,	0
50,3	,	106784	,	-23787	,	-22123	,	-10.25809	,	0
50,3	,	106800	,	-23792	,	-22126	,	-10.374573	,	0
50,3	,	106832	,	-23780	,	-22124	,	-10.626598	,	0
50,3	,	106848	,	-23784	,	-22125	,	-10.774672	,	0
50,3	,	106864	,	-23762	,	-22115	,	-10.447343	,	0
50,4	,	106897	,	-23758	,	-22105	,	-9.244167	,	0
50,4	,	106912	,	-23741	,	-22098	,	-6.856766	,	1
50,4	,	106928	,	-23741	,	-22102	,	-3.2394433	,	3
50,4	,	106960	,	-23752	,	-22108	,	1.2218094	,	6
50,4	,	106976	,	-23729	,	-22080	,	5.816028	,	10
50,4	,	107008	,	-23745	,	-22095	,	9.924827	,	14
50,4	,	107024	,	-23733	,	-22095	,	13.137354	,	18
50,4	,	107040	,	-23731	,	-22094	,	15.225039	,	21
50,4	,	107072	,	-23736	,	-22094	,	16.188808	,	23
50,4	,	107088	,	-23741	,	-22104	,	16.076105	,	23
50,4	,	107104	,	-23727	,	-22101	,	14.974305	,	22
50,4	,	107136	,	-23736	,	-22092	,	13.177134	,	20
50,4	,	107152	,	-23728	,	-22094	,	11.058737	,	17
50,4	,	107184	,	-23727	,	-22095	,	8.933112	,	13
50,4	,	107200	,	-23731	,	-22111	,	7.0335817	,	9
50,4	,	107216	,	-23726	,	-22083	,	5.4583507	,	5
50,4	,	107248	,	-23735	,	-22096	,	4.187728	,	2
50,4	,	107264	,	-23727	,	-22092	,	3.1487858	,	0
50,4	,	107280	,	-23726	,	-22093	,	2.3148031	,	0
50,4	,	107312	,	-23729	,	-22098	,	1.7295238	,	0
50,4	,	107328	,	-23725	,	-22090	,	1.3912578	,	0
50,4	,	107360	,	-23744	,	-22093	,	1.1620557	,	0
50,4	,	107376	,	-23727	,	-22095	,	0.8191723	,	0
50,4	,	107392	,	-23724	,	-22097	,	0.33961087	,	0
50,4	,	107424	,	-23736	,	-22096	,	-0.08354521	,	0
50,4	,	107440	,	-23751	,	-22104	,	-0.4871592	,	0
50,4	,	107456	,	-23742	,	-22091	,	-1.1716783	,	0
50,4	,	107488	,	-23744	,	-22107	,	-2.2349713	,	0
50,4	,	107504	,	-23763	,	-22102	,	-3.5437098	,	0
50,4	,	107520	,	-23751	,	-22113	,	-5.026194	,	0
50,4	,	107552	,	-23762	,	-22108	,	-6.5901046	,	0
50,4	,	107568	,	-23760	,	-22110	,	-8.042206	,	0
50,4	,	107600	,	-23752	,	-22108	,	-9.170274	,	0
50,4	,	107616	,	-23767	,	-22113	,	-9.791148	,	0
50,4	,	107632	,	-23771	,	-22111	,	-9.943857	,	0
50,4	,	107664	,	-23765	,	-22125	,	-9.848539	,	0
50,4	,	107680	,	-23774	,	-22101	,	-9.624002	,	0
50,4	,	107696	,	-23771	,	-22118	,	-9.2955	,	0
50,4	,	107728	,	-23778	,	-22119	,	-8.901177	,	0
50,4	,	107744	,	-23760	,	-22107	,	-8.413841	,	0
50,4	,	107776	,	-23744	,	-22103	,	-7.5598392	,	0
50,4	,	107792	,	-23750	,	-22100	,	-5.9288435	,	0
50,4	,	107808	,	-23731	,	-22089	,	-3.3578904	,	1
50,4	,	107840	,	-23724	,	-22088	,	0.0627594	,	3
50,4	,	107856	,	-23718	,	-22083	,	4.150236	,	6
50,4	,	107872	,	-23715	,	-22085	,	8.558115	,	10
50,5	,	107904	,	-23706	,	-22090	,	12.822729	,	14
50,5	,	107920	,	-23712	,	-22070	,	16.504404	,	18
50,5	,	107936	,	-23718	,	-22087	,	19.156982	,	21
50,5	,	107968	,	-23705	,	-22076	,	20.418375	,	23
50,5	,	107984	,	-23729	,	-22083	,	20.18697	,	24
50,5	,	108016	,	-23707	,	-22082	,	18.56958	,	23
50,5	,	108032	,	-23718	,	-22074	,	15.898839	,	21
50,5	,	108048	,	-23712	,	-22085	,	12.692621	,	18
50,5	,	108080	,	-23719	,	-22088	,	9.39328	,	14
50,5	,	108096	,	-23700	,	-22083	,	6.355125	,	10
50,5	,	108112	,	-23700	,	-22086	,	3.9888635	,	6
50,5	,	108144	,	-23699	,	-22101	,	2.6173725	,	3
50,5	,	108160	,	-23711	,	-22072	,	2.1839151	,	1
50,5	,	108192	,	-23701	,	-22082	,	2.3045588	,	0
50,5	,	108208	,	-23724	,	-22080	,	2.5273745	,	0
50,5	,	108224	,	-23723	,	-22093	,	2.3943458	,	0
50,5	,	108256	,	-23715	,	-22089	,	1.622661	,	0
50,5	,	108272	,	-23717	,	-22081	,	0.3616897	,	0
50,5	,	108288	,	-23713	,	-22084	,	-0.9915317	,	0
50,5	,	108320	,	-23729	,	-22088	,	-2.173625	,	0
50,5	,	108336	,	-23708	,	-22085	,	-3.113168	,	0
50,5	,	108352	,	-23738	,	-22082	,	-3.8047185	,	0
50,5	,	108384	,	-23726	,	-22110	,	-4.3641367	,	0
50,5	,	108400	,	-23729	,	-22074	,	-4.928532	,	0
50,5	,	108431	,	-23732	,	-22097	,	-5.4550695	,	0
50,5	,	108447	,	-23732	,	-22092	,	-5.852602	,	0
50,5	,	108464	,	-23741	,	-22084	,	-6.1202865	,	0
50,5	,	108496	,	-23756	,	-22096	,	-6.4143543	,	0
50,5	,	108512	,	-23739	,	-22083	,	-6.9437404	,	0
50,5	,	108528	,	-23735	,	-22090	,	-7.591368	,	0
50,5	,	108560	,	-23768	,	-22084	,	-8.0815935	,	0
50,5	,	108576	,	-23754	,	-22089	,	-8.488967	,	0
50,5	,	108608	,	-23771	,	-22096	,	-9.04365	,	0
50,5	,	108624	,	-23750	,	-22099	,	-9.725004	,	0
50,5	,	108640	,	-23729	,	-22059	,	-10.115749	,	0
50,5	,	108672	,	-23713	,	-22069	,	-9.443291	,	0
50,5	,	108688	,	-23708	,	-22069	,	-7.061767	,	0
50,5	,	108703	,	-23715	,	-22071	,	-2.995592	,	2
50,5	,	108735	,	-23711	,	-22062	,	2.033413	,	6
50,5	,	108751	,	-23715	,	-22057	,	7.0457144	,	11
50,5	,	108768	,	-23701	,	-22055	,	11.27584	,	16
50,5	,	108800	,	-23688	,	-22056	,	14.44592	,	20
50,5	,	108816	,	-23691	,	-22052	,	16.691185	,	23
50,5	,	108847	,	-23688	,	-22047	,	18.166195	,	25
50,5	,	108863	,	-23700	,	-22066	,	18.82088	,	26
50,5	,	108879	,	-23711	,	-22046	,	18.42514	,	26
50,6	,	108911	,	-23681	,	-22056	,	16.86684	,	24
50,6	,	108928	,	-23698	,	-22058	,	14.499179	,	20
50,6	,	108944	,	-23700	,	-22032	,	11.813573	,	15
50,6	,	108976	,	-23683	,	-22032	,	9.105802	,	10
50,6	,	108992	,	-23691	,	-22040	,	6.6868696	,	6
50,6	,	109023	,	-23676	,	-22034	,	4.87619	,	3
50,6	,	109039	,	-23682	,	-22042	,	3.8399448	,	1
50,6	,	109056	,	-23687	,	-22034	,	3.5122805	,	0
50,6	,	109087	,	-23683	,	-22044	,	3.5904229	,	0
50,6	,	109103	,	-23681	,	-22071	,	3.7798872	,	0
50,6	,	109119	,	-23696	,	-22055	,	3.8814063	,	0
50,6	,	109151	,	-23710	,	-22058	,	3.5703535	,	0
50,6	,	109168	,	-23678	,	-22054	,	2.596271	,	0
50,6	,	109184	,	-23706	,	-22048	,	1.168363	,	0
50,6	,	109215	,	-23709	,	-22060	,	-0.43196058	,	0
50,6	,	109231	,	-23713	,	-22067	,	-2.2276335	,	0
50,6	,	109263	,	-23698	,	-22068	,	-4.1597576	,	0
50,6	,	109279	,	-23704	,	-22062	,	-5.8550415	,	0
50,6	,	109295	,	-23707	,	-22076	,	-6.9549303	,	0
50,6	,	109328	,	-23716	,	-22069	,	-7.432908	,	0
50,6	,	109344	,	-23721	,	-22068	,	-7.551862	,	0
50,6	,	109360	,	-23717	,	-22069	,	-7.5949774	,	0
50,6	,	109391	,	-23725	,	-22080	,	-7.674	,	0
50,6	,	109407	,	-23728	,	-22081	,	-7.8079844	,	0
50,6	,	109439	,	-23715	,	-22074	,	-7.96146	,	0
50,6	,	109456	,	-23723	,	-22065	,	-7.951671	,	0
50,6	,	109472	,	-23697	,	-22065	,	-7.497924	,	0
50,6	,	109504	,	-23701	,	-22063	,	-6.294114	,	0
50,6	,	109520	,	-23706	,	-22058	,	-4.2354007	,	1
50,6	,	109535	,	-23684	,	-22061	,	-1.5510709	,	3
50,6	,	109567	,	-23674	,	-22062	,	1.5747592	,	5
50,6	,	109583	,	-23682	,	-22054	,	5.0759287	,	8
50,6	,	109615	,	-23682	,	-22058	,	8.606974	,	11
50,6	,	109631	,	-23684	,	-22059	,	11.575749	,	14
50,6	,	109647	,	-23704	,	-22057	,	13.415762	,	16
50,6	,	109679	,	-23688	,	-22071	,	13.733603	,	17
50,6	,	109696	,	-23690	,	-22063	,	12.573656	,	17
50,6	,	109711	,	-23700	,	-22068	,	10.370986	,	16
50,6	,	109743	,	-23711	,	-22072	,	7.486931	,	14
50,6	,	109759	,	-23710	,	-22069	,	4.0943856	,	12
50,6	,	109776	,	-23704	,	-22082	,	0.47106504	,	9
50,6	,	109807	,	-23693	,	-22082	,	-2.8353057	,	6
50,6	,	109823	,	-23705	,	-22053	,	-5.252099	,	3
50,6	,	109855	,	-23697	,	-22059	,	-6.5456166	,	1
50,6	,	109871	,	-23694	,	-22063	,	-6.773578	,	0
50,6	,	109887	,	-23691	,	-22060	,	-6.0514636	,	0
50,7	,	109919	,	-23694	,	-22065	,	-4.5698977	,	0
50,7	,	109935	,	-23683	,	-22061	,	-2.6109018	,	1
50,7	,	109952	,	-23705	,	-22063	,	-0.5107217	,	2
50,7	,	109983	,	-23707	,	-22059	,	1.2390299	,	4
50,7	,	109999	,	-23696	,	-22064	,	2.1910872	,	5
50,7	,	110031	,	-23699	,	-22056	,	2.3379624	,	5
50,7	,	110047	,	-23710	,	-22076	,	1.9297609	,	5
50,7	,	110063	,	-23713	,	-22045	,	1.0661439	,	5
50,7	,	110095	,	-23705	,	-22064	,	-0.21023405	,	5
50,7	,	110111	,	-23704	,	-22059	,	-1.6472156	,	5
50,7	,	110127	,	-23697	,	-22058	,	-2.8427694	,	4
50,7	,	110160	,	-23699	,	-22052	,	-3.4729981	,	3
50,7	,	110175	,	-23719	,	-22064	,	-3.5267441	,	1
50,7	,	110191	,	-23713	,	-22065	,	-3.3622212	,	0
50,7	,	110223	,	-23705	,	-22057	,	-3.2974658	,	0
50,7	,	110239	,	-23691	,	-22058	,	-3.2134964	,	0
50,7	,	110271	,	-23682	,	-22054	,	-2.6746473	,	0
50,7	,	110287	,	-23679	,	-22067	,	-1.3074422	,	0
50,7	,	110303	,	-23672	,	-22034	,	0.94809484	,	1
50,7	,	110335	,	-23661	,	-22041	,	3.9031625	,	3
50,7	,	110351	,	-23673	,	-22047	,	7.2254963	,	5
50,7	,	110367	,	-23648	,	-22046	,	10.486868	,	8
50,7	,	110399	,	-23652	,	-22045	,	13.39739	,	11
50,7	,	110415	,	-23673	,	-22041	,	15.720033	,	13
50,7	,	110447	,	-23650	,	-22043	,	17.062767	,	15
50,7	,	110463	,	-23687	,	-22049	,	17.113163	,	16
50,7	,	110479	,	-23682	,	-22048	,	15.669473	,	16
50,7	,	110511	,	-23680	,	-22043	,	12.70491	,	15
50,7	,	110527	,	-23671	,	-22066	,	8.707049	,	13
50,7	,	110543	,	-23680	,	-22046	,	4.48554	,	11
50,7	,	110575	,	-23678	,	-22072	,	0.6777611	,	8
50,7	,	110591	,	-23685	,	-22085	,	-2.4094605	,	5
50,7	,	110607	,	-23707	,	-22095	,	-4.8175683	,	3
50,7	,	110639	,	-23716	,	-22105	,	-6.9494376	,	1
50,7	,	110655	,	-23725	,	-22124	,	-9.282102	,	0
50,7	,	110687	,	-23740	,	-22142	,	-12.053232	,	0
50,7	,	110703	,	-23738	,	-22141	,	-15.227514	,	0
50,7	,	110719	,	-23746	,	-22143	,	-18.504639	,	0
50,7	,	110751	,	-23743	,	-22152	,	-21.410112	,	0
50,7	,	110767	,	-23747	,	-22159	,	-23.48719	,	0
50,7	,	110783	,	-23747	,	-22150	,	-24.434925	,	0
50,7	,	110815	,	-23745	,	-22150	,	-24.150677	,	0
50,7	,	110831	,	-23744	,	-22148	,	-22.680882	,	0
50,7	,	110863	,	-23744	,	-22161	,	-20.192677	,	1
50,7	,	110879	,	-23752	,	-22153	,	-17.0139	,	3
50,8	,	110895	,	-23769	,	-22155	,	-13.70102	,	6
50,8	,	110927	,	-23759	,	-22157	,	-10.89288	,	9
50,8	,	110943	,	-23786	,	-22165	,	-9.019907	,	11
50,8	,	110959	,	-23760	,	-22157	,	-8.204723	,	12
50,8	,	110991	,	-23761	,	-22155	,	-8.144419	,	12
50,8	,	111007	,	-23759	,	-22151	,	-8.216202	,	12
50,8	,	111023	,	-23742	,	-22134	,	-7.861889	,	12
50,8	,	111055	,	-23708	,	-22123	,	-6.5281296	,	11
50,8	,	111071	,	-23698	,	-22108	,	-3.5633695	,	10
50,8	,	111103	,	-23692	,	-22099	,	1.3173461	,	9
50,8	,	111119	,	-23673	,	-22081	,	7.732239	,	10
50,8	,	111135	,	-23668	,	-22078	,	14.938995	,	14
50,8	,	111167	,	-23660	,	-22068	,	22.12544	,	20
50,8	,	111183	,	-23635	,	-22062	,	28.594906	,	27
50,8	,	111199	,	-23637	,	-22057	,	33.9561	,	33
50,8	,	111231	,	-23643	,	-22068	,	37.90677	,	38
50,8	,	111246	,	-23643	,	-22061	,	39.999813	,	41
50,8	,	111279	,	-23634	,	-22058	,	39.937477	,	42
50,8	,	111295	,	-23635	,	-22048	,	37.870285	,	40
50,8	,	111311	,	-23635	,	-22057	,	34.255844	,	36
50,8	,	111343	,	-23626	,	-22053	,	29.653526	,	30
50,8	,	111359	,	-23628	,	-22054	,	24.67779	,	23
50,8	,	111375	,	-23636	,	-22046	,	19.824652	,	16
50,8	,	111407	,	-23617	,	-22053	,	15.384725	,	10
50,8	,	111423	,	-23629	,	-22058	,	11.606658	,	5
50,8	,	111439	,	-23626	,	-22056	,	8.626195	,	2
50,8	,	111471	,	-23631	,	-22056	,	6.343432	,	0
50,8	,	111487	,	-23630	,	-22042	,	4.5720053	,	0
50,8	,	111519	,	-23639	,	-22050	,	3.1281128	,	0
50,8	,	111535	,	-23636	,	-22056	,	1.8262258	,	0
50,8	,	111551	,	-23633	,	-22056	,	0.5844431	,	0
50,8	,	111583	,	-23634	,	-22056	,	-0.5137323	,	0
50,8	,	111598	,	-23652	,	-22063	,	-1.4280434	,	0
50,8	,	111615	,	-23637	,	-22062	,	-2.285026	,	0
50,8	,	111647	,	-23665	,	-22061	,	-3.227502	,	0
50,8	,	111663	,	-23655	,	-22060	,	-4.3855352	,	0
50,8	,	111695	,	-23658	,	-22069	,	-5.7889857	,	0
50,8	,	111711	,	-23651	,	-22074	,	-7.202381	,	0
50,8	,	111727	,	-23648	,	-22036	,	-8.24475	,	0
50,8	,	111759	,	-23667	,	-22070	,	-8.689333	,	0
50,8	,	111775	,	-23669	,	-22066	,	-8.691963	,	0
50,8	,	111791	,	-23678	,	-22062	,	-8.643557	,	0
50,8	,	111823	,	-23683	,	-22070	,	-8.853216	,	0
50,8	,	111839	,	-23687	,	-22067	,	-9.449224	,	0
50,8	,	111854	,	-23690	,	-22067	,	-10.385189	,	0
50,9	,	111886	,	-23679	,	-22073	,	-11.427654	,	0
50,9	,	111903	,	-23677	,	-22062	,	-12.165291	,	0
50,9	,	111935	,	-23653	,	-22061	,	-12.083572	,	0
50,9	,	111951	,	-23644	,	-22072	,	-10.657999	,	0
