Data recorded on Mon Jul 24 14-16-28 CAT 2017
Time: 14:16:46
Time		Millis		IR PPG		Red PPG		Filtered		SSF
16,55	,	32759	,	-7909	,	-4912	,	10.477089	,	10
16,55	,	32791	,	-7906	,	-4922	,	11.42291	,	11
16,55	,	32807	,	-7907	,	-4918	,	11.9316025	,	11
16,55	,	32823	,	-7899	,	-4924	,	12.063121	,	11
16,55	,	32855	,	-7900	,	-4918	,	11.8988085	,	10
16,55	,	32871	,	-7912	,	-4919	,	11.464212	,	8
16,55	,	32887	,	-7910	,	-4917	,	10.622315	,	6
16,55	,	32919	,	-7906	,	-4925	,	9.271339	,	4
16,55	,	32935	,	-7900	,	-4920	,	7.5778985	,	2
16,55	,	32967	,	-7914	,	-4921	,	5.82198	,	1
16,55	,	32983	,	-7909	,	-4919	,	4.122484	,	0
16,55	,	32999	,	-7914	,	-4920	,	2.479906	,	0
16,55	,	33031	,	-7914	,	-4921	,	0.9223385	,	0
16,55	,	33047	,	-7923	,	-4920	,	-0.5360942	,	0
16,55	,	33063	,	-7914	,	-4919	,	-1.9034207	,	0
16,55	,	33095	,	-7915	,	-4920	,	-3.0858593	,	0
16,55	,	33111	,	-7923	,	-4924	,	-3.9425762	,	0
16,55	,	33143	,	-7918	,	-4925	,	-4.456959	,	0
16,55	,	33159	,	-7922	,	-4920	,	-4.68257	,	0
16,55	,	33175	,	-7916	,	-4924	,	-4.640357	,	0
16,55	,	33207	,	-7926	,	-4922	,	-4.370995	,	0
16,55	,	33223	,	-7930	,	-4915	,	-4.0259	,	0
16,55	,	33239	,	-7927	,	-4928	,	-3.8024404	,	0
16,55	,	33271	,	-7932	,	-4925	,	-3.7753172	,	0
16,55	,	33287	,	-7934	,	-4927	,	-3.921363	,	0
16,55	,	33303	,	-7942	,	-4925	,	-4.250175	,	0
16,55	,	33335	,	-7938	,	-4929	,	-4.7874174	,	0
16,55	,	33351	,	-7946	,	-4928	,	-5.487334	,	0
16,55	,	33383	,	-7947	,	-4922	,	-6.263186	,	0
16,55	,	33399	,	-7952	,	-4928	,	-7.059589	,	0
16,55	,	33415	,	-7946	,	-4933	,	-7.7974386	,	0
16,55	,	33447	,	-7958	,	-4931	,	-8.355804	,	0
16,55	,	33463	,	-7953	,	-4927	,	-8.684179	,	0
16,55	,	33479	,	-7953	,	-4922	,	-8.777978	,	0
16,55	,	33511	,	-7926	,	-4917	,	-8.458758	,	0
16,55	,	33527	,	-7927	,	-4915	,	-7.3243103	,	0
16,55	,	33559	,	-7917	,	-4916	,	-5.075795	,	1
16,55	,	33575	,	-7919	,	-4918	,	-1.8111637	,	3
16,55	,	33591	,	-7918	,	-4912	,	2.020853	,	6
16,55	,	33623	,	-7913	,	-4900	,	5.8385534	,	9
16,55	,	33639	,	-7911	,	-4912	,	9.164734	,	12
16,55	,	33655	,	-7908	,	-4907	,	11.723698	,	15
16,55	,	33687	,	-7903	,	-4901	,	13.417947	,	17
16,55	,	33703	,	-7901	,	-4897	,	14.302664	,	18
16,55	,	33719	,	-7909	,	-4894	,	14.467947	,	18
16,56	,	33751	,	-7907	,	-4889	,	13.92215	,	17
16,56	,	33767	,	-7898	,	-4891	,	12.722961	,	15
16,56	,	33799	,	-7897	,	-4885	,	11.146109	,	12
16,56	,	33815	,	-7903	,	-4889	,	9.515192	,	9
16,56	,	33831	,	-7906	,	-4891	,	7.939273	,	6
16,56	,	33863	,	-7894	,	-4889	,	6.410097	,	3
16,56	,	33879	,	-7905	,	-4890	,	5.0013843	,	1
16,56	,	33910	,	-7897	,	-4898	,	3.7939818	,	0
16,56	,	33927	,	-7894	,	-4892	,	2.8405545	,	0
16,56	,	33943	,	-7903	,	-4902	,	2.18883	,	0
16,56	,	33975	,	-7904	,	-4900	,	1.7460577	,	0
16,56	,	33991	,	-7890	,	-4902	,	1.3817754	,	0
16,56	,	34007	,	-7902	,	-4902	,	1.1290859	,	0
16,56	,	34039	,	-7905	,	-4900	,	0.98818463	,	0
16,56	,	34055	,	-7911	,	-4907	,	0.76357317	,	0
16,56	,	34070	,	-7904	,	-4907	,	0.2775194	,	0
16,56	,	34103	,	-7922	,	-4906	,	-0.5073266	,	0
16,56	,	34119	,	-7915	,	-4910	,	-1.6007893	,	0
16,56	,	34151	,	-7909	,	-4906	,	-2.900205	,	0
16,56	,	34167	,	-7908	,	-4910	,	-4.0714054	,	0
16,56	,	34183	,	-7907	,	-4912	,	-4.7739987	,	0
16,56	,	34214	,	-7908	,	-4911	,	-4.8823233	,	0
16,56	,	34230	,	-7909	,	-4908	,	-4.469102	,	0
16,56	,	34246	,	-7904	,	-4914	,	-3.6874764	,	0
16,56	,	34279	,	-7904	,	-4908	,	-2.662452	,	0
16,56	,	34295	,	-7909	,	-4914	,	-1.5164797	,	1
16,56	,	34326	,	-7906	,	-4917	,	-0.42444563	,	2
16,56	,	34342	,	-7914	,	-4919	,	0.42817354	,	3
16,56	,	34359	,	-7903	,	-4919	,	0.92736214	,	3
16,56	,	34390	,	-7911	,	-4914	,	1.0976458	,	3
16,56	,	34406	,	-7901	,	-4915	,	1.0701075	,	3
16,56	,	34422	,	-7895	,	-4909	,	1.0482274	,	3
16,56	,	34455	,	-7891	,	-4912	,	1.288907	,	3
16,56	,	34471	,	-7893	,	-4905	,	1.9371943	,	3
16,56	,	34486	,	-7886	,	-4907	,	2.9346297	,	2
16,56	,	34518	,	-7882	,	-4908	,	4.153017	,	1
16,56	,	34535	,	-7880	,	-4902	,	5.4889083	,	1
16,56	,	34566	,	-7876	,	-4902	,	6.8364196	,	2
16,56	,	34582	,	-7878	,	-4904	,	8.063866	,	3
16,56	,	34598	,	-7874	,	-4909	,	9.022672	,	4
16,56	,	34631	,	-7870	,	-4909	,	9.621934	,	4
16,56	,	34646	,	-7867	,	-4910	,	9.889501	,	4
16,56	,	34662	,	-7869	,	-4901	,	9.892717	,	4
16,56	,	34694	,	-7869	,	-4902	,	9.639134	,	4
16,56	,	34710	,	-7870	,	-4898	,	9.092799	,	4
16,56	,	34742	,	-7861	,	-4900	,	8.281891	,	3
16,57	,	34759	,	-7868	,	-4905	,	7.3358965	,	2
16,57	,	34775	,	-7872	,	-4907	,	6.332645	,	1
16,57	,	34807	,	-7877	,	-4906	,	5.1951246	,	0
16,57	,	34822	,	-7871	,	-4901	,	3.8449922	,	0
16,57	,	34838	,	-7870	,	-4900	,	2.377977	,	0
16,57	,	34870	,	-7874	,	-4898	,	0.9965184	,	0
16,57	,	34886	,	-7873	,	-4907	,	-0.16720295	,	0
16,57	,	34918	,	-7880	,	-4902	,	-1.0989016	,	0
16,57	,	34934	,	-7885	,	-4904	,	-1.8890936	,	0
16,57	,	34950	,	-7890	,	-4903	,	-2.7043397	,	0
16,57	,	34982	,	-7886	,	-4901	,	-3.649046	,	0
16,57	,	34998	,	-7887	,	-4901	,	-4.641478	,	0
16,57	,	35014	,	-7900	,	-4902	,	-5.5450478	,	0
16,57	,	35058	,	-7885	,	-4900	,	-6.309967	,	0
16,57	,	35062	,	-7897	,	-4904	,	-6.8663387	,	0
16,57	,	35078	,	-7904	,	-4909	,	-7.184068	,	0
16,57	,	35110	,	-7903	,	-4903	,	-7.3983917	,	0
16,57	,	35126	,	-7905	,	-4906	,	-7.6216288	,	0
16,57	,	35158	,	-7904	,	-4905	,	-7.81529	,	0
16,57	,	35174	,	-7912	,	-4903	,	-7.9117227	,	0
16,57	,	35190	,	-7915	,	-4901	,	-7.9407005	,	0
16,57	,	35222	,	-7910	,	-4906	,	-7.9602194	,	0
16,57	,	35238	,	-7917	,	-4900	,	-7.932103	,	0
16,57	,	35254	,	-7912	,	-4896	,	-7.781126	,	0
16,57	,	35286	,	-7908	,	-4890	,	-7.428035	,	0
16,57	,	35302	,	-7896	,	-4887	,	-6.704254	,	0
16,57	,	35334	,	-7897	,	-4877	,	-5.4058423	,	0
16,57	,	35351	,	-7892	,	-4879	,	-3.4850824	,	1
16,57	,	35367	,	-7889	,	-4874	,	-1.0996644	,	2
16,57	,	35398	,	-7884	,	-4877	,	1.5115876	,	4
16,57	,	35414	,	-7884	,	-4879	,	4.10641	,	6
16,57	,	35430	,	-7878	,	-4874	,	6.4615073	,	8
16,57	,	35462	,	-7870	,	-4873	,	8.454814	,	10
16,57	,	35478	,	-7873	,	-4870	,	10.075416	,	11
16,57	,	35494	,	-7871	,	-4875	,	11.285781	,	12
16,57	,	35526	,	-7872	,	-4879	,	11.981864	,	13
16,57	,	35542	,	-7869	,	-4877	,	12.095161	,	12
16,57	,	35574	,	-7880	,	-4887	,	11.608105	,	11
16,57	,	35590	,	-7872	,	-4885	,	10.520159	,	9
16,57	,	35606	,	-7875	,	-4885	,	8.932997	,	7
16,57	,	35638	,	-7873	,	-4888	,	7.0775056	,	5
16,57	,	35654	,	-7878	,	-4892	,	5.1760697	,	3
16,57	,	35670	,	-7876	,	-4889	,	3.3704658	,	2
16,57	,	35702	,	-7875	,	-4895	,	1.7689323	,	1
16,57	,	35718	,	-7877	,	-4885	,	0.46514177	,	0
16,58	,	35750	,	-7880	,	-4893	,	-0.5154481	,	0
16,58	,	35766	,	-7878	,	-4891	,	-1.2198935	,	0
16,58	,	35782	,	-7872	,	-4898	,	-1.6597233	,	0
16,58	,	35814	,	-7880	,	-4896	,	-1.8002068	,	0
16,58	,	35830	,	-7876	,	-4898	,	-1.6876829	,	0
16,58	,	35846	,	-7877	,	-4894	,	-1.4317203	,	0
16,58	,	35878	,	-7868	,	-4900	,	-1.0668042	,	0
16,58	,	35894	,	-7871	,	-4899	,	-0.54248434	,	0
16,58	,	35910	,	-7870	,	-4900	,	0.15431625	,	0
16,58	,	35942	,	-7873	,	-4903	,	0.924662	,	0
16,58	,	35958	,	-7880	,	-4903	,	1.5791955	,	0
16,58	,	35990	,	-7880	,	-4905	,	1.8918376	,	0
16,58	,	36006	,	-7879	,	-4910	,	1.7349436	,	0
16,58	,	36022	,	-7890	,	-4905	,	1.1292102	,	0
16,58	,	36054	,	-7882	,	-4906	,	0.15052831	,	0
16,58	,	36070	,	-7892	,	-4911	,	-1.0756669	,	0
16,58	,	36086	,	-7903	,	-4913	,	-2.4572368	,	0
16,58	,	36118	,	-7903	,	-4914	,	-4.032035	,	0
16,58	,	36134	,	-7908	,	-4905	,	-5.8045254	,	0
16,58	,	36166	,	-7888	,	-4907	,	-7.5398207	,	0
16,58	,	36182	,	-7892	,	-4908	,	-8.758883	,	0
16,58	,	36198	,	-7881	,	-4900	,	-9.002581	,	0
16,58	,	36230	,	-7888	,	-4903	,	-8.117102	,	0
16,58	,	36246	,	-7873	,	-4896	,	-6.248242	,	0
16,58	,	36262	,	-7866	,	-4907	,	-3.612	,	1
16,58	,	36294	,	-7871	,	-4901	,	-0.41998696	,	3
16,58	,	36310	,	-7869	,	-4901	,	2.9552524	,	6
16,58	,	36326	,	-7866	,	-4902	,	6.035079	,	9
16,58	,	36358	,	-7869	,	-4904	,	8.454745	,	12
16,58	,	36374	,	-7866	,	-4905	,	10.003754	,	14
16,58	,	36406	,	-7872	,	-4903	,	10.600357	,	15
16,58	,	36422	,	-7873	,	-4902	,	10.269227	,	15
16,58	,	36438	,	-7877	,	-4908	,	9.111077	,	15
16,58	,	36470	,	-7872	,	-4903	,	7.318411	,	14
16,58	,	36486	,	-7878	,	-4897	,	5.168437	,	12
16,58	,	36502	,	-7873	,	-4906	,	2.9514604	,	9
16,58	,	36534	,	-7883	,	-4904	,	0.8900502	,	6
16,58	,	36550	,	-7882	,	-4904	,	-0.92326427	,	3
16,58	,	36582	,	-7877	,	-4905	,	-2.449152	,	1
16,58	,	36598	,	-7885	,	-4904	,	-3.6064048	,	0
16,58	,	36613	,	-7893	,	-4900	,	-4.417645	,	0
16,58	,	36646	,	-7884	,	-4901	,	-5.0339913	,	0
16,58	,	36662	,	-7895	,	-4906	,	-5.5290112	,	0
16,58	,	36678	,	-7893	,	-4904	,	-5.911608	,	0
16,58	,	36710	,	-7896	,	-4905	,	-6.210372	,	0
16,58	,	36726	,	-7891	,	-4911	,	-6.4044447	,	0
16,58	,	36742	,	-7903	,	-4900	,	-6.4480495	,	0
16,59	,	36773	,	-7898	,	-4910	,	-6.3736067	,	0
16,59	,	36789	,	-7904	,	-4908	,	-6.2536983	,	0
16,59	,	36822	,	-7901	,	-4908	,	-6.116165	,	0
16,59	,	36838	,	-7917	,	-4912	,	-6.001748	,	0
16,59	,	36854	,	-7918	,	-4895	,	-6.0632076	,	0
16,59	,	36886	,	-7917	,	-4899	,	-6.4425535	,	0
16,59	,	36902	,	-7926	,	-4905	,	-7.1066904	,	0
16,59	,	36917	,	-7923	,	-4900	,	-7.925063	,	0
16,59	,	36950	,	-7940	,	-4898	,	-8.81134	,	0
16,59	,	36965	,	-7924	,	-4897	,	-9.716777	,	0
16,59	,	36998	,	-7933	,	-4897	,	-10.485388	,	0
16,59	,	37014	,	-7926	,	-4888	,	-10.8729725	,	0
16,59	,	37030	,	-7927	,	-4888	,	-10.713509	,	0
16,59	,	37062	,	-7924	,	-4881	,	-9.948282	,	0
16,59	,	37078	,	-7915	,	-4888	,	-8.582635	,	0
16,59	,	37093	,	-7914	,	-4881	,	-6.64576	,	1
16,59	,	37125	,	-7905	,	-4885	,	-4.1988645	,	2
16,59	,	37141	,	-7904	,	-4887	,	-1.3647995	,	4
16,59	,	37158	,	-7901	,	-4887	,	1.654741	,	6
16,59	,	37190	,	-7905	,	-4887	,	4.555138	,	9
16,59	,	37206	,	-7902	,	-4891	,	6.9809933	,	11
16,59	,	37237	,	-7901	,	-4890	,	8.668604	,	13
16,59	,	37254	,	-7900	,	-4896	,	9.539279	,	14
16,59	,	37269	,	-7901	,	-4898	,	9.655995	,	14
16,59	,	37301	,	-7906	,	-4898	,	9.122271	,	13
16,59	,	37317	,	-7903	,	-4903	,	8.038376	,	12
16,59	,	37333	,	-7895	,	-4892	,	6.5917954	,	10
16,59	,	37366	,	-7896	,	-4898	,	5.1047535	,	8
16,59	,	37382	,	-7903	,	-4895	,	3.8299472	,	5
16,59	,	37413	,	-7900	,	-4900	,	2.7914124	,	3
16,59	,	37430	,	-7895	,	-4896	,	1.9448936	,	1
16,59	,	37445	,	-7890	,	-4902	,	1.3624325	,	0
16,59	,	37477	,	-7897	,	-4896	,	1.1427165	,	0
16,59	,	37493	,	-7899	,	-4904	,	1.2178438	,	0
16,59	,	37509	,	-7890	,	-4903	,	1.4146302	,	0
16,59	,	37542	,	-7890	,	-4905	,	1.6746726	,	0
16,59	,	37558	,	-7895	,	-4909	,	2.0110407	,	0
16,59	,	37589	,	-7892	,	-4907	,	2.341719	,	0
16,59	,	37605	,	-7901	,	-4915	,	2.511559	,	0
16,59	,	37621	,	-7896	,	-4910	,	2.3894336	,	0
16,59	,	37653	,	-7897	,	-4912	,	1.9616892	,	0
16,59	,	37669	,	-7899	,	-4911	,	1.3358587	,	0
16,59	,	37685	,	-7897	,	-4916	,	0.6363764	,	0
16,59	,	37717	,	-7911	,	-4911	,	-0.09633279	,	0
16,59	,	37733	,	-7910	,	-4913	,	-0.9571071	,	0
17,0	,	37749	,	-7914	,	-4918	,	-2.0489726	,	0
17,0	,	37781	,	-7916	,	-4920	,	-3.342243	,	0
17,0	,	37797	,	-7921	,	-4921	,	-4.7326784	,	0
17,0	,	37829	,	-7924	,	-4919	,	-6.1202173	,	0
17,0	,	37845	,	-7939	,	-4919	,	-7.4728956	,	0
17,0	,	37861	,	-7933	,	-4919	,	-8.835126	,	0
17,0	,	37893	,	-7924	,	-4918	,	-10.10232	,	0
17,0	,	37909	,	-7922	,	-4914	,	-10.90407	,	0
17,0	,	37925	,	-7916	,	-4921	,	-10.862322	,	0
17,0	,	37957	,	-7909	,	-4917	,	-9.795816	,	0
17,0	,	37973	,	-7910	,	-4915	,	-7.730558	,	1
17,0	,	38005	,	-7909	,	-4916	,	-4.92278	,	3
17,0	,	38021	,	-7904	,	-4910	,	-1.7851768	,	5
17,0	,	38038	,	-7902	,	-4915	,	1.3006246	,	8
17,0	,	38069	,	-7907	,	-4913	,	4.033382	,	11
17,0	,	38085	,	-7909	,	-4909	,	6.122196	,	13
17,0	,	38101	,	-7904	,	-4911	,	7.3580036	,	15
17,0	,	38133	,	-7902	,	-4907	,	7.758952	,	16
17,0	,	38149	,	-7904	,	-4917	,	7.516246	,	16
17,0	,	38165	,	-7907	,	-4913	,	6.8161325	,	15
17,0	,	38197	,	-7918	,	-4905	,	5.730562	,	13
17,0	,	38213	,	-7917	,	-4910	,	4.227641	,	11
17,0	,	38245	,	-7906	,	-4918	,	2.3869507	,	8
17,0	,	38261	,	-7914	,	-4913	,	0.52367115	,	5
17,0	,	38277	,	-7914	,	-4909	,	-1.0632232	,	3
17,0	,	38309	,	-7911	,	-4911	,	-2.2513254	,	1
17,0	,	38325	,	-7917	,	-4909	,	-3.0105264	,	0
17,0	,	38341	,	-7917	,	-4909	,	-3.398865	,	0
17,0	,	38373	,	-7919	,	-4915	,	-3.5431924	,	0
17,0	,	38389	,	-7926	,	-4911	,	-3.5847	,	0
17,0	,	38421	,	-7928	,	-4910	,	-3.6921587	,	0
17,0	,	38437	,	-7927	,	-4913	,	-3.985736	,	0
17,0	,	38453	,	-7930	,	-4911	,	-4.4391117	,	0
17,0	,	38485	,	-7927	,	-4912	,	-4.9222364	,	0
17,0	,	38501	,	-7940	,	-4910	,	-5.336488	,	0
17,0	,	38517	,	-7928	,	-4916	,	-5.67475	,	0
17,0	,	38549	,	-7943	,	-4911	,	-5.9396305	,	0
17,0	,	38565	,	-7938	,	-4910	,	-6.140409	,	0
17,0	,	38581	,	-7937	,	-4912	,	-6.2847524	,	0
17,0	,	38613	,	-7942	,	-4909	,	-6.314835	,	0
17,0	,	38629	,	-7938	,	-4908	,	-6.179625	,	0
17,0	,	38661	,	-7949	,	-4901	,	-5.904747	,	0
17,0	,	38677	,	-7946	,	-4902	,	-5.5949154	,	0
17,0	,	38693	,	-7949	,	-4913	,	-5.3552403	,	0
17,0	,	38725	,	-7953	,	-4905	,	-5.222309	,	0
17,0	,	38741	,	-7948	,	-4904	,	-5.184273	,	0
17,1	,	38757	,	-7958	,	-4903	,	-5.1917276	,	0
17,1	,	38789	,	-7949	,	-4900	,	-5.198457	,	0
17,1	,	38805	,	-7946	,	-4899	,	-5.1155915	,	0
17,1	,	38837	,	-7954	,	-4900	,	-4.8118076	,	0
17,1	,	38853	,	-7937	,	-4900	,	-4.223561	,	0
17,1	,	38869	,	-7935	,	-4903	,	-3.2612064	,	0
17,1	,	38901	,	-7926	,	-4900	,	-1.777148	,	0
17,1	,	38917	,	-7934	,	-4900	,	0.21422887	,	1
17,1	,	38933	,	-7930	,	-4904	,	2.4294958	,	2
17,1	,	38965	,	-7929	,	-4904	,	4.4875975	,	4
17,1	,	38981	,	-7921	,	-4904	,	6.155199	,	6
17,1	,	38997	,	-7922	,	-4900	,	7.396729	,	7
17,1	,	39029	,	-7921	,	-4903	,	8.244129	,	8
17,1	,	39045	,	-7924	,	-4901	,	8.684479	,	8
17,1	,	39077	,	-7919	,	-4908	,	8.682545	,	8
17,1	,	39093	,	-7913	,	-4905	,	8.3064995	,	8
17,1	,	39109	,	-7911	,	-4903	,	7.769876	,	7
17,1	,	39141	,	-7914	,	-4907	,	7.2695985	,	6
17,1	,	39156	,	-7917	,	-4905	,	6.819847	,	4
17,1	,	39173	,	-7901	,	-4906	,	6.373747	,	2
17,1	,	39205	,	-7915	,	-4905	,	5.9820414	,	1
17,1	,	39221	,	-7905	,	-4905	,	5.664276	,	0
17,1	,	39253	,	-7909	,	-4907	,	5.357156	,	0
17,1	,	39269	,	-7906	,	-4909	,	5.025991	,	0
17,1	,	39285	,	-7906	,	-4908	,	4.666954	,	0
17,1	,	39317	,	-7903	,	-4908	,	4.2920194	,	0
17,1	,	39333	,	-7914	,	-4906	,	3.8855062	,	0
17,1	,	39349	,	-7899	,	-4914	,	3.399709	,	0
17,1	,	39381	,	-7910	,	-4908	,	2.863735	,	0
17,1	,	39397	,	-7906	,	-4909	,	2.3347235	,	0
17,1	,	39413	,	-7917	,	-4917	,	1.7678813	,	0
17,1	,	39445	,	-7917	,	-4916	,	1.0367882	,	0
17,1	,	39461	,	-7922	,	-4915	,	0.03482163	,	0
17,1	,	39492	,	-7926	,	-4912	,	-1.2586639	,	0
17,1	,	39508	,	-7924	,	-4919	,	-2.7656522	,	0
17,1	,	39524	,	-7933	,	-4913	,	-4.33037	,	0
17,1	,	39557	,	-7937	,	-4917	,	-5.8339057	,	0
17,1	,	39573	,	-7937	,	-4920	,	-7.2408633	,	0
17,1	,	39589	,	-7936	,	-4921	,	-8.470106	,	0
17,1	,	39621	,	-7936	,	-4920	,	-9.3497505	,	0
17,1	,	39636	,	-7938	,	-4920	,	-9.728674	,	0
17,1	,	39668	,	-7941	,	-4925	,	-9.5880375	,	0
17,1	,	39685	,	-7951	,	-4918	,	-9.089687	,	0
17,1	,	39701	,	-7941	,	-4914	,	-8.473415	,	0
17,1	,	39733	,	-7936	,	-4910	,	-7.800782	,	0
17,2	,	39749	,	-7922	,	-4920	,	-6.8549337	,	0
17,2	,	39765	,	-7919	,	-4908	,	-5.3187923	,	0
17,2	,	39797	,	-7922	,	-4914	,	-3.0705154	,	1
17,2	,	39812	,	-7908	,	-4909	,	-0.2898054	,	3
17,2	,	39828	,	-7904	,	-4910	,	2.7755716	,	5
17,2	,	39860	,	-7906	,	-4902	,	5.9128046	,	8
17,2	,	39877	,	-7904	,	-4903	,	8.814173	,	11
17,2	,	39909	,	-7907	,	-4904	,	11.11502	,	13
17,2	,	39925	,	-7901	,	-4903	,	12.555658	,	15
17,2	,	39941	,	-7901	,	-4908	,	13.0812435	,	16
17,2	,	39973	,	-7910	,	-4903	,	12.767612	,	16
17,2	,	39988	,	-7908	,	-4912	,	11.680221	,	15
17,2	,	40004	,	-7904	,	-4908	,	9.949476	,	13
17,2	,	40037	,	-7901	,	-4910	,	7.8846498	,	11
17,2	,	40052	,	-7899	,	-4905	,	5.869437	,	8
17,2	,	40084	,	-7897	,	-4908	,	4.198962	,	5
17,2	,	40101	,	-7911	,	-4909	,	2.9551876	,	3
17,2	,	40117	,	-7913	,	-4906	,	1.9514673	,	1
17,2	,	40148	,	-7917	,	-4906	,	0.89977944	,	0
17,2	,	40164	,	-7913	,	-4907	,	-0.3340491	,	0
17,2	,	40180	,	-7912	,	-4907	,	-1.6472442	,	0
17,2	,	40212	,	-7915	,	-4907	,	-2.8179736	,	0
17,2	,	40228	,	-7918	,	-4911	,	-3.6995378	,	0
17,2	,	40244	,	-7921	,	-4909	,	-4.294245	,	0
17,2	,	40276	,	-7923	,	-4906	,	-4.6847687	,	0
17,2	,	40292	,	-7925	,	-4913	,	-4.95568	,	0
17,2	,	40324	,	-7922	,	-4907	,	-5.1386423	,	0
17,2	,	40340	,	-7916	,	-4903	,	-5.1618805	,	0
17,2	,	40356	,	-7921	,	-4898	,	-4.90068	,	0
17,2	,	40388	,	-7920	,	-4898	,	-4.3290186	,	0
17,2	,	40404	,	-7931	,	-4897	,	-3.5983791	,	0
17,2	,	40420	,	-7931	,	-4895	,	-2.983912	,	0
17,2	,	40452	,	-7932	,	-4905	,	-2.707386	,	0
17,2	,	40468	,	-7935	,	-4900	,	-2.8083673	,	0
17,2	,	40500	,	-7933	,	-4895	,	-3.1951203	,	0
17,2	,	40516	,	-7941	,	-4893	,	-3.7443929	,	0
17,2	,	40532	,	-7937	,	-4893	,	-4.3624067	,	0
17,2	,	40564	,	-7943	,	-4893	,	-4.9741745	,	0
17,2	,	40580	,	-7949	,	-4903	,	-5.541857	,	0
17,2	,	40596	,	-7951	,	-4904	,	-6.1101065	,	0
17,2	,	40629	,	-7941	,	-4903	,	-6.6731386	,	0
17,2	,	40644	,	-7939	,	-4900	,	-7.031489	,	0
17,2	,	40661	,	-7927	,	-4902	,	-6.871515	,	0
17,2	,	40692	,	-7923	,	-4896	,	-5.916619	,	0
17,2	,	40708	,	-7921	,	-4905	,	-4.0643015	,	0
17,2	,	40740	,	-7915	,	-4898	,	-1.4648654	,	1
17,3	,	40756	,	-7909	,	-4903	,	1.5874932	,	3
17,3	,	40772	,	-7904	,	-4898	,	4.8049946	,	6
17,3	,	40804	,	-7901	,	-4892	,	7.9294486	,	9
17,3	,	40820	,	-7895	,	-4900	,	10.728581	,	12
17,3	,	40836	,	-7900	,	-4894	,	12.997876	,	14
17,3	,	40868	,	-7889	,	-4892	,	14.570001	,	16
17,3	,	40884	,	-7887	,	-4889	,	15.4133835	,	17
17,3	,	40916	,	-7889	,	-4894	,	15.621507	,	17
17,3	,	40932	,	-7891	,	-4893	,	15.240017	,	16
17,3	,	40948	,	-7878	,	-4897	,	14.311235	,	14
17,3	,	40980	,	-7883	,	-4897	,	13.031298	,	11
17,3	,	40996	,	-7878	,	-4898	,	11.642069	,	8
17,3	,	41012	,	-7875	,	-4899	,	10.305901	,	5
17,3	,	41044	,	-7880	,	-4897	,	9.115633	,	3
17,3	,	41060	,	-7883	,	-4900	,	8.038382	,	1
17,3	,	41092	,	-7885	,	-4899	,	6.931516	,	0
17,3	,	41108	,	-7878	,	-4901	,	5.713641	,	0
17,3	,	41124	,	-7883	,	-4903	,	4.4508224	,	0
17,3	,	41156	,	-7889	,	-4898	,	3.2202847	,	0
17,3	,	41172	,	-7885	,	-4899	,	2.0042362	,	0
17,3	,	41188	,	-7895	,	-4902	,	0.77074385	,	0
17,3	,	41220	,	-7896	,	-4903	,	-0.5072304	,	0
17,3	,	41236	,	-7896	,	-4903	,	-1.8426697	,	0
17,3	,	41252	,	-7894	,	-4904	,	-3.1378527	,	0
17,3	,	41284	,	-7898	,	-4906	,	-4.224053	,	0
17,3	,	41300	,	-7911	,	-4904	,	-5.0570393	,	0
17,3	,	41332	,	-7901	,	-4909	,	-5.7438736	,	0
17,3	,	41348	,	-7904	,	-4912	,	-6.3065295	,	0
17,3	,	41364	,	-7913	,	-4912	,	-6.671094	,	0
17,3	,	41396	,	-7908	,	-4907	,	-6.8573956	,	0
17,3	,	41412	,	-7924	,	-4909	,	-6.9718637	,	0
17,3	,	41428	,	-7913	,	-4910	,	-7.125034	,	0
17,3	,	41460	,	-7915	,	-4909	,	-7.2984757	,	0
17,3	,	41476	,	-7927	,	-4916	,	-7.3836155	,	0
17,3	,	41508	,	-7927	,	-4908	,	-7.4273834	,	0
17,3	,	41524	,	-7912	,	-4907	,	-7.485648	,	0
17,3	,	41540	,	-7911	,	-4911	,	-7.3370485	,	0
17,3	,	41572	,	-7907	,	-4908	,	-6.6632442	,	0
17,3	,	41588	,	-7899	,	-4904	,	-5.3107023	,	0
17,3	,	41604	,	-7896	,	-4903	,	-3.2812283	,	1
17,3	,	41636	,	-7896	,	-4900	,	-0.7271712	,	3
17,3	,	41652	,	-7885	,	-4893	,	2.0747395	,	5
17,3	,	41668	,	-7890	,	-4901	,	4.8576756	,	7
17,3	,	41700	,	-7882	,	-4900	,	7.3848486	,	9
17,3	,	41716	,	-7880	,	-4897	,	9.462326	,	11
17,3	,	41748	,	-7892	,	-4894	,	10.938581	,	13
17,4	,	41764	,	-7886	,	-4897	,	11.623697	,	14
17,4	,	41780	,	-7886	,	-4897	,	11.421263	,	14
17,4	,	41812	,	-7878	,	-4896	,	10.50116	,	13
17,4	,	41828	,	-7874	,	-4891	,	9.231429	,	11
17,4	,	41844	,	-7883	,	-4898	,	7.9524784	,	9
17,4	,	41876	,	-7879	,	-4892	,	6.778981	,	7
17,4	,	41892	,	-7887	,	-4888	,	5.647029	,	5
17,4	,	41924	,	-7889	,	-4895	,	4.447422	,	3
17,4	,	41940	,	-7889	,	-4893	,	3.0963995	,	1
17,4	,	41956	,	-7888	,	-4895	,	1.6236603	,	0
17,4	,	41988	,	-7884	,	-4894	,	0.19260979	,	0
17,4	,	42004	,	-7887	,	-4889	,	-0.9923618	,	0
17,4	,	42019	,	-7894	,	-4889	,	-1.8397527	,	0
17,4	,	42052	,	-7895	,	-4893	,	-2.4400442	,	0
17,4	,	42068	,	-7897	,	-4892	,	-2.9432247	,	0
17,4	,	42084	,	-7899	,	-4890	,	-3.4324124	,	0
17,4	,	42116	,	-7907	,	-4893	,	-3.9544637	,	0
17,4	,	42132	,	-7906	,	-4887	,	-4.5673623	,	0
17,4	,	42164	,	-7910	,	-4886	,	-5.2825003	,	0
17,4	,	42180	,	-7910	,	-4882	,	-6.0311136	,	0
17,4	,	42196	,	-7913	,	-4888	,	-6.7130213	,	0
17,4	,	42228	,	-7918	,	-4883	,	-7.2628145	,	0
17,4	,	42244	,	-7916	,	-4879	,	-7.6715784	,	0
17,4	,	42260	,	-7919	,	-4883	,	-7.9260178	,	0
17,4	,	42292	,	-7914	,	-4884	,	-7.966447	,	0
17,4	,	42308	,	-7916	,	-4888	,	-7.711242	,	0
17,4	,	42340	,	-7925	,	-4885	,	-7.161652	,	0
17,4	,	42355	,	-7923	,	-4889	,	-6.482394	,	0
17,4	,	42371	,	-7918	,	-4881	,	-5.832984	,	0
17,4	,	42403	,	-7910	,	-4883	,	-5.1597214	,	0
17,4	,	42419	,	-7904	,	-4886	,	-4.2382402	,	0
17,4	,	42436	,	-7904	,	-4887	,	-2.876316	,	0
17,4	,	42468	,	-7912	,	-4891	,	-1.1246512	,	1
17,4	,	42484	,	-7898	,	-4887	,	0.75191617	,	2
17,4	,	42500	,	-7892	,	-4886	,	2.583145	,	3
17,4	,	42531	,	-7888	,	-4891	,	4.399194	,	4
17,4	,	42547	,	-7884	,	-4888	,	6.238912	,	5
17,4	,	42579	,	-7885	,	-4891	,	8.027119	,	6
17,4	,	42595	,	-7893	,	-4886	,	9.540937	,	7
17,4	,	42612	,	-7878	,	-4887	,	10.520613	,	8
17,4	,	42644	,	-7881	,	-4884	,	10.912628	,	8
17,4	,	42660	,	-7875	,	-4886	,	10.85902	,	7
17,4	,	42676	,	-7881	,	-4895	,	10.489742	,	6
17,4	,	42708	,	-7877	,	-4885	,	9.85067	,	5
17,4	,	42724	,	-7878	,	-4889	,	8.969488	,	4
17,5	,	42755	,	-7866	,	-4892	,	7.960175	,	3
17,5	,	42771	,	-7868	,	-4887	,	7.0423484	,	2
17,5	,	42787	,	-7868	,	-4893	,	6.384746	,	1
17,5	,	42820	,	-7870	,	-4889	,	5.963686	,	0
17,5	,	42835	,	-7882	,	-4892	,	5.574053	,	0
17,5	,	42851	,	-7870	,	-4891	,	4.9720345	,	0
17,5	,	42883	,	-7868	,	-4892	,	4.1331024	,	0
17,5	,	42899	,	-7878	,	-4896	,	3.2292407	,	0
17,5	,	42916	,	-7873	,	-4894	,	2.340037	,	0
17,5	,	42947	,	-7888	,	-4899	,	1.400011	,	0
17,5	,	42963	,	-7881	,	-4895	,	0.30897653	,	0
17,5	,	42995	,	-7885	,	-4895	,	-0.9398118	,	0
17,5	,	43011	,	-7887	,	-4899	,	-2.2264318	,	0
17,5	,	43027	,	-7888	,	-4901	,	-3.4243152	,	0
17,5	,	43060	,	-7892	,	-4903	,	-4.4543605	,	0
17,5	,	43076	,	-7901	,	-4900	,	-5.3185263	,	0
17,5	,	43091	,	-7901	,	-4908	,	-6.1194835	,	0
17,5	,	43123	,	-7910	,	-4906	,	-6.967567	,	0
17,5	,	43139	,	-7910	,	-4909	,	-7.9119267	,	0
17,5	,	43171	,	-7905	,	-4903	,	-8.874246	,	0
17,5	,	43187	,	-7908	,	-4904	,	-9.621042	,	0
17,5	,	43203	,	-7910	,	-4902	,	-9.943637	,	0
17,5	,	43235	,	-7904	,	-4897	,	-9.774586	,	0
17,5	,	43251	,	-7891	,	-4897	,	-9.034024	,	0
17,5	,	43267	,	-7896	,	-4905	,	-7.5871797	,	0
17,5	,	43299	,	-7883	,	-4901	,	-5.4238906	,	1
17,5	,	43315	,	-7886	,	-4897	,	-2.7029076	,	3
17,5	,	43331	,	-7884	,	-4900	,	0.29723358	,	5
17,5	,	43363	,	-7889	,	-4896	,	3.1817842	,	8
17,5	,	43379	,	-7883	,	-4899	,	5.5530996	,	10
17,5	,	43411	,	-7880	,	-4898	,	7.203537	,	12
17,5	,	43427	,	-7879	,	-4894	,	8.159944	,	13
17,5	,	43443	,	-7878	,	-4900	,	8.547614	,	13
17,5	,	43475	,	-7890	,	-4899	,	8.426779	,	13
17,5	,	43491	,	-7886	,	-4895	,	7.7504663	,	12
17,5	,	43508	,	-7886	,	-4896	,	6.5318756	,	10
17,5	,	43539	,	-7887	,	-4896	,	4.958914	,	8
17,5	,	43555	,	-7880	,	-4895	,	3.305608	,	5
17,5	,	43587	,	-7891	,	-4891	,	1.8057895	,	3
17,5	,	43603	,	-7888	,	-4898	,	0.5412965	,	1
17,5	,	43619	,	-7891	,	-4898	,	-0.515301	,	0
17,5	,	43651	,	-7892	,	-4898	,	-1.3888607	,	0
17,5	,	43667	,	-7890	,	-4896	,	-2.0857115	,	0
17,5	,	43683	,	-7897	,	-4901	,	-2.6049795	,	0
17,5	,	43715	,	-7898	,	-4900	,	-2.9966238	,	0
17,5	,	43731	,	-7904	,	-4897	,	-3.3779557	,	0
17,6	,	43747	,	-7898	,	-4899	,	-3.8245797	,	0
17,6	,	43779	,	-7908	,	-4902	,	-4.3100643	,	0
17,6	,	43795	,	-7901	,	-4897	,	-4.767781	,	0
17,6	,	43827	,	-7912	,	-4905	,	-5.149437	,	0
17,6	,	43843	,	-7915	,	-4899	,	-5.4891195	,	0
17,6	,	43859	,	-7911	,	-4905	,	-5.868348	,	0
17,6	,	43891	,	-7912	,	-4901	,	-6.2421613	,	0
17,6	,	43907	,	-7917	,	-4896	,	-6.4810743	,	0
17,6	,	43923	,	-7922	,	-4897	,	-6.572881	,	0
17,6	,	43955	,	-7925	,	-4901	,	-6.634985	,	0
17,6	,	43971	,	-7940	,	-4894	,	-6.845059	,	0
17,6	,	44003	,	-7934	,	-4899	,	-7.3752594	,	0
17,6	,	44019	,	-7936	,	-4887	,	-8.209271	,	0
17,6	,	44035	,	-7925	,	-4887	,	-9.052818	,	0
17,6	,	44067	,	-7916	,	-4885	,	-9.447617	,	0
17,6	,	44083	,	-7915	,	-4885	,	-8.9685135	,	0
17,6	,	44099	,	-7915	,	-4882	,	-7.4773917	,	0
17,6	,	44131	,	-7904	,	-4881	,	-5.152799	,	1
17,6	,	44147	,	-7899	,	-4886	,	-2.2406778	,	3
17,6	,	44179	,	-7896	,	-4883	,	1.0462642	,	5
17,6	,	44195	,	-7908	,	-4882	,	4.3680696	,	8
17,6	,	44211	,	-7903	,	-4886	,	7.204425	,	11
17,6	,	44243	,	-7902	,	-4888	,	9.124464	,	13
17,6	,	44259	,	-7905	,	-4886	,	9.998873	,	14
17,6	,	44275	,	-7900	,	-4893	,	9.922586	,	14
17,6	,	44307	,	-7900	,	-4888	,	9.123778	,	14
17,6	,	44323	,	-7897	,	-4889	,	7.907955	,	13
17,6	,	44339	,	-7912	,	-4897	,	6.496233	,	11
17,6	,	44371	,	-7900	,	-4886	,	4.9481063	,	9
17,6	,	44387	,	-7904	,	-4892	,	3.3461454	,	6
17,6	,	44419	,	-7905	,	-4896	,	1.8657935	,	3
17,6	,	44435	,	-7902	,	-4895	,	0.6336503	,	1
17,6	,	44451	,	-7901	,	-4898	,	-0.27950323	,	0
17,6	,	44483	,	-7899	,	-4900	,	-0.8156025	,	0
17,6	,	44499	,	-7903	,	-4897	,	-0.9760292	,	0
17,6	,	44515	,	-7911	,	-4896	,	-0.8995305	,	0
17,6	,	44547	,	-7910	,	-4902	,	-0.8442824	,	0
17,6	,	44562	,	-7905	,	-4906	,	-0.977059	,	0
17,6	,	44595	,	-7902	,	-4905	,	-1.2228329	,	0
17,6	,	44611	,	-7899	,	-4901	,	-1.3735673	,	0
17,6	,	44627	,	-7905	,	-4907	,	-1.2860367	,	0
17,6	,	44659	,	-7917	,	-4902	,	-1.0446299	,	0
17,6	,	44675	,	-7909	,	-4907	,	-0.9159686	,	0
17,6	,	44691	,	-7911	,	-4910	,	-1.0430839	,	0
17,6	,	44723	,	-7906	,	-4908	,	-1.3231361	,	0
17,6	,	44739	,	-7923	,	-4917	,	-1.6460638	,	0
17,7	,	44754	,	-7915	,	-4914	,	-2.059128	,	0
17,7	,	44787	,	-7922	,	-4913	,	-2.619322	,	0
17,7	,	44803	,	-7923	,	-4913	,	-3.2917356	,	0
17,7	,	44834	,	-7928	,	-4919	,	-4.0377464	,	0
17,7	,	44851	,	-7927	,	-4912	,	-4.821557	,	0
17,7	,	44867	,	-7944	,	-4914	,	-5.6332073	,	0
17,7	,	44899	,	-7938	,	-4909	,	-6.550973	,	0
17,7	,	44915	,	-7926	,	-4912	,	-7.518813	,	0
17,7	,	44931	,	-7934	,	-4919	,	-8.208083	,	0
17,7	,	44963	,	-7922	,	-4911	,	-8.297385	,	0
17,7	,	44979	,	-7915	,	-4906	,	-7.602128	,	0
17,7	,	45010	,	-7920	,	-4910	,	-6.056464	,	0
17,7	,	45026	,	-7912	,	-4908	,	-3.8218372	,	1
17,7	,	45042	,	-7915	,	-4905	,	-1.2259197	,	3
17,7	,	45075	,	-7909	,	-4916	,	1.3948903	,	5
17,7	,	45091	,	-7907	,	-4911	,	3.7791815	,	7
17,7	,	45107	,	-7903	,	-4909	,	5.7849526	,	9
17,7	,	45139	,	-7911	,	-4912	,	7.3136945	,	11
17,7	,	45154	,	-7904	,	-4910	,	8.247244	,	12
17,7	,	45170	,	-7911	,	-4902	,	8.525544	,	12
17,7	,	45202	,	-7912	,	-4916	,	8.165671	,	12
17,7	,	45218	,	-7908	,	-4909	,	7.242695	,	11
17,7	,	45251	,	-7911	,	-4916	,	5.9327145	,	9
17,7	,	45267	,	-7911	,	-4912	,	4.452015	,	7
17,7	,	45283	,	-7911	,	-4910	,	2.9700127	,	5
17,7	,	45314	,	-7920	,	-4915	,	1.5792961	,	3
17,7	,	45330	,	-7912	,	-4905	,	0.29322243	,	1
17,7	,	45346	,	-7916	,	-4913	,	-0.8520391	,	0
17,7	,	45378	,	-7919	,	-4916	,	-1.7884045	,	0
17,7	,	45394	,	-7922	,	-4914	,	-2.5286515	,	0
17,7	,	45426	,	-7918	,	-4913	,	-3.1192746	,	0
17,7	,	45443	,	-7930	,	-4913	,	-3.582266	,	0
17,7	,	45459	,	-7926	,	-4918	,	-3.9855294	,	0
17,7	,	45490	,	-7929	,	-4920	,	-4.3943033	,	0
17,7	,	45507	,	-7926	,	-4918	,	-4.7704134	,	0
17,7	,	45522	,	-7929	,	-4915	,	-5.0158763	,	0
17,7	,	45554	,	-7935	,	-4912	,	-5.089721	,	0
17,7	,	45570	,	-7942	,	-4918	,	-5.1009808	,	0
17,7	,	45586	,	-7933	,	-4917	,	-5.201765	,	0
17,7	,	45618	,	-7942	,	-4912	,	-5.396144	,	0
17,7	,	45635	,	-7946	,	-4923	,	-5.6333723	,	0
17,7	,	45666	,	-7953	,	-4916	,	-5.9727497	,	0
17,7	,	45682	,	-7955	,	-4918	,	-6.511043	,	0
17,7	,	45698	,	-7950	,	-4915	,	-7.217968	,	0
17,7	,	45730	,	-7954	,	-4922	,	-7.8983927	,	0
17,7	,	45746	,	-7960	,	-4918	,	-8.373156	,	0
17,8	,	45762	,	-7958	,	-4908	,	-8.615075	,	0
17,8	,	45794	,	-7960	,	-4910	,	-8.644285	,	0
17,8	,	45810	,	-7962	,	-4918	,	-8.459936	,	0
17,8	,	45843	,	-7966	,	-4911	,	-8.107019	,	0
17,8	,	45858	,	-7968	,	-4912	,	-7.6884904	,	0
17,8	,	45874	,	-7962	,	-4907	,	-7.26579	,	0
17,8	,	45906	,	-7964	,	-4896	,	-6.784505	,	0
17,8	,	45922	,	-7960	,	-4900	,	-6.1429996	,	0
17,8	,	45938	,	-7954	,	-4906	,	-5.255928	,	0
17,8	,	45970	,	-7947	,	-4898	,	-4.018183	,	0
17,8	,	45986	,	-7948	,	-4894	,	-2.3573692	,	1
17,8	,	46018	,	-7945	,	-4900	,	-0.35963035	,	2
17,8	,	46034	,	-7941	,	-4895	,	1.764864	,	3
17,8	,	46050	,	-7933	,	-4899	,	3.8427188	,	5
17,8	,	46082	,	-7947	,	-4896	,	5.731179	,	7
17,8	,	46098	,	-7933	,	-4902	,	7.22616	,	8
17,8	,	46114	,	-7932	,	-4898	,	8.217685	,	9
17,8	,	46146	,	-7932	,	-4897	,	8.782896	,	9
17,8	,	46162	,	-7926	,	-4904	,	9.028164	,	9
17,8	,	46194	,	-7929	,	-4901	,	9.0275345	,	8
17,8	,	46210	,	-7930	,	-4905	,	8.807418	,	7
17,8	,	46226	,	-7934	,	-4911	,	8.313698	,	6
17,8	,	46258	,	-7925	,	-4906	,	7.5176945	,	4
17,8	,	46274	,	-7927	,	-4909	,	6.533398	,	2
17,8	,	46290	,	-7937	,	-4908	,	5.4898243	,	1
17,8	,	46322	,	-7933	,	-4907	,	4.369529	,	0
17,8	,	46338	,	-7929	,	-4911	,	3.158739	,	0
17,8	,	46354	,	-7929	,	-4910	,	1.9940233	,	0
17,8	,	46386	,	-7925	,	-4906	,	1.0613923	,	0
17,8	,	46402	,	-7932	,	-4911	,	0.46047354	,	0
17,8	,	46434	,	-7923	,	-4916	,	0.17268324	,	0
17,8	,	46450	,	-7920	,	-4913	,	0.17732888	,	0
17,8	,	46466	,	-7936	,	-4913	,	0.43484667	,	0
17,8	,	46498	,	-7924	,	-4914	,	0.7529556	,	0
17,8	,	46514	,	-7925	,	-4920	,	0.9709037	,	0
17,8	,	46530	,	-7932	,	-4912	,	1.0795777	,	0
17,8	,	46562	,	-7927	,	-4918	,	1.0575718	,	0
17,8	,	46578	,	-7937	,	-4918	,	0.84734595	,	0
17,8	,	46610	,	-7929	,	-4917	,	0.4210602	,	0
17,8	,	46626	,	-7937	,	-4917	,	-0.18399003	,	0
17,8	,	46642	,	-7943	,	-4922	,	-0.91943395	,	0
17,8	,	46674	,	-7935	,	-4917	,	-1.7724757	,	0
17,8	,	46690	,	-7940	,	-4917	,	-2.650516	,	0
17,8	,	46706	,	-7957	,	-4923	,	-3.4825203	,	0
17,8	,	46738	,	-7946	,	-4921	,	-4.368303	,	0
17,9	,	46754	,	-7948	,	-4925	,	-5.3209558	,	0
17,9	,	46786	,	-7956	,	-4923	,	-6.1751585	,	0
17,9	,	46802	,	-7955	,	-4927	,	-6.838073	,	0
17,9	,	46818	,	-7966	,	-4925	,	-7.352102	,	0
17,9	,	46850	,	-7954	,	-4922	,	-7.7678986	,	0
17,9	,	46866	,	-7947	,	-4922	,	-7.962986	,	0
17,9	,	46882	,	-7946	,	-4920	,	-7.645768	,	0
17,9	,	46914	,	-7935	,	-4920	,	-6.5925617	,	0
17,9	,	46930	,	-7942	,	-4920	,	-4.785661	,	1
17,9	,	46946	,	-7938	,	-4916	,	-2.4545548	,	2
17,9	,	46978	,	-7929	,	-4911	,	0.058345556	,	4
17,9	,	46994	,	-7931	,	-4921	,	2.5210385	,	6
17,9	,	47026	,	-7930	,	-4915	,	4.764242	,	8
17,9	,	47042	,	-7918	,	-4912	,	6.6444926	,	10
17,9	,	47058	,	-7920	,	-4910	,	8.15486	,	11
17,9	,	47090	,	-7919	,	-4908	,	9.329858	,	12
17,9	,	47106	,	-7921	,	-4913	,	10.101533	,	13
17,9	,	47122	,	-7920	,	-4910	,	10.362016	,	12
17,9	,	47154	,	-7926	,	-4913	,	10.047411	,	11
17,9	,	47169	,	-7923	,	-4915	,	9.1527815	,	9
17,9	,	47202	,	-7922	,	-4908	,	7.7762322	,	7
17,9	,	47218	,	-7923	,	-4908	,	6.1264577	,	5
17,9	,	47234	,	-7931	,	-4920	,	4.389115	,	3
17,9	,	47266	,	-7916	,	-4912	,	2.6906466	,	2
17,9	,	47281	,	-7922	,	-4914	,	1.2285025	,	1
17,9	,	47298	,	-7924	,	-4913	,	0.17932439	,	0
17,9	,	47329	,	-7925	,	-4906	,	-0.47491407	,	0
17,9	,	47345	,	-7927	,	-4911	,	-0.8655617	,	0
17,9	,	47362	,	-7932	,	-4908	,	-1.1393837	,	0
17,9	,	47394	,	-7927	,	-4911	,	-1.4184568	,	0
17,9	,	47410	,	-7937	,	-4910	,	-1.7582984	,	0
17,9	,	47442	,	-7937	,	-4916	,	-2.2087426	,	0
17,9	,	47458	,	-7938	,	-4917	,	-2.8129795	,	0
17,9	,	47474	,	-7939	,	-4917	,	-3.5170605	,	0
17,9	,	47505	,	-7938	,	-4918	,	-4.1935744	,	0
17,9	,	47521	,	-7946	,	-4916	,	-4.7432156	,	0
17,9	,	47537	,	-7947	,	-4912	,	-5.169054	,	0
17,9	,	47570	,	-7953	,	-4915	,	-5.5549545	,	0
17,9	,	47586	,	-7960	,	-4917	,	-6.014124	,	0
17,9	,	47617	,	-7952	,	-4919	,	-6.611325	,	0
17,9	,	47633	,	-7954	,	-4914	,	-7.224619	,	0
17,9	,	47649	,	-7959	,	-4910	,	-7.6374974	,	0
17,9	,	47681	,	-7959	,	-4907	,	-7.7684956	,	0
17,9	,	47697	,	-7968	,	-4908	,	-7.692281	,	0
17,9	,	47713	,	-7967	,	-4908	,	-7.5507565	,	0
17,9	,	47746	,	-7963	,	-4908	,	-7.4177213	,	0
17,10	,	47762	,	-7960	,	-4901	,	-7.197961	,	0
17,10	,	47778	,	-7969	,	-4896	,	-6.7708645	,	0
17,10	,	47809	,	-7962	,	-4892	,	-6.1521425	,	0
17,10	,	47825	,	-7958	,	-4889	,	-5.3783946	,	0
17,10	,	47857	,	-7949	,	-4887	,	-4.3572974	,	0
17,10	,	47873	,	-7951	,	-4891	,	-2.9620907	,	1
17,10	,	47889	,	-7934	,	-4884	,	-1.1483448	,	2
17,10	,	47921	,	-7934	,	-4885	,	1.0939033	,	3
17,10	,	47938	,	-7934	,	-4889	,	3.6827972	,	5
17,10	,	47953	,	-7930	,	-4893	,	6.3386593	,	7
17,10	,	47985	,	-7927	,	-4890	,	8.731526	,	9
17,10	,	48001	,	-7929	,	-4890	,	10.624841	,	11
17,10	,	48033	,	-7926	,	-4893	,	11.854496	,	12
17,10	,	48049	,	-7926	,	-4896	,	12.344904	,	13
17,10	,	48065	,	-7922	,	-4891	,	12.146542	,	12
17,10	,	48097	,	-7919	,	-4899	,	11.429104	,	11
17,10	,	48113	,	-7919	,	-4897	,	10.421259	,	10
17,10	,	48129	,	-7921	,	-4898	,	9.292121	,	8
17,10	,	48161	,	-7919	,	-4897	,	8.109451	,	6
17,10	,	48177	,	-7919	,	-4898	,	6.911772	,	4
17,10	,	48193	,	-7917	,	-4899	,	5.7557373	,	2
17,10	,	48225	,	-7915	,	-4901	,	4.7139034	,	1
17,10	,	48241	,	-7916	,	-4904	,	3.8534591	,	0
17,10	,	48273	,	-7921	,	-4897	,	3.1723797	,	0
17,10	,	48289	,	-7914	,	-4898	,	2.6015763	,	0
17,10	,	48305	,	-7913	,	-4897	,	2.1295137	,	0
17,10	,	48337	,	-7908	,	-4904	,	1.8414357	,	0
17,10	,	48353	,	-7912	,	-4900	,	1.8027544	,	0
17,10	,	48369	,	-7909	,	-4904	,	1.9721313	,	0
17,10	,	48401	,	-7899	,	-4902	,	2.296179	,	0
17,10	,	48417	,	-7901	,	-4901	,	2.814211	,	0
17,10	,	48449	,	-7915	,	-4905	,	3.4704962	,	0
17,10	,	48465	,	-7915	,	-4901	,	3.9415836	,	0
17,10	,	48481	,	-7905	,	-4904	,	3.9343715	,	0
17,10	,	48513	,	-7913	,	-4912	,	3.4782646	,	0
17,10	,	48529	,	-7912	,	-4908	,	2.7426567	,	0
17,10	,	48545	,	-7919	,	-4909	,	1.8185943	,	0
17,10	,	48577	,	-7911	,	-4910	,	0.76538837	,	0
17,10	,	48593	,	-7914	,	-4906	,	-0.2829926	,	0
17,10	,	48609	,	-7923	,	-4913	,	-1.201542	,	0
17,10	,	48641	,	-7923	,	-4912	,	-2.0294101	,	0
17,10	,	48657	,	-7933	,	-4916	,	-2.903613	,	0
17,10	,	48689	,	-7942	,	-4917	,	-3.9711456	,	0
17,10	,	48705	,	-7939	,	-4914	,	-5.3394413	,	0
17,10	,	48721	,	-7948	,	-4915	,	-6.957818	,	0
17,11	,	48753	,	-7935	,	-4913	,	-8.595478	,	0
17,11	,	48769	,	-7925	,	-4903	,	-9.830133	,	0
17,11	,	48785	,	-7917	,	-4907	,	-10.113232	,	0
17,11	,	48817	,	-7908	,	-4910	,	-9.042797	,	0
17,11	,	48833	,	-7918	,	-4908	,	-6.6152678	,	1
17,11	,	48865	,	-7906	,	-4910	,	-3.2558718	,	3
17,11	,	48881	,	-7902	,	-4912	,	0.4788766	,	6
17,11	,	48897	,	-7901	,	-4903	,	4.1706033	,	9
17,11	,	48929	,	-7901	,	-4905	,	7.4767494	,	12
17,11	,	48945	,	-7898	,	-4909	,	10.0854435	,	15
17,11	,	48961	,	-7897	,	-4902	,	11.810286	,	17
17,11	,	48993	,	-7899	,	-4905	,	12.605011	,	18
17,11	,	49009	,	-7896	,	-4903	,	12.513962	,	18
17,11	,	49025	,	-7884	,	-4901	,	11.7355795	,	17
17,11	,	49057	,	-7889	,	-4904	,	10.634932	,	15
17,11	,	49073	,	-7891	,	-4901	,	9.492376	,	12
17,11	,	49105	,	-7891	,	-4903	,	8.352274	,	9
17,11	,	49121	,	-7897	,	-4897	,	7.1490817	,	6
17,11	,	49137	,	-7893	,	-4895	,	5.8281927	,	3
17,11	,	49169	,	-7901	,	-4899	,	4.382738	,	1
17,11	,	49185	,	-7899	,	-4906	,	2.8391757	,	0
17,11	,	49201	,	-7906	,	-4901	,	1.2337306	,	0
17,11	,	49233	,	-7899	,	-4905	,	-0.36347485	,	0
17,11	,	49249	,	-7905	,	-4896	,	-1.8222928	,	0
17,11	,	49281	,	-7898	,	-4903	,	-2.9844775	,	0
17,11	,	49297	,	-7899	,	-4903	,	-3.7087128	,	0
17,11	,	49313	,	-7910	,	-4895	,	-3.971218	,	0
17,11	,	49345	,	-7913	,	-4899	,	-3.981585	,	0
17,11	,	49361	,	-7910	,	-4903	,	-4.0211067	,	0
17,11	,	49377	,	-7915	,	-4905	,	-4.1961575	,	0
17,11	,	49409	,	-7915	,	-4897	,	-4.4729776	,	0
17,11	,	49425	,	-7918	,	-4903	,	-4.7971997	,	0
17,11	,	49441	,	-7922	,	-4904	,	-5.132201	,	0
17,11	,	49473	,	-7918	,	-4902	,	-5.4506593	,	0
17,11	,	49489	,	-7923	,	-4907	,	-5.6974583	,	0
17,11	,	49521	,	-7934	,	-4907	,	-5.874522	,	0
17,11	,	49537	,	-7932	,	-4907	,	-6.11209	,	0
17,11	,	49553	,	-7934	,	-4903	,	-6.499023	,	0
17,11	,	49585	,	-7932	,	-4902	,	-6.9544144	,	0
17,11	,	49601	,	-7938	,	-4904	,	-7.329635	,	0
17,11	,	49617	,	-7935	,	-4906	,	-7.53127	,	0
17,11	,	49648	,	-7938	,	-4903	,	-7.524791	,	0
17,11	,	49665	,	-7937	,	-4899	,	-7.2984753	,	0
17,11	,	49697	,	-7924	,	-4887	,	-6.7943506	,	0
17,11	,	49713	,	-7918	,	-4880	,	-5.8256855	,	0
17,11	,	49729	,	-7910	,	-4877	,	-4.177453	,	0
17,12	,	49761	,	-7914	,	-4881	,	-1.8290474	,	1
17,12	,	49777	,	-7912	,	-4879	,	0.94707036	,	3
17,12	,	49792	,	-7905	,	-4874	,	3.7409406	,	5
17,12	,	49824	,	-7909	,	-4875	,	6.2268124	,	7
17,12	,	49841	,	-7903	,	-4878	,	8.189475	,	9
17,12	,	49873	,	-7904	,	-4872	,	9.509747	,	10
17,12	,	49889	,	-7900	,	-4883	,	10.182903	,	11
17,12	,	49905	,	-7898	,	-4883	,	10.293162	,	11
17,12	,	49937	,	-7901	,	-4874	,	9.962606	,	11
17,12	,	49953	,	-7898	,	-4883	,	9.288103	,	10
17,12	,	49968	,	-7893	,	-4885	,	8.378927	,	8
17,12	,	50000	,	-7900	,	-4886	,	7.3816886	,	6
17,12	,	50017	,	-7895	,	-4883	,	6.380909	,	4
17,12	,	50033	,	-7911	,	-4887	,	5.3352365	,	2
17,12	,	50065	,	-7901	,	-4887	,	4.120732	,	1
17,12	,	50081	,	-7894	,	-4889	,	2.756329	,	0
17,12	,	50112	,	-7896	,	-4885	,	1.5149541	,	0
17,12	,	50128	,	-7899	,	-4888	,	0.64032006	,	0
17,12	,	50144	,	-7898	,	-4892	,	0.14720774	,	0
17,12	,	50177	,	-7902	,	-4890	,	-0.08397299	,	0
17,12	,	50193	,	-7893	,	-4891	,	-0.16174138	,	0
17,12	,	50209	,	-7907	,	-4892	,	-0.1478067	,	0
17,12	,	50241	,	-7910	,	-4891	,	-0.18832183	,	0
17,12	,	50256	,	-7899	,	-4895	,	-0.44927874	,	0
17,12	,	50288	,	-7903	,	-4899	,	-0.8688715	,	0
17,12	,	50304	,	-7905	,	-4895	,	-1.2640257	,	0
17,12	,	50320	,	-7905	,	-4901	,	-1.5569956	,	0
17,12	,	50353	,	-7906	,	-4900	,	-1.7474537	,	0
17,12	,	50369	,	-7905	,	-4893	,	-1.8416815	,	0
17,12	,	50385	,	-7904	,	-4902	,	-1.8372805	,	0
17,12	,	50416	,	-7911	,	-4897	,	-1.7560682	,	0
17,12	,	50432	,	-7908	,	-4908	,	-1.6773887	,	0
17,12	,	50448	,	-7915	,	-4909	,	-1.6888323	,	0
17,12	,	50480	,	-7913	,	-4905	,	-1.8481429	,	0
17,12	,	50496	,	-7921	,	-4902	,	-2.1878624	,	0
17,12	,	50529	,	-7922	,	-4910	,	-2.730411	,	0
17,12	,	50544	,	-7931	,	-4909	,	-3.5054216	,	0
17,12	,	50560	,	-7925	,	-4912	,	-4.498231	,	0
17,12	,	50592	,	-7925	,	-4912	,	-5.5533977	,	0
17,12	,	50608	,	-7935	,	-4910	,	-6.4614964	,	0
17,12	,	50624	,	-7923	,	-4901	,	-7.1108465	,	0
17,12	,	50656	,	-7917	,	-4896	,	-7.3564987	,	0
17,12	,	50673	,	-7911	,	-4903	,	-6.9367847	,	0
17,12	,	50704	,	-7912	,	-4899	,	-5.697813	,	0
17,12	,	50720	,	-7908	,	-4905	,	-3.7429287	,	1
17,12	,	50736	,	-7898	,	-4904	,	-1.3044207	,	2
17,13	,	50768	,	-7900	,	-4899	,	1.4050174	,	4
17,13	,	50784	,	-7898	,	-4903	,	4.1388006	,	6
17,13	,	50800	,	-7892	,	-4896	,	6.6115813	,	8
17,13	,	50832	,	-7891	,	-4903	,	8.637699	,	10
17,13	,	50848	,	-7901	,	-4898	,	10.085606	,	12
17,13	,	50865	,	-7899	,	-4902	,	10.76197	,	13
17,13	,	50896	,	-7889	,	-4898	,	10.589685	,	13
17,13	,	50912	,	-7894	,	-4898	,	9.767717	,	12
17,13	,	50944	,	-7897	,	-4902	,	8.556648	,	11
17,13	,	50960	,	-7904	,	-4900	,	7.0612445	,	9
17,13	,	50976	,	-7899	,	-4905	,	5.3099303	,	7
17,13	,	51008	,	-7905	,	-4897	,	3.4045835	,	5
17,13	,	51024	,	-7900	,	-4902	,	1.5168724	,	3
17,13	,	51040	,	-7901	,	-4907	,	-0.16585517	,	1
17,13	,	51072	,	-7902	,	-4903	,	-1.4766589	,	0
17,13	,	51088	,	-7907	,	-4905	,	-2.364071	,	0
17,13	,	51120	,	-7902	,	-4910	,	-2.9035616	,	0
17,13	,	51136	,	-7909	,	-4902	,	-3.191969	,	0
17,13	,	51152	,	-7913	,	-4904	,	-3.3425279	,	0
17,13	,	51184	,	-7911	,	-4899	,	-3.4889855	,	0
17,13	,	51200	,	-7915	,	-4906	,	-3.6894493	,	0
17,13	,	51216	,	-7919	,	-4912	,	-3.9443803	,	0
17,13	,	51248	,	-7927	,	-4910	,	-4.3107934	,	0
17,13	,	51264	,	-7922	,	-4904	,	-4.862176	,	0
17,13	,	51280	,	-7932	,	-4906	,	-5.574258	,	0
17,13	,	51312	,	-7928	,	-4908	,	-6.355756	,	0
17,13	,	51328	,	-7927	,	-4913	,	-7.0736156	,	0
17,13	,	51360	,	-7937	,	-4903	,	-7.5788174	,	0
17,13	,	51376	,	-7934	,	-4905	,	-7.839299	,	0
17,13	,	51392	,	-7938	,	-4913	,	-7.912345	,	0
17,13	,	51424	,	-7939	,	-4908	,	-7.836982	,	0
17,13	,	51440	,	-7950	,	-4913	,	-7.689793	,	0
17,13	,	51456	,	-7956	,	-4917	,	-7.65398	,	0
17,13	,	51488	,	-7965	,	-4914	,	-7.9540257	,	0
17,13	,	51504	,	-7953	,	-4909	,	-8.651432	,	0
17,13	,	51536	,	-7938	,	-4901	,	-9.409496	,	0
17,13	,	51552	,	-7938	,	-4901	,	-9.5973015	,	0
17,13	,	51568	,	-7936	,	-4901	,	-8.776115	,	0
17,13	,	51600	,	-7933	,	-4899	,	-6.953003	,	0
17,13	,	51616	,	-7921	,	-4898	,	-4.366598	,	1
17,13	,	51632	,	-7934	,	-4896	,	-1.3126826	,	3
17,13	,	51664	,	-7922	,	-4881	,	1.8083341	,	6
17,13	,	51680	,	-7923	,	-4887	,	4.60695	,	9
17,13	,	51696	,	-7919	,	-4882	,	6.87581	,	11
17,13	,	51728	,	-7923	,	-4882	,	8.517656	,	13
17,13	,	51744	,	-7921	,	-4882	,	9.451638	,	14
17,14	,	51776	,	-7914	,	-4878	,	9.684561	,	14
17,14	,	51792	,	-7921	,	-4883	,	9.360392	,	14
17,14	,	51808	,	-7922	,	-4877	,	8.616358	,	13
17,14	,	51840	,	-7912	,	-4886	,	7.5544543	,	11
17,14	,	51856	,	-7919	,	-4878	,	6.362379	,	8
17,14	,	51872	,	-7914	,	-4884	,	5.2254853	,	5
17,14	,	51904	,	-7926	,	-4890	,	4.1827326	,	3
17,14	,	51920	,	-7920	,	-4888	,	3.1558251	,	1
17,14	,	51952	,	-7919	,	-4890	,	2.106265	,	0
17,14	,	51968	,	-7924	,	-4899	,	1.0975896	,	0
17,14	,	51984	,	-7927	,	-4899	,	0.16211522	,	0
17,14	,	52016	,	-7932	,	-4892	,	-0.76286703	,	0
17,14	,	52032	,	-7929	,	-4901	,	-1.735365	,	0
17,14	,	52048	,	-7938	,	-4901	,	-2.7421265	,	0
17,14	,	52080	,	-7930	,	-4905	,	-3.722714	,	0
17,14	,	52096	,	-7939	,	-4906	,	-4.587779	,	0
17,14	,	52112	,	-7941	,	-4902	,	-5.288424	,	0
17,14	,	52144	,	-7941	,	-4902	,	-5.8519554	,	0
17,14	,	52160	,	-7947	,	-4905	,	-6.3044534	,	0
17,14	,	52192	,	-7940	,	-4901	,	-6.6367445	,	0
17,14	,	52208	,	-7948	,	-4910	,	-6.8060675	,	0
17,14	,	52224	,	-7939	,	-4902	,	-6.757929	,	0
17,14	,	52256	,	-7947	,	-4907	,	-6.455325	,	0
17,14	,	52272	,	-7943	,	-4910	,	-5.9097824	,	0
17,14	,	52288	,	-7942	,	-4918	,	-5.1765065	,	0
17,14	,	52320	,	-7944	,	-4912	,	-4.305243	,	0
17,14	,	52336	,	-7946	,	-4916	,	-3.372362	,	0
17,14	,	52368	,	-7946	,	-4914	,	-2.49828	,	0
17,14	,	52384	,	-7944	,	-4908	,	-1.7763088	,	0
17,14	,	52400	,	-7935	,	-4913	,	-1.1831702	,	0
17,14	,	52431	,	-7927	,	-4904	,	-0.5259869	,	0
17,14	,	52448	,	-7923	,	-4905	,	0.4588517	,	0
17,14	,	52464	,	-7918	,	-4910	,	1.9130268	,	0
17,14	,	52496	,	-7923	,	-4910	,	3.7438548	,	1
17,14	,	52512	,	-7910	,	-4905	,	5.6945877	,	2
17,14	,	52543	,	-7916	,	-4905	,	7.5250554	,	3
17,14	,	52560	,	-7916	,	-4905	,	9.0269	,	4
17,14	,	52575	,	-7911	,	-4902	,	10.000296	,	5
17,14	,	52607	,	-7904	,	-4905	,	10.4097	,	5
17,14	,	52624	,	-7915	,	-4904	,	10.366941	,	5
17,14	,	52640	,	-7913	,	-4906	,	9.902794	,	5
17,14	,	52672	,	-7913	,	-4908	,	8.977642	,	5
17,14	,	52688	,	-7918	,	-4905	,	7.633365	,	4
17,14	,	52703	,	-7907	,	-4904	,	6.021383	,	3
17,14	,	52736	,	-7918	,	-4914	,	4.3645997	,	2
17,15	,	52751	,	-7914	,	-4910	,	2.8289347	,	1
17,15	,	52783	,	-7912	,	-4905	,	1.4909167	,	0
17,15	,	52800	,	-7919	,	-4906	,	0.4105127	,	0
17,15	,	52816	,	-7915	,	-4910	,	-0.4130615	,	0
17,15	,	52847	,	-7910	,	-4905	,	-0.99015766	,	0
17,15	,	52864	,	-7915	,	-4901	,	-1.2675092	,	0
17,15	,	52879	,	-7918	,	-4912	,	-1.2683462	,	0
17,15	,	52911	,	-7919	,	-4905	,	-1.1532432	,	0
17,15	,	52927	,	-7919	,	-4909	,	-1.0752637	,	0
17,15	,	52960	,	-7925	,	-4913	,	-1.1121609	,	0
17,15	,	52976	,	-7920	,	-4915	,	-1.2970438	,	0
17,15	,	52992	,	-7925	,	-4909	,	-1.6023245	,	0
17,15	,	53024	,	-7918	,	-4912	,	-1.9387872	,	0
17,15	,	53039	,	-7927	,	-4903	,	-2.212948	,	0
17,15	,	53055	,	-7932	,	-4914	,	-2.434537	,	0
17,15	,	53088	,	-7930	,	-4912	,	-2.7183633	,	0
17,15	,	53104	,	-7938	,	-4910	,	-3.144392	,	0
17,15	,	53120	,	-7943	,	-4912	,	-3.7560568	,	0
17,15	,	53152	,	-7945	,	-4912	,	-4.602602	,	0
17,15	,	53168	,	-7939	,	-4916	,	-5.618196	,	0
17,15	,	53199	,	-7945	,	-4915	,	-6.579254	,	0
17,15	,	53215	,	-7944	,	-4909	,	-7.277978	,	0
17,15	,	53231	,	-7945	,	-4906	,	-7.6278763	,	0
17,15	,	53263	,	-7933	,	-4903	,	-7.552009	,	0
17,15	,	53279	,	-7930	,	-4904	,	-6.89365	,	0
17,15	,	53295	,	-7933	,	-4906	,	-5.561787	,	0
17,15	,	53327	,	-7919	,	-4899	,	-3.6515763	,	1
17,15	,	53343	,	-7919	,	-4902	,	-1.3082855	,	2
17,15	,	53375	,	-7916	,	-4902	,	1.3185706	,	4
17,15	,	53391	,	-7912	,	-4899	,	3.998955	,	6
17,15	,	53408	,	-7917	,	-4900	,	6.45124	,	8
17,15	,	53439	,	-7908	,	-4897	,	8.415458	,	10
17,15	,	53455	,	-7919	,	-4903	,	9.715973	,	11
17,15	,	53471	,	-7917	,	-4896	,	10.230915	,	12
17,15	,	53503	,	-7912	,	-4902	,	9.925506	,	12
17,15	,	53519	,	-7924	,	-4898	,	8.91819	,	11
17,15	,	53535	,	-7910	,	-4897	,	7.4011974	,	10
17,15	,	53567	,	-7910	,	-4886	,	5.6665382	,	8
17,15	,	53583	,	-7909	,	-4897	,	4.079603	,	6
17,15	,	53615	,	-7920	,	-4886	,	2.8214886	,	4
17,15	,	53631	,	-7921	,	-4887	,	1.7891567	,	2
17,15	,	53647	,	-7918	,	-4886	,	0.8090967	,	1
17,15	,	53679	,	-7919	,	-4880	,	-0.13912308	,	0
17,15	,	53695	,	-7922	,	-4888	,	-0.97287613	,	0
17,15	,	53711	,	-7924	,	-4886	,	-1.6661129	,	0
17,15	,	53743	,	-7919	,	-4889	,	-2.2340124	,	0
17,16	,	53759	,	-7923	,	-4888	,	-2.6419883	,	0
17,16	,	53791	,	-7926	,	-4895	,	-2.863459	,	0
17,16	,	53807	,	-7931	,	-4881	,	-2.9825687	,	0
17,16	,	53823	,	-7927	,	-4885	,	-3.1192417	,	0
17,16	,	53855	,	-7933	,	-4891	,	-3.3072796	,	0
17,16	,	53871	,	-7932	,	-4887	,	-3.5318103	,	0
17,16	,	53887	,	-7930	,	-4888	,	-3.7608614	,	0
17,16	,	53919	,	-7939	,	-4893	,	-3.9418411	,	0
17,16	,	53935	,	-7936	,	-4899	,	-4.0802064	,	0
17,16	,	53951	,	-7940	,	-4899	,	-4.219034	,	0
17,16	,	53983	,	-7946	,	-4900	,	-4.392638	,	0
17,16	,	53999	,	-7943	,	-4905	,	-4.6467237	,	0
17,16	,	54031	,	-7940	,	-4910	,	-4.9451365	,	0
17,16	,	54047	,	-7942	,	-4901	,	-5.1374187	,	0
17,16	,	54063	,	-7932	,	-4901	,	-5.0595293	,	0
17,16	,	54095	,	-7927	,	-4894	,	-4.543092	,	0
17,16	,	54111	,	-7929	,	-4900	,	-3.4699059	,	0
17,16	,	54127	,	-7917	,	-4898	,	-1.8726258	,	1
17,16	,	54159	,	-7914	,	-4901	,	0.15461731	,	2
17,16	,	54175	,	-7902	,	-4890	,	2.551527	,	4
17,16	,	54207	,	-7908	,	-4896	,	5.20837	,	6
17,16	,	54223	,	-7897	,	-4900	,	7.8880587	,	8
17,16	,	54239	,	-7889	,	-4896	,	10.364419	,	10
17,16	,	54271	,	-7891	,	-4902	,	12.535372	,	12
17,16	,	54287	,	-7897	,	-4891	,	14.244552	,	14
17,16	,	54303	,	-7886	,	-4900	,	15.241996	,	15
17,16	,	54335	,	-7886	,	-4895	,	15.443397	,	14
17,16	,	54351	,	-7887	,	-4897	,	14.968465	,	13
17,16	,	54367	,	-7892	,	-4901	,	13.932289	,	11
17,16	,	54399	,	-7877	,	-4898	,	12.453375	,	9
17,16	,	54415	,	-7891	,	-4898	,	10.751098	,	7
17,16	,	54447	,	-7885	,	-4898	,	8.995027	,	5
17,16	,	54463	,	-7889	,	-4909	,	7.236495	,	3
17,16	,	54479	,	-7896	,	-4905	,	5.489712	,	1
17,16	,	54511	,	-7892	,	-4901	,	3.7354927	,	0
17,16	,	54527	,	-7895	,	-4901	,	1.9992509	,	0
17,16	,	54543	,	-7904	,	-4910	,	0.34562683	,	0
17,16	,	54575	,	-7912	,	-4914	,	-1.2805581	,	0
17,16	,	54591	,	-7907	,	-4905	,	-2.9862933	,	0
17,16	,	54623	,	-7907	,	-4911	,	-4.695029	,	0
17,16	,	54639	,	-7907	,	-4908	,	-6.1530423	,	0
17,16	,	54655	,	-7917	,	-4910	,	-7.183593	,	0
17,16	,	54687	,	-7915	,	-4910	,	-7.8177805	,	0
17,16	,	54703	,	-7918	,	-4910	,	-8.160397	,	0
17,16	,	54719	,	-7919	,	-4920	,	-8.266935	,	0
17,17	,	54751	,	-7917	,	-4918	,	-8.153878	,	0
17,17	,	54767	,	-7927	,	-4915	,	-7.849309	,	0
17,17	,	54798	,	-7931	,	-4918	,	-7.483965	,	0
17,17	,	54815	,	-7923	,	-4917	,	-7.210103	,	0
17,17	,	54831	,	-7938	,	-4916	,	-7.050848	,	0
17,17	,	54863	,	-7929	,	-4918	,	-6.9829273	,	0
17,17	,	54879	,	-7931	,	-4924	,	-6.9478664	,	0
17,17	,	54895	,	-7931	,	-4913	,	-6.809292	,	0
17,17	,	54927	,	-7928	,	-4916	,	-6.4599586	,	0
17,17	,	54943	,	-7921	,	-4911	,	-5.824498	,	0
17,17	,	54959	,	-7911	,	-4908	,	-4.7714224	,	0
17,17	,	54991	,	-7914	,	-4911	,	-3.1782281	,	1
17,17	,	55007	,	-7911	,	-4906	,	-1.1118169	,	2
17,17	,	55039	,	-7909	,	-4910	,	1.166184	,	4
17,17	,	55055	,	-7897	,	-4900	,	3.4181614	,	6
17,17	,	55071	,	-7901	,	-4900	,	5.542255	,	8
17,17	,	55102	,	-7896	,	-4904	,	7.4521923	,	10
17,17	,	55118	,	-7902	,	-4906	,	8.978285	,	11
17,17	,	55134	,	-7906	,	-4908	,	9.894546	,	12
17,17	,	55166	,	-7898	,	-4906	,	10.041817	,	12
17,17	,	55183	,	-7894	,	-4909	,	9.506941	,	11
17,17	,	55215	,	-7897	,	-4908	,	8.573635	,	10
17,17	,	55231	,	-7901	,	-4910	,	7.453529	,	8
17,17	,	55247	,	-7903	,	-4902	,	6.188553	,	6
17,17	,	55278	,	-7904	,	-4900	,	4.7722173	,	4
17,17	,	55294	,	-7910	,	-4903	,	3.225079	,	2
17,17	,	55310	,	-7898	,	-4908	,	1.6300268	,	1
17,17	,	55342	,	-7904	,	-4902	,	0.1902237	,	0
17,17	,	55358	,	-7915	,	-4903	,	-0.94915235	,	0
17,17	,	55375	,	-7909	,	-4907	,	-1.8731549	,	0
17,17	,	55407	,	-7910	,	-4901	,	-2.6732128	,	0
17,17	,	55423	,	-7911	,	-4907	,	-3.2938745	,	0
17,17	,	55454	,	-7909	,	-4908	,	-3.6603143	,	0
17,17	,	55470	,	-7913	,	-4907	,	-3.7599766	,	0
17,17	,	55486	,	-7922	,	-4910	,	-3.693469	,	0
17,17	,	55518	,	-7928	,	-4912	,	-3.702477	,	0
17,17	,	55534	,	-7923	,	-4899	,	-4.000431	,	0
17,17	,	55551	,	-7925	,	-4901	,	-4.5621905	,	0
17,17	,	55583	,	-7924	,	-4898	,	-5.178397	,	0
17,17	,	55599	,	-7929	,	-4902	,	-5.6603813	,	0
17,17	,	55630	,	-7938	,	-4902	,	-5.97836	,	0
17,17	,	55646	,	-7936	,	-4897	,	-6.2499576	,	0
17,17	,	55662	,	-7939	,	-4898	,	-6.566594	,	0
17,17	,	55694	,	-7941	,	-4897	,	-6.9082336	,	0
17,17	,	55710	,	-7944	,	-4897	,	-7.2240057	,	0
17,17	,	55726	,	-7939	,	-4900	,	-7.449148	,	0
17,18	,	55759	,	-7938	,	-4894	,	-7.4562106	,	0
17,18	,	55775	,	-7940	,	-4895	,	-7.1197357	,	0
17,18	,	55791	,	-7942	,	-4888	,	-6.4411645	,	0
17,18	,	55822	,	-7931	,	-4888	,	-5.4987025	,	0
17,18	,	55838	,	-7925	,	-4895	,	-4.2692413	,	0
17,18	,	55871	,	-7923	,	-4893	,	-2.6450958	,	1
17,18	,	55886	,	-7922	,	-4891	,	-0.6368768	,	2
17,18	,	55902	,	-7919	,	-4885	,	1.566924	,	4
17,18	,	55934	,	-7917	,	-4892	,	3.7208476	,	6
17,18	,	55951	,	-7919	,	-4895	,	5.6034846	,	8
17,18	,	55967	,	-7916	,	-4901	,	7.0265937	,	9
17,18	,	55998	,	-7903	,	-4894	,	7.9406514	,	10
17,18	,	56014	,	-7909	,	-4893	,	8.488561	,	10
17,18	,	56046	,	-7904	,	-4897	,	8.811203	,	10
17,18	,	56062	,	-7907	,	-4897	,	8.926786	,	9
17,18	,	56078	,	-7909	,	-4896	,	8.780957	,	8
17,18	,	56110	,	-7906	,	-4897	,	8.305811	,	6
17,18	,	56126	,	-7903	,	-4901	,	7.5277452	,	4
17,18	,	56142	,	-7904	,	-4900	,	6.5859756	,	2
17,18	,	56174	,	-7898	,	-4896	,	5.6350822	,	1
17,18	,	56190	,	-7908	,	-4897	,	4.770633	,	0
17,18	,	56206	,	-7900	,	-4902	,	3.9928563	,	0
17,18	,	56238	,	-7905	,	-4898	,	3.2728946	,	0
17,18	,	56254	,	-7909	,	-4909	,	2.5850751	,	0
17,18	,	56286	,	-7900	,	-4903	,	1.8954194	,	0
17,18	,	56302	,	-7902	,	-4904	,	1.2571539	,	0
17,18	,	56318	,	-7903	,	-4904	,	0.77199805	,	0
17,18	,	56350	,	-7897	,	-4903	,	0.48373264	,	0
17,18	,	56366	,	-7904	,	-4903	,	0.4022345	,	0
17,18	,	56382	,	-7899	,	-4906	,	0.4885665	,	0
17,18	,	56414	,	-7897	,	-4911	,	0.68167067	,	0
17,18	,	56430	,	-7901	,	-4908	,	0.94977534	,	0
17,18	,	56462	,	-7907	,	-4910	,	1.1970989	,	0
17,18	,	56478	,	-7911	,	-4904	,	1.2253332	,	0
17,18	,	56494	,	-7910	,	-4908	,	0.8703174	,	0
17,18	,	56526	,	-7921	,	-4915	,	0.084827244	,	0
17,18	,	56542	,	-7923	,	-4913	,	-1.1316321	,	0
17,18	,	56558	,	-7929	,	-4913	,	-2.7507062	,	0
17,18	,	56590	,	-7928	,	-4919	,	-4.644241	,	0
17,18	,	56606	,	-7934	,	-4916	,	-6.592709	,	0
17,18	,	56622	,	-7940	,	-4918	,	-8.399965	,	0
17,18	,	56654	,	-7941	,	-4921	,	-9.964025	,	0
17,18	,	56670	,	-7941	,	-4921	,	-11.202416	,	0
17,18	,	56702	,	-7947	,	-4923	,	-12.016848	,	0
17,18	,	56718	,	-7944	,	-4917	,	-12.363537	,	0
17,18	,	56734	,	-7929	,	-4917	,	-12.168493	,	0
17,19	,	56766	,	-7930	,	-4913	,	-11.225898	,	0
17,19	,	56782	,	-7928	,	-4914	,	-9.414295	,	0
17,19	,	56798	,	-7929	,	-4918	,	-6.9113445	,	1
17,19	,	56830	,	-7922	,	-4911	,	-4.067535	,	3
17,19	,	56846	,	-7923	,	-4912	,	-1.1975894	,	5
17,19	,	56878	,	-7923	,	-4911	,	1.4467402	,	7
17,19	,	56894	,	-7916	,	-4908	,	3.6690292	,	9
17,19	,	56910	,	-7910	,	-4911	,	5.421296	,	11
17,19	,	56942	,	-7911	,	-4915	,	6.7895827	,	12
17,19	,	56958	,	-7913	,	-4908	,	7.8170824	,	13
17,19	,	56974	,	-7915	,	-4912	,	8.417685	,	14
17,19	,	57006	,	-7913	,	-4903	,	8.481171	,	13
17,19	,	57022	,	-7909	,	-4913	,	8.026399	,	11
17,19	,	57038	,	-7912	,	-4909	,	7.205973	,	9
17,19	,	57070	,	-7918	,	-4904	,	6.145425	,	7
17,19	,	57086	,	-7912	,	-4913	,	4.892111	,	5
17,19	,	57118	,	-7922	,	-4908	,	3.5071714	,	3
17,19	,	57134	,	-7912	,	-4911	,	2.086285	,	2
17,19	,	57150	,	-7920	,	-4909	,	0.75372934	,	1
17,19	,	57182	,	-7926	,	-4916	,	-0.42187643	,	0
17,19	,	57198	,	-7916	,	-4904	,	-1.462707	,	0
17,19	,	57214	,	-7926	,	-4913	,	-2.3406816	,	0
17,19	,	57246	,	-7929	,	-4913	,	-3.0340338	,	0
17,19	,	57262	,	-7930	,	-4915	,	-3.6295915	,	0
17,19	,	57294	,	-7929	,	-4907	,	-4.182308	,	0
17,19	,	57310	,	-7930	,	-4907	,	-4.6379356	,	0
17,19	,	57326	,	-7937	,	-4912	,	-4.94755	,	0
17,19	,	57358	,	-7940	,	-4908	,	-5.1741867	,	0
17,19	,	57374	,	-7943	,	-4908	,	-5.4395056	,	0
17,19	,	57390	,	-7948	,	-4915	,	-5.821828	,	0
17,19	,	57421	,	-7943	,	-4914	,	-6.312419	,	0
17,19	,	57438	,	-7937	,	-4911	,	-6.7544355	,	0
17,19	,	57454	,	-7953	,	-4915	,	-6.9525843	,	0
17,19	,	57486	,	-7964	,	-4915	,	-6.9900255	,	0
17,19	,	57502	,	-7952	,	-4909	,	-7.1469374	,	0
17,19	,	57534	,	-7956	,	-4911	,	-7.4609375	,	0
17,19	,	57550	,	-7955	,	-4911	,	-7.7141037	,	0
17,19	,	57565	,	-7961	,	-4907	,	-7.7481246	,	0
17,19	,	57598	,	-7961	,	-4904	,	-7.569959	,	0
17,19	,	57614	,	-7951	,	-4903	,	-7.2035747	,	0
17,19	,	57630	,	-7946	,	-4896	,	-6.522233	,	0
17,19	,	57662	,	-7949	,	-4901	,	-5.3634295	,	0
17,19	,	57678	,	-7945	,	-4889	,	-3.756836	,	1
17,19	,	57709	,	-7940	,	-4894	,	-1.872191	,	2
17,19	,	57727	,	-7935	,	-4887	,	0.15589595	,	3
17,19	,	57741	,	-7936	,	-4883	,	2.2281713	,	5
17,20	,	57773	,	-7929	,	-4885	,	4.2212453	,	7
17,20	,	57789	,	-7926	,	-4886	,	6.03497	,	8
17,20	,	57806	,	-7925	,	-4887	,	7.609442	,	9
17,20	,	57838	,	-7933	,	-4888	,	8.823493	,	10
17,20	,	57854	,	-7925	,	-4891	,	9.496393	,	11
17,20	,	57885	,	-7931	,	-4889	,	9.538853	,	10
17,20	,	57901	,	-7926	,	-4890	,	9.001848	,	9
17,20	,	57917	,	-7924	,	-4891	,	8.039078	,	8
17,20	,	57949	,	-7931	,	-4898	,	6.840126	,	6
17,20	,	57965	,	-7926	,	-4892	,	5.5297976	,	4
17,20	,	57982	,	-7930	,	-4899	,	4.1885996	,	3
17,20	,	58014	,	-7944	,	-4903	,	2.8290617	,	2
17,20	,	58030	,	-7930	,	-4896	,	1.3793197	,	1
17,20	,	58061	,	-7933	,	-4904	,	-0.08503592	,	0
17,20	,	58077	,	-7940	,	-4900	,	-1.3518267	,	0
17,20	,	58093	,	-7935	,	-4901	,	-2.3321524	,	0
17,20	,	58126	,	-7940	,	-4901	,	-3.03715	,	0
17,20	,	58142	,	-7938	,	-4909	,	-3.480659	,	0
17,20	,	58158	,	-7935	,	-4902	,	-3.670527	,	0
17,20	,	58189	,	-7935	,	-4908	,	-3.5871205	,	0
17,20	,	58205	,	-7941	,	-4907	,	-3.254659	,	0
17,20	,	58237	,	-7947	,	-4903	,	-2.837397	,	0
17,20	,	58253	,	-7939	,	-4913	,	-2.5383925	,	0
17,20	,	58269	,	-7947	,	-4910	,	-2.4241893	,	0
17,20	,	58301	,	-7933	,	-4909	,	-2.4107885	,	0
17,20	,	58317	,	-7939	,	-4916	,	-2.3219986	,	0
17,20	,	58333	,	-7940	,	-4915	,	-2.0305674	,	0
17,20	,	58365	,	-7949	,	-4912	,	-1.6195939	,	0
17,20	,	58382	,	-7947	,	-4913	,	-1.3130516	,	0
17,20	,	58397	,	-7946	,	-4916	,	-1.2562574	,	0
17,20	,	58429	,	-7947	,	-4914	,	-1.4175167	,	0
17,20	,	58445	,	-7953	,	-4910	,	-1.7079656	,	0
17,20	,	58477	,	-7943	,	-4910	,	-2.0607724	,	0
17,20	,	58493	,	-7937	,	-4916	,	-2.3101964	,	0
17,20	,	58509	,	-7934	,	-4915	,	-2.1829724	,	0
17,20	,	58541	,	-7931	,	-4909	,	-1.499537	,	0
17,20	,	58557	,	-7937	,	-4909	,	-0.32120025	,	0
17,20	,	58573	,	-7932	,	-4910	,	1.084668	,	1
17,20	,	58605	,	-7929	,	-4901	,	2.4460344	,	2
17,20	,	58621	,	-7931	,	-4913	,	3.6151931	,	3
17,20	,	58653	,	-7932	,	-4911	,	4.48468	,	4
17,20	,	58669	,	-7920	,	-4907	,	5.001731	,	4
17,20	,	58685	,	-7931	,	-4903	,	5.242098	,	4
17,20	,	58717	,	-7929	,	-4905	,	5.25338	,	4
17,20	,	58733	,	-7922	,	-4905	,	5.018319	,	4
17,21	,	58749	,	-7928	,	-4907	,	4.6100574	,	4
17,21	,	58781	,	-7924	,	-4904	,	4.133572	,	3
17,21	,	58797	,	-7916	,	-4908	,	3.6784241	,	2
17,21	,	58813	,	-7913	,	-4908	,	3.409406	,	1
17,21	,	58845	,	-7922	,	-4910	,	3.442072	,	0
17,21	,	58862	,	-7919	,	-4912	,	3.660831	,	0
17,21	,	58893	,	-7927	,	-4910	,	3.807405	,	0
17,21	,	58909	,	-7919	,	-4904	,	3.68718	,	0
17,21	,	58925	,	-7927	,	-4909	,	3.2614639	,	0
17,21	,	58957	,	-7929	,	-4908	,	2.5592644	,	0
17,21	,	58973	,	-7932	,	-4913	,	1.5803723	,	0
17,21	,	58989	,	-7932	,	-4912	,	0.35434735	,	0
17,21	,	59021	,	-7928	,	-4915	,	-0.98034537	,	0
17,21	,	59037	,	-7929	,	-4906	,	-2.193262	,	0
17,21	,	59069	,	-7932	,	-4911	,	-3.0856395	,	0
17,21	,	59085	,	-7940	,	-4910	,	-3.640747	,	0
17,21	,	59101	,	-7942	,	-4917	,	-4.028632	,	0
17,21	,	59133	,	-7947	,	-4911	,	-4.4541216	,	0
17,21	,	59149	,	-7941	,	-4911	,	-4.994891	,	0
17,21	,	59165	,	-7953	,	-4906	,	-5.5938935	,	0
17,21	,	59197	,	-7955	,	-4915	,	-6.219758	,	0
17,21	,	59213	,	-7949	,	-4910	,	-6.8666706	,	0
17,21	,	59229	,	-7951	,	-4912	,	-7.394332	,	0
17,21	,	59261	,	-7958	,	-4913	,	-7.643278	,	0
17,21	,	59277	,	-7959	,	-4916	,	-7.6363955	,	0
17,21	,	59309	,	-7956	,	-4916	,	-7.473565	,	0
17,21	,	59325	,	-7951	,	-4911	,	-7.1405506	,	0
17,21	,	59341	,	-7954	,	-4912	,	-6.5358067	,	0
17,21	,	59373	,	-7951	,	-4905	,	-5.621525	,	0
17,21	,	59389	,	-7942	,	-4903	,	-4.4224224	,	0
17,21	,	59405	,	-7935	,	-4901	,	-2.899165	,	1
17,21	,	59437	,	-7941	,	-4902	,	-1.016428	,	2
17,21	,	59453	,	-7940	,	-4902	,	1.053808	,	3
17,21	,	59485	,	-7931	,	-4900	,	3.0188484	,	5
17,21	,	59501	,	-7930	,	-4900	,	4.728409	,	6
17,21	,	59517	,	-7926	,	-4901	,	6.178985	,	7
17,21	,	59549	,	-7928	,	-4893	,	7.3605833	,	8
17,21	,	59565	,	-7933	,	-4901	,	8.176491	,	9
17,21	,	59581	,	-7939	,	-4900	,	8.439812	,	9
17,21	,	59613	,	-7930	,	-4889	,	8.019293	,	8
17,21	,	59629	,	-7931	,	-4891	,	7.020975	,	7
17,21	,	59645	,	-7931	,	-4891	,	5.712673	,	6
17,21	,	59677	,	-7929	,	-4885	,	4.3352795	,	4
17,21	,	59693	,	-7935	,	-4889	,	3.0422964	,	3
17,21	,	59725	,	-7920	,	-4881	,	1.9543312	,	2
17,21	,	59741	,	-7929	,	-4878	,	1.2224627	,	1
17,22	,	59757	,	-7931	,	-4879	,	0.89038324	,	0
17,22	,	59789	,	-7929	,	-4885	,	0.8005313	,	0
17,22	,	59805	,	-7937	,	-4881	,	0.74768573	,	0
17,22	,	59821	,	-7944	,	-4887	,	0.5259809	,	0
17,22	,	59853	,	-7938	,	-4882	,	-0.036136746	,	0
17,22	,	59869	,	-7932	,	-4888	,	-0.86960286	,	0
17,22	,	59900	,	-7935	,	-4890	,	-1.6759058	,	0
17,22	,	59917	,	-7948	,	-4892	,	-2.2753081	,	0
17,22	,	59933	,	-7941	,	-4893	,	-2.7596445	,	0
17,22	,	59965	,	-7946	,	-4903	,	-3.2412515	,	0
17,22	,	59981	,	-7947	,	-4904	,	-3.7124267	,	0
17,22	,	59997	,	-7946	,	-4898	,	-4.1292386	,	0
17,22	,	60029	,	-7943	,	-4906	,	-4.417471	,	0
17,22	,	60045	,	-7947	,	-4905	,	-4.4926863	,	0
17,22	,	60061	,	-7950	,	-4905	,	-4.360369	,	0
17,22	,	60093	,	-7961	,	-4901	,	-4.1706133	,	0
17,22	,	60109	,	-7962	,	-4911	,	-4.1685686	,	0
17,22	,	60141	,	-7957	,	-4903	,	-4.4874916	,	0
17,22	,	60157	,	-7965	,	-4905	,	-5.0298285	,	0
17,22	,	60173	,	-7971	,	-4904	,	-5.6747274	,	0
17,22	,	60205	,	-7963	,	-4905	,	-6.379105	,	0
17,22	,	60220	,	-7954	,	-4909	,	-6.9518003	,	0
17,22	,	60237	,	-7951	,	-4904	,	-7.01936	,	0
17,22	,	60269	,	-7934	,	-4902	,	-6.237054	,	0
17,22	,	60285	,	-7931	,	-4902	,	-4.3878193	,	0
17,22	,	60317	,	-7931	,	-4902	,	-1.5040367	,	1
17,22	,	60333	,	-7925	,	-4906	,	2.0417206	,	3
17,22	,	60349	,	-7923	,	-4896	,	5.7301497	,	6
17,22	,	60380	,	-7918	,	-4896	,	9.113892	,	9
17,22	,	60396	,	-7914	,	-4899	,	11.890768	,	12
17,22	,	60412	,	-7917	,	-4895	,	13.889408	,	14
17,22	,	60445	,	-7915	,	-4893	,	14.998547	,	15
17,22	,	60461	,	-7919	,	-4902	,	15.155321	,	16
17,22	,	60477	,	-7912	,	-4900	,	14.410151	,	16
17,22	,	60509	,	-7911	,	-4896	,	12.986992	,	15
17,22	,	60524	,	-7915	,	-4904	,	11.195177	,	13
17,22	,	60556	,	-7913	,	-4899	,	9.257189	,	10
17,22	,	60573	,	-7914	,	-4904	,	7.3055997	,	7
17,22	,	60588	,	-7914	,	-4906	,	5.450305	,	4
17,22	,	60621	,	-7915	,	-4904	,	3.776917	,	2
17,22	,	60637	,	-7925	,	-4899	,	2.2987368	,	1
17,22	,	60653	,	-7918	,	-4904	,	0.9479883	,	0
17,22	,	60685	,	-7925	,	-4908	,	-0.3123027	,	0
17,22	,	60700	,	-7928	,	-4908	,	-1.4777603	,	0
17,22	,	60732	,	-7936	,	-4908	,	-2.609537	,	0
17,23	,	60748	,	-7935	,	-4908	,	-3.7947323	,	0
17,23	,	60764	,	-7928	,	-4907	,	-4.9810715	,	0
17,23	,	60796	,	-7935	,	-4910	,	-5.9561872	,	0
17,23	,	60813	,	-7936	,	-4911	,	-6.564236	,	0
17,23	,	60829	,	-7945	,	-4915	,	-6.8514767	,	0
17,23	,	60861	,	-7949	,	-4910	,	-7.005865	,	0
17,23	,	60876	,	-7945	,	-4914	,	-7.1951942	,	0
17,23	,	60892	,	-7939	,	-4918	,	-7.38445	,	0
17,23	,	60924	,	-7945	,	-4910	,	-7.3786564	,	0
17,23	,	60940	,	-7941	,	-4915	,	-7.0499763	,	0
17,23	,	60972	,	-7951	,	-4919	,	-6.4379163	,	0
17,23	,	60989	,	-7956	,	-4917	,	-5.7452006	,	0
17,23	,	61004	,	-7956	,	-4917	,	-5.2408237	,	0
17,23	,	61036	,	-7961	,	-4917	,	-5.0792828	,	0
17,23	,	61052	,	-7962	,	-4919	,	-5.262989	,	0
17,23	,	61068	,	-7961	,	-4923	,	-5.690276	,	0
17,23	,	61100	,	-7950	,	-4906	,	-6.1244044	,	0
17,23	,	61116	,	-7944	,	-4914	,	-6.1934786	,	0
17,23	,	61148	,	-7943	,	-4906	,	-5.5671983	,	0
17,23	,	61164	,	-7942	,	-4908	,	-4.177686	,	0
17,23	,	61180	,	-7935	,	-4905	,	-2.197491	,	1
17,23	,	61212	,	-7941	,	-4906	,	0.10569477	,	2
17,23	,	61228	,	-7936	,	-4903	,	2.4036865	,	4
17,23	,	61244	,	-7938	,	-4906	,	4.3754077	,	6
17,23	,	61276	,	-7935	,	-4910	,	5.8159657	,	7
17,23	,	61292	,	-7931	,	-4904	,	6.6753845	,	8
17,23	,	61324	,	-7933	,	-4902	,	7.0354233	,	8
17,23	,	61340	,	-7930	,	-4901	,	7.0155764	,	8
17,23	,	61356	,	-7930	,	-4905	,	6.7172127	,	8
17,23	,	61388	,	-7932	,	-4900	,	6.2157316	,	7
17,23	,	61404	,	-7932	,	-4899	,	5.5402	,	6
17,23	,	61420	,	-7931	,	-4902	,	4.713565	,	4
17,23	,	61452	,	-7930	,	-4900	,	3.8051114	,	2
17,23	,	61468	,	-7930	,	-4906	,	2.9108515	,	1
17,23	,	61484	,	-7937	,	-4905	,	2.0783713	,	0
17,23	,	61516	,	-7936	,	-4904	,	1.2647576	,	0
17,23	,	61532	,	-7932	,	-4900	,	0.4394312	,	0
17,23	,	61564	,	-7941	,	-4899	,	-0.35035503	,	0
17,23	,	61580	,	-7948	,	-4901	,	-1.1256648	,	0
17,23	,	61596	,	-7947	,	-4901	,	-2.012209	,	0
17,23	,	61628	,	-7949	,	-4898	,	-3.0535252	,	0
17,23	,	61644	,	-7949	,	-4897	,	-4.1454415	,	0
17,23	,	61660	,	-7953	,	-4897	,	-5.1455636	,	0
17,23	,	61692	,	-7945	,	-4897	,	-5.9225445	,	0
17,23	,	61708	,	-7964	,	-4893	,	-6.407059	,	0
17,23	,	61740	,	-7952	,	-4896	,	-6.6719337	,	0
17,24	,	61756	,	-7963	,	-4896	,	-6.8141856	,	0
17,24	,	61772	,	-7960	,	-4891	,	-6.8582406	,	0
17,24	,	61804	,	-7960	,	-4891	,	-6.8023577	,	0
17,24	,	61820	,	-7966	,	-4891	,	-6.6377535	,	0
17,24	,	61836	,	-7959	,	-4888	,	-6.371362	,	0
17,24	,	61868	,	-7964	,	-4892	,	-5.996896	,	0
17,24	,	61884	,	-7969	,	-4896	,	-5.5263133	,	0
17,24	,	61900	,	-7968	,	-4896	,	-5.0572186	,	0
17,24	,	61932	,	-7964	,	-4893	,	-4.657676	,	0
17,24	,	61948	,	-7967	,	-4891	,	-4.286111	,	0
17,24	,	61980	,	-7960	,	-4896	,	-3.8555305	,	0
17,24	,	61996	,	-7955	,	-4895	,	-3.247094	,	0
17,24	,	62012	,	-7946	,	-4898	,	-2.2933176	,	0
17,24	,	62044	,	-7953	,	-4893	,	-0.8952428	,	0
17,24	,	62060	,	-7942	,	-4895	,	0.85118294	,	1
17,24	,	62076	,	-7933	,	-4897	,	2.8008904	,	2
17,24	,	62108	,	-7940	,	-4894	,	4.8697233	,	3
17,24	,	62124	,	-7927	,	-4895	,	6.9093895	,	5
17,24	,	62156	,	-7934	,	-4902	,	8.7254925	,	7
17,24	,	62172	,	-7935	,	-4897	,	10.111971	,	8
17,24	,	62188	,	-7935	,	-4897	,	10.835357	,	9
17,24	,	62220	,	-7934	,	-4899	,	10.777816	,	9
17,24	,	62236	,	-7926	,	-4897	,	10.051077	,	9
17,24	,	62252	,	-7934	,	-4898	,	8.917271	,	8
17,24	,	62284	,	-7928	,	-4900	,	7.6062913	,	7
17,24	,	62300	,	-7928	,	-4894	,	6.2743406	,	6
17,24	,	62316	,	-7934	,	-4893	,	5.0293612	,	4
17,24	,	62348	,	-7928	,	-4896	,	3.8967392	,	2
17,24	,	62364	,	-7926	,	-4901	,	2.9063554	,	1
17,24	,	62396	,	-7922	,	-4894	,	2.169907	,	0
17,24	,	62412	,	-7924	,	-4899	,	1.7839285	,	0
17,24	,	62428	,	-7927	,	-4895	,	1.7117393	,	0
17,24	,	62460	,	-7925	,	-4901	,	1.8014599	,	0
17,24	,	62476	,	-7934	,	-4904	,	1.8678796	,	0
17,24	,	62492	,	-7929	,	-4906	,	1.740339	,	0
17,24	,	62524	,	-7940	,	-4900	,	1.3164165	,	0
17,24	,	62540	,	-7937	,	-4908	,	0.5603651	,	0
17,24	,	62572	,	-7933	,	-4908	,	-0.46507573	,	0
17,24	,	62588	,	-7932	,	-4905	,	-1.5337142	,	0
17,24	,	62604	,	-7944	,	-4912	,	-2.4342322	,	0
17,24	,	62636	,	-7942	,	-4912	,	-3.168245	,	0
17,24	,	62652	,	-7941	,	-4914	,	-3.810021	,	0
17,24	,	62668	,	-7943	,	-4911	,	-4.334573	,	0
17,24	,	62700	,	-7948	,	-4914	,	-4.7026896	,	0
17,24	,	62716	,	-7955	,	-4910	,	-4.9818096	,	0
17,24	,	62747	,	-7951	,	-4915	,	-5.2897453	,	0
17,25	,	62763	,	-7949	,	-4915	,	-5.621874	,	0
17,25	,	62780	,	-7956	,	-4911	,	-5.85455	,	0
17,25	,	62812	,	-7961	,	-4906	,	-5.9578505	,	0
17,25	,	62828	,	-7955	,	-4915	,	-6.008251	,	0
17,25	,	62844	,	-7943	,	-4913	,	-5.9345818	,	0
17,25	,	62876	,	-7946	,	-4905	,	-5.4763713	,	0
17,25	,	62892	,	-7934	,	-4909	,	-4.430848	,	0
17,25	,	62908	,	-7934	,	-4910	,	-2.7578168	,	1
17,25	,	62940	,	-7925	,	-4908	,	-0.53410673	,	2
17,25	,	62956	,	-7934	,	-4907	,	2.0204694	,	4
17,25	,	62987	,	-7936	,	-4910	,	4.498277	,	6
17,25	,	63003	,	-7928	,	-4906	,	6.4616985	,	8
17,25	,	63019	,	-7930	,	-4905	,	7.7089787	,	9
17,25	,	63051	,	-7927	,	-4904	,	8.270188	,	10
17,25	,	63067	,	-7923	,	-4904	,	8.276314	,	10
17,25	,	63084	,	-7928	,	-4905	,	7.892889	,	10
17,25	,	63116	,	-7927	,	-4902	,	7.2251015	,	9
17,25	,	63132	,	-7921	,	-4909	,	6.3466277	,	8
17,25	,	63163	,	-7921	,	-4908	,	5.4059176	,	6
17,25	,	63179	,	-7926	,	-4903	,	4.543153	,	4
17,25	,	63195	,	-7923	,	-4901	,	3.7762191	,	2
17,25	,	63227	,	-7933	,	-4903	,	3.0296674	,	1
17,25	,	63244	,	-7932	,	-4902	,	2.1831615	,	0
17,25	,	63260	,	-7924	,	-4900	,	1.1975274	,	0
17,25	,	63292	,	-7925	,	-4907	,	0.2357446	,	0
17,25	,	63307	,	-7933	,	-4907	,	-0.51751363	,	0
17,25	,	63324	,	-7938	,	-4901	,	-1.098917	,	0
17,25	,	63355	,	-7936	,	-4903	,	-1.6774129	,	0
17,25	,	63371	,	-7941	,	-4903	,	-2.3396604	,	0
17,25	,	63403	,	-7942	,	-4904	,	-3.0764844	,	0
17,25	,	63419	,	-7941	,	-4904	,	-3.8323503	,	0
17,25	,	63436	,	-7948	,	-4901	,	-4.525597	,	0
17,25	,	63468	,	-7949	,	-4906	,	-5.126623	,	0
17,25	,	63484	,	-7943	,	-4913	,	-5.624546	,	0
17,25	,	63499	,	-7954	,	-4905	,	-5.9620266	,	0
17,25	,	63531	,	-7949	,	-4909	,	-6.1232004	,	0
17,25	,	63547	,	-7953	,	-4905	,	-6.135684	,	0
17,25	,	63579	,	-7954	,	-4902	,	-6.0104294	,	0
17,25	,	63595	,	-7959	,	-4909	,	-5.791546	,	0
17,25	,	63611	,	-7968	,	-4911	,	-5.61098	,	0
17,25	,	63643	,	-7956	,	-4907	,	-5.5966787	,	0
17,25	,	63660	,	-7961	,	-4904	,	-5.688842	,	0
17,25	,	63675	,	-7960	,	-4899	,	-5.6986785	,	0
17,25	,	63707	,	-7953	,	-4904	,	-5.4800396	,	0
17,25	,	63723	,	-7935	,	-4896	,	-4.837162	,	0
17,25	,	63739	,	-7944	,	-4894	,	-3.517548	,	0
17,26	,	63771	,	-7936	,	-4887	,	-1.5031455	,	1
17,26	,	63787	,	-7943	,	-4878	,	0.89855075	,	3
17,26	,	63819	,	-7928	,	-4884	,	3.3061857	,	5
17,26	,	63835	,	-7923	,	-4879	,	5.5346103	,	7
17,26	,	63851	,	-7929	,	-4874	,	7.5536327	,	9
17,26	,	63883	,	-7923	,	-4877	,	9.244024	,	11
17,26	,	63899	,	-7927	,	-4872	,	10.411236	,	12
17,26	,	63915	,	-7926	,	-4884	,	10.923183	,	13
17,26	,	63947	,	-7925	,	-4882	,	10.750037	,	13
17,26	,	63963	,	-7920	,	-4876	,	10.007759	,	12
17,26	,	63995	,	-7926	,	-4875	,	8.90982	,	10
17,26	,	64011	,	-7920	,	-4881	,	7.6431007	,	8
17,26	,	64027	,	-7926	,	-4882	,	6.330668	,	6
17,26	,	64059	,	-7928	,	-4882	,	5.0212617	,	4
17,26	,	64075	,	-7923	,	-4886	,	3.7205195	,	2
17,26	,	64091	,	-7930	,	-4888	,	2.468949	,	1
17,26	,	64123	,	-7926	,	-4888	,	1.3148186	,	0
17,26	,	64139	,	-7929	,	-4889	,	0.29283047	,	0
17,26	,	64155	,	-7934	,	-4888	,	-0.5756407	,	0
17,26	,	64187	,	-7924	,	-4895	,	-1.2842468	,	0
17,26	,	64203	,	-7928	,	-4892	,	-1.7653958	,	0
17,26	,	64235	,	-7935	,	-4899	,	-1.9771383	,	0
17,26	,	64251	,	-7935	,	-4897	,	-2.0495303	,	0
17,26	,	64267	,	-7936	,	-4894	,	-2.1565373	,	0
17,26	,	64299	,	-7936	,	-4890	,	-2.3552232	,	0
17,26	,	64315	,	-7937	,	-4894	,	-2.6100407	,	0
17,26	,	64331	,	-7935	,	-4893	,	-2.8510447	,	0
17,26	,	64363	,	-7938	,	-4896	,	-3.0055113	,	0
17,26	,	64379	,	-7935	,	-4895	,	-3.0347075	,	0
17,26	,	64411	,	-7938	,	-4894	,	-2.9371593	,	0
17,26	,	64427	,	-7940	,	-4905	,	-2.743623	,	0
17,26	,	64443	,	-7939	,	-4897	,	-2.512053	,	0
17,26	,	64475	,	-7939	,	-4906	,	-2.2805424	,	0
17,26	,	64491	,	-7934	,	-4899	,	-2.027917	,	0
17,26	,	64507	,	-7920	,	-4903	,	-1.6189651	,	0
17,26	,	64539	,	-7919	,	-4895	,	-0.81017816	,	0
17,26	,	64555	,	-7907	,	-4897	,	0.5912951	,	0
17,26	,	64571	,	-7910	,	-4893	,	2.5968084	,	1
17,26	,	64603	,	-7901	,	-4893	,	5.021921	,	3
17,26	,	64619	,	-7900	,	-4889	,	7.5792937	,	5
17,26	,	64651	,	-7897	,	-4894	,	9.989152	,	7
17,26	,	64667	,	-7902	,	-4894	,	11.969584	,	9
17,26	,	64683	,	-7890	,	-4892	,	13.281298	,	10
17,26	,	64715	,	-7890	,	-4888	,	13.887487	,	11
17,26	,	64731	,	-7903	,	-4888	,	13.859919	,	11
17,27	,	64747	,	-7894	,	-4888	,	13.171749	,	11
17,27	,	64779	,	-7899	,	-4886	,	11.8266	,	10
17,27	,	64795	,	-7903	,	-4893	,	9.961674	,	8
17,27	,	64827	,	-7903	,	-4889	,	7.7298517	,	6
17,27	,	64843	,	-7898	,	-4885	,	5.3250523	,	4
17,27	,	64859	,	-7909	,	-4893	,	2.9887395	,	2
17,27	,	64891	,	-7908	,	-4894	,	0.8534303	,	1
17,27	,	64907	,	-7907	,	-4897	,	-1.0355968	,	0
17,27	,	64923	,	-7908	,	-4894	,	-2.5824347	,	0
17,27	,	64955	,	-7909	,	-4897	,	-3.6877522	,	0
17,27	,	64971	,	-7907	,	-4899	,	-4.328093	,	0
17,27	,	64986	,	-7912	,	-4900	,	-4.547328	,	0
17,27	,	65019	,	-7921	,	-4900	,	-4.5005546	,	0
17,27	,	65035	,	-7916	,	-4897	,	-4.424116	,	0
17,27	,	65067	,	-7921	,	-4901	,	-4.4515433	,	0
17,27	,	65083	,	-7920	,	-4904	,	-4.57331	,	0
17,27	,	65099	,	-7928	,	-4902	,	-4.768027	,	0
17,27	,	65131	,	-7929	,	-4900	,	-5.067133	,	0
17,27	,	65147	,	-7933	,	-4905	,	-5.5075736	,	0
17,27	,	65163	,	-7930	,	-4904	,	-6.054946	,	0
17,27	,	65195	,	-7929	,	-4908	,	-6.567069	,	0
17,27	,	65211	,	-7931	,	-4908	,	-6.8547516	,	0
17,27	,	65243	,	-7940	,	-4904	,	-6.854207	,	0
17,27	,	65259	,	-7936	,	-4906	,	-6.677724	,	0
17,27	,	65275	,	-7943	,	-4907	,	-6.4546976	,	0
17,27	,	65307	,	-7955	,	-4904	,	-6.315585	,	0
17,27	,	65323	,	-7951	,	-4904	,	-6.444545	,	0
17,27	,	65339	,	-7945	,	-4911	,	-6.8602114	,	0
17,27	,	65371	,	-7945	,	-4904	,	-7.2896514	,	0
17,27	,	65387	,	-7940	,	-4905	,	-7.3951483	,	0
17,27	,	65419	,	-7938	,	-4904	,	-6.9677153	,	0
17,27	,	65435	,	-7935	,	-4902	,	-5.9454613	,	0
17,27	,	65450	,	-7930	,	-4899	,	-4.383235	,	1
17,27	,	65482	,	-7928	,	-4898	,	-2.4061897	,	2
17,27	,	65499	,	-7928	,	-4897	,	-0.19901252	,	3
17,27	,	65515	,	-7927	,	-4895	,	1.9931645	,	5
17,27	,	65547	,	-7918	,	-4896	,	3.9608464	,	7
17,27	,	65563	,	-7922	,	-4896	,	5.609408	,	8
17,27	,	65579	,	-7919	,	-4893	,	6.879896	,	9
17,27	,	65610	,	-7921	,	-4898	,	7.693155	,	10
17,27	,	65626	,	-7915	,	-4891	,	8.020603	,	10
17,27	,	65658	,	-7919	,	-4896	,	7.919058	,	9
17,27	,	65674	,	-7915	,	-4897	,	7.4771895	,	8
17,27	,	65690	,	-7928	,	-4895	,	6.733338	,	7
17,27	,	65723	,	-7928	,	-4897	,	5.630742	,	5
17,27	,	65739	,	-7927	,	-4897	,	4.135166	,	3
17,28	,	65755	,	-7924	,	-4891	,	2.396024	,	2
17,28	,	65787	,	-7921	,	-4900	,	0.7078643	,	1
17,28	,	65803	,	-7919	,	-4894	,	-0.63141274	,	0
17,28	,	65818	,	-7935	,	-4893	,	-1.4994766	,	0
17,28	,	65850	,	-7945	,	-4892	,	-2.1246657	,	0
17,28	,	65866	,	-7938	,	-4892	,	-2.89562	,	0
17,28	,	65899	,	-7940	,	-4893	,	-3.929777	,	0
17,28	,	65915	,	-7930	,	-4888	,	-4.990305	,	0
17,28	,	65931	,	-7934	,	-4884	,	-5.7255435	,	0
17,28	,	65962	,	-7941	,	-4887	,	-5.9492884	,	0
17,28	,	65978	,	-7946	,	-4885	,	-5.7864075	,	0
17,28	,	65994	,	-7949	,	-4881	,	-5.5239367	,	0
17,28	,	66026	,	-7947	,	-4881	,	-5.3624153	,	0
17,28	,	66042	,	-7945	,	-4880	,	-5.3074026	,	0
17,28	,	66075	,	-7954	,	-4880	,	-5.2732	,	0
17,28	,	66091	,	-7955	,	-4877	,	-5.2694235	,	0
17,28	,	66106	,	-7951	,	-4884	,	-5.3473377	,	0
17,28	,	66138	,	-7960	,	-4891	,	-5.4709682	,	0
17,28	,	66154	,	-7954	,	-4885	,	-5.5863323	,	0
17,28	,	66170	,	-7956	,	-4888	,	-5.6364565	,	0
17,28	,	66202	,	-7961	,	-4894	,	-5.552511	,	0
17,28	,	66218	,	-7959	,	-4896	,	-5.3387127	,	0
17,28	,	66250	,	-7968	,	-4889	,	-5.0717587	,	0
17,28	,	66266	,	-7955	,	-4899	,	-4.81169	,	0
17,28	,	66282	,	-7955	,	-4897	,	-4.485565	,	0
17,28	,	66314	,	-7947	,	-4895	,	-3.9024227	,	0
17,28	,	66330	,	-7948	,	-4894	,	-2.9170089	,	0
17,28	,	66346	,	-7949	,	-4897	,	-1.5523367	,	0
17,28	,	66378	,	-7947	,	-4902	,	-0.0010826588	,	1
17,28	,	66394	,	-7933	,	-4886	,	1.5685526	,	2
17,28	,	66410	,	-7935	,	-4892	,	3.1622424	,	3
17,28	,	66442	,	-7935	,	-4889	,	4.7796483	,	4
17,28	,	66458	,	-7933	,	-4897	,	6.259977	,	5
17,28	,	66490	,	-7931	,	-4893	,	7.415077	,	6
17,28	,	66506	,	-7930	,	-4893	,	8.152349	,	7
17,28	,	66522	,	-7930	,	-4894	,	8.456606	,	7
17,28	,	66554	,	-7933	,	-4901	,	8.339401	,	7
17,28	,	66570	,	-7925	,	-4895	,	7.843848	,	6
17,28	,	66586	,	-7929	,	-4893	,	7.086447	,	5
17,28	,	66618	,	-7921	,	-4899	,	6.2312207	,	4
17,28	,	66634	,	-7922	,	-4896	,	5.4481077	,	3
17,28	,	66666	,	-7919	,	-4893	,	4.866653	,	2
17,28	,	66682	,	-7922	,	-4903	,	4.5047803	,	1
17,28	,	66698	,	-7924	,	-4897	,	4.2638645	,	0
17,28	,	66730	,	-7924	,	-4905	,	4.004079	,	0
17,29	,	66746	,	-7921	,	-4904	,	3.644514	,	0
17,29	,	66762	,	-7925	,	-4905	,	3.1835244	,	0
17,29	,	66794	,	-7922	,	-4902	,	2.6419334	,	0
17,29	,	66810	,	-7927	,	-4905	,	2.0406976	,	0
17,29	,	66826	,	-7919	,	-4909	,	1.4281261	,	0
17,29	,	66858	,	-7927	,	-4905	,	0.88056254	,	0
17,29	,	66874	,	-7929	,	-4901	,	0.4045518	,	0
17,29	,	66906	,	-7935	,	-4909	,	-0.11544657	,	0
17,29	,	66922	,	-7936	,	-4910	,	-0.81095374	,	0
17,29	,	66938	,	-7942	,	-4911	,	-1.738105	,	0
17,29	,	66970	,	-7952	,	-4915	,	-2.9228144	,	0
17,29	,	66986	,	-7955	,	-4911	,	-4.4095864	,	0
17,29	,	67002	,	-7964	,	-4913	,	-6.2039337	,	0
17,29	,	67034	,	-7959	,	-4913	,	-8.189427	,	0
17,29	,	67050	,	-7970	,	-4914	,	-10.13515	,	0
17,29	,	67082	,	-7954	,	-4910	,	-11.760791	,	0
17,29	,	67098	,	-7961	,	-4919	,	-12.754485	,	0
17,29	,	67114	,	-7964	,	-4908	,	-12.908403	,	0
17,29	,	67146	,	-7950	,	-4916	,	-12.221897	,	0
17,29	,	67162	,	-7948	,	-4911	,	-10.724695	,	0
17,29	,	67178	,	-7950	,	-4917	,	-8.471802	,	1
17,29	,	67210	,	-7939	,	-4915	,	-5.6718597	,	3
17,29	,	67226	,	-7934	,	-4912	,	-2.556054	,	5
17,29	,	67242	,	-7936	,	-4913	,	0.687032	,	8
17,29	,	67274	,	-7936	,	-4910	,	3.7802122	,	11
17,29	,	67290	,	-7929	,	-4906	,	6.408051	,	14
17,29	,	67322	,	-7937	,	-4910	,	8.368128	,	16
17,29	,	67338	,	-7931	,	-4908	,	9.549596	,	17
17,29	,	67354	,	-7942	,	-4908	,	9.886157	,	18
17,29	,	67386	,	-7933	,	-4909	,	9.395626	,	17
17,29	,	67402	,	-7937	,	-4910	,	8.239729	,	15
17,29	,	67418	,	-7937	,	-4913	,	6.6815214	,	13
17,29	,	67450	,	-7943	,	-4906	,	4.9379034	,	10
17,29	,	67466	,	-7944	,	-4912	,	3.119417	,	7
17,29	,	67498	,	-7940	,	-4910	,	1.3177226	,	4
17,29	,	67514	,	-7946	,	-4910	,	-0.3258164	,	2
17,29	,	67530	,	-7943	,	-4907	,	-1.6870441	,	1
17,29	,	67562	,	-7954	,	-4909	,	-2.7452645	,	0
17,29	,	67578	,	-7943	,	-4916	,	-3.5525746	,	0
17,29	,	67594	,	-7953	,	-4905	,	-4.1338086	,	0
17,29	,	67626	,	-7959	,	-4912	,	-4.538747	,	0
17,29	,	67642	,	-7964	,	-4915	,	-4.9401836	,	0
17,29	,	67658	,	-7961	,	-4912	,	-5.490315	,	0
17,29	,	67690	,	-7959	,	-4917	,	-6.1364136	,	0
17,29	,	67706	,	-7967	,	-4912	,	-6.6978426	,	0
17,29	,	67738	,	-7969	,	-4911	,	-7.0884323	,	0
17,30	,	67754	,	-7967	,	-4919	,	-7.3311725	,	0
17,30	,	67770	,	-7970	,	-4917	,	-7.4211473	,	0
17,30	,	67801	,	-7964	,	-4913	,	-7.3036637	,	0
17,30	,	67817	,	-7975	,	-4917	,	-6.952259	,	0
17,30	,	67833	,	-7977	,	-4913	,	-6.467246	,	0
17,30	,	67866	,	-7983	,	-4916	,	-6.0572076	,	0
17,30	,	67882	,	-7980	,	-4913	,	-5.8791943	,	0
17,30	,	67913	,	-7981	,	-4914	,	-5.9192057	,	0
17,30	,	67930	,	-7986	,	-4918	,	-6.0538774	,	0
17,30	,	67946	,	-7985	,	-4918	,	-6.1933627	,	0
17,30	,	67978	,	-7987	,	-4918	,	-6.289419	,	0
17,30	,	67993	,	-7980	,	-4912	,	-6.26153	,	0
17,30	,	68009	,	-7982	,	-4908	,	-5.9904833	,	0
17,30	,	68042	,	-7971	,	-4905	,	-5.35507	,	0
17,30	,	68058	,	-7971	,	-4901	,	-4.254732	,	0
17,30	,	68090	,	-7969	,	-4901	,	-2.6822698	,	1
17,30	,	68106	,	-7964	,	-4897	,	-0.76914287	,	2
17,30	,	68122	,	-7955	,	-4889	,	1.3414994	,	3
17,30	,	68153	,	-7955	,	-4889	,	3.5715232	,	5
17,30	,	68169	,	-7965	,	-4885	,	5.744385	,	7
17,30	,	68185	,	-7963	,	-4886	,	7.4861407	,	9
17,30	,	68217	,	-7957	,	-4887	,	8.480671	,	10
17,30	,	68234	,	-7962	,	-4883	,	8.699995	,	10
17,30	,	68250	,	-7955	,	-4889	,	8.300766	,	10
17,30	,	68282	,	-7952	,	-4885	,	7.5165796	,	9
17,30	,	68298	,	-7951	,	-4887	,	6.622499	,	8
17,30	,	68329	,	-7955	,	-4881	,	5.801112	,	7
17,30	,	68345	,	-7957	,	-4887	,	5.055939	,	5
17,30	,	68361	,	-7960	,	-4891	,	4.2839117	,	3
17,30	,	68393	,	-7961	,	-4890	,	3.3897376	,	1
17,30	,	68409	,	-7960	,	-4888	,	2.360982	,	0
17,30	,	68426	,	-7958	,	-4889	,	1.2884665	,	0
17,30	,	68457	,	-7956	,	-4896	,	0.3206638	,	0
17,30	,	68473	,	-7962	,	-4894	,	-0.43128896	,	0
17,30	,	68505	,	-7962	,	-4897	,	-0.96846837	,	0
17,30	,	68521	,	-7960	,	-4899	,	-1.3476678	,	0
17,30	,	68537	,	-7966	,	-4901	,	-1.6099421	,	0
17,30	,	68569	,	-7961	,	-4909	,	-1.8044206	,	0
17,30	,	68585	,	-7970	,	-4901	,	-1.9877372	,	0
17,30	,	68602	,	-7968	,	-4902	,	-2.2148585	,	0
17,30	,	68633	,	-7971	,	-4908	,	-2.518702	,	0
17,30	,	68649	,	-7971	,	-4902	,	-2.880011	,	0
17,30	,	68665	,	-7966	,	-4907	,	-3.227183	,	0
17,30	,	68697	,	-7966	,	-4908	,	-3.4303408	,	0
17,30	,	68713	,	-7974	,	-4911	,	-3.4041939	,	0
17,31	,	68745	,	-7973	,	-4908	,	-3.2223158	,	0
17,31	,	68761	,	-7972	,	-4913	,	-3.006535	,	0
17,31	,	68777	,	-7965	,	-4915	,	-2.7615123	,	0
17,31	,	68809	,	-7960	,	-4911	,	-2.3560107	,	0
17,31	,	68825	,	-7957	,	-4904	,	-1.6202998	,	0
17,31	,	68841	,	-7941	,	-4903	,	-0.4139552	,	0
17,31	,	68873	,	-7937	,	-4908	,	1.3888342	,	1
17,31	,	68889	,	-7933	,	-4904	,	3.8044002	,	2
17,31	,	68921	,	-7935	,	-4903	,	6.595477	,	4
17,31	,	68937	,	-7927	,	-4897	,	9.358126	,	6
17,31	,	68953	,	-7935	,	-4900	,	11.702722	,	8
17,31	,	68985	,	-7915	,	-4906	,	13.376243	,	10
17,31	,	69001	,	-7919	,	-4902	,	14.37933	,	11
17,31	,	69017	,	-7920	,	-4900	,	14.837278	,	12
17,31	,	69049	,	-7920	,	-4905	,	14.756697	,	12
17,31	,	69065	,	-7935	,	-4911	,	14.020687	,	11
17,31	,	69081	,	-7924	,	-4905	,	12.5158825	,	10
17,31	,	69113	,	-7922	,	-4897	,	10.356312	,	8
17,31	,	69129	,	-7933	,	-4905	,	7.8803277	,	6
17,31	,	69161	,	-7924	,	-4903	,	5.369689	,	4
17,31	,	69177	,	-7932	,	-4902	,	3.0148907	,	2
17,31	,	69193	,	-7939	,	-4905	,	0.9278412	,	1
17,31	,	69225	,	-7942	,	-4907	,	-0.94109297	,	0
17,31	,	69241	,	-7946	,	-4906	,	-2.6981401	,	0
17,31	,	69257	,	-7945	,	-4906	,	-4.3655415	,	0
17,31	,	69289	,	-7945	,	-4912	,	-5.8492055	,	0
17,31	,	69305	,	-7945	,	-4912	,	-6.981699	,	0
17,31	,	69337	,	-7949	,	-4915	,	-7.6428595	,	0
17,31	,	69353	,	-7945	,	-4910	,	-7.8216233	,	0
17,31	,	69369	,	-7956	,	-4912	,	-7.598045	,	0
17,31	,	69401	,	-7951	,	-4912	,	-7.1333113	,	0
17,31	,	69417	,	-7953	,	-4914	,	-6.5734224	,	0
17,31	,	69433	,	-7951	,	-4916	,	-5.9586744	,	0
17,31	,	69465	,	-7952	,	-4915	,	-5.2741833	,	0
17,31	,	69481	,	-7954	,	-4917	,	-4.527858	,	0
17,31	,	69497	,	-7961	,	-4916	,	-3.815404	,	0
17,31	,	69529	,	-7959	,	-4923	,	-3.2978106	,	0
17,31	,	69545	,	-7962	,	-4918	,	-3.0685236	,	0
17,31	,	69577	,	-7960	,	-4918	,	-3.0947638	,	0
17,31	,	69593	,	-7948	,	-4912	,	-3.2039373	,	0
17,31	,	69609	,	-7948	,	-4909	,	-3.0913253	,	0
17,31	,	69641	,	-7944	,	-4909	,	-2.5009727	,	0
17,31	,	69657	,	-7942	,	-4911	,	-1.383039	,	0
17,31	,	69673	,	-7934	,	-4904	,	0.1721648	,	1
17,31	,	69705	,	-7942	,	-4910	,	1.9936521	,	2
17,31	,	69721	,	-7933	,	-4908	,	3.8224494	,	3
17,32	,	69753	,	-7929	,	-4907	,	5.452367	,	4
17,32	,	69769	,	-7923	,	-4912	,	6.8557467	,	5
17,32	,	69785	,	-7933	,	-4902	,	8.030831	,	6
17,32	,	69817	,	-7929	,	-4898	,	8.835183	,	7
17,32	,	69833	,	-7933	,	-4901	,	9.085739	,	7
17,32	,	69849	,	-7929	,	-4904	,	8.729543	,	7
17,32	,	69881	,	-7933	,	-4902	,	7.8598685	,	6
17,32	,	69897	,	-7929	,	-4902	,	6.641172	,	5
17,32	,	69929	,	-7940	,	-4902	,	5.211773	,	4
17,32	,	69945	,	-7935	,	-4896	,	3.6335316	,	3
17,32	,	69961	,	-7932	,	-4899	,	2.0081112	,	2
17,32	,	69993	,	-7937	,	-4900	,	0.5338893	,	1
17,32	,	70009	,	-7933	,	-4907	,	-0.6384592	,	0
17,32	,	70025	,	-7942	,	-4902	,	-1.4865217	,	0
17,32	,	70057	,	-7939	,	-4904	,	-2.0832126	,	0
17,32	,	70073	,	-7940	,	-4904	,	-2.5090005	,	0
17,32	,	70105	,	-7949	,	-4904	,	-2.8214858	,	0
17,32	,	70121	,	-7942	,	-4897	,	-3.098585	,	0
17,32	,	70137	,	-7950	,	-4899	,	-3.382433	,	0
17,32	,	70169	,	-7954	,	-4905	,	-3.6953592	,	0
17,32	,	70185	,	-7943	,	-4903	,	-4.0489893	,	0
17,32	,	70200	,	-7956	,	-4905	,	-4.3619943	,	0
17,32	,	70232	,	-7955	,	-4900	,	-4.591615	,	0
17,32	,	70248	,	-7958	,	-4902	,	-4.8095284	,	0
17,32	,	70265	,	-7962	,	-4899	,	-5.0770283	,	0
17,32	,	70297	,	-7958	,	-4895	,	-5.393819	,	0
17,32	,	70313	,	-7958	,	-4896	,	-5.6673403	,	0
17,32	,	70345	,	-7964	,	-4891	,	-5.775651	,	0
17,32	,	70360	,	-7967	,	-4890	,	-5.7300005	,	0
17,32	,	70376	,	-7965	,	-4892	,	-5.6364355	,	0
17,32	,	70408	,	-7954	,	-4882	,	-5.475608	,	0
17,32	,	70424	,	-7954	,	-4884	,	-5.0470877	,	0
17,32	,	70441	,	-7954	,	-4878	,	-4.187937	,	0
17,32	,	70473	,	-7950	,	-4882	,	-2.9268982	,	0
17,32	,	70488	,	-7945	,	-4880	,	-1.3834729	,	1
17,32	,	70520	,	-7940	,	-4874	,	0.3531407	,	2
17,32	,	70537	,	-7933	,	-4876	,	2.2406673	,	3
17,32	,	70552	,	-7929	,	-4876	,	4.2557883	,	4
17,32	,	70584	,	-7929	,	-4876	,	6.3213167	,	6
17,32	,	70601	,	-7924	,	-4878	,	8.270832	,	8
17,32	,	70617	,	-7927	,	-4873	,	9.906224	,	9
17,32	,	70649	,	-7931	,	-4876	,	11.014476	,	10
17,32	,	70665	,	-7922	,	-4883	,	11.425109	,	11
17,32	,	70680	,	-7930	,	-4881	,	11.134496	,	10
17,32	,	70712	,	-7919	,	-4882	,	10.288046	,	9
17,32	,	70728	,	-7914	,	-4880	,	9.148483	,	8
17,33	,	70760	,	-7929	,	-4888	,	7.9817615	,	7
17,33	,	70776	,	-7922	,	-4892	,	6.833557	,	5
17,33	,	70792	,	-7923	,	-4890	,	5.636855	,	3
17,33	,	70824	,	-7920	,	-4891	,	4.4330864	,	2
17,33	,	70840	,	-7927	,	-4894	,	3.3077705	,	1
17,33	,	70856	,	-7932	,	-4893	,	2.24358	,	0
17,33	,	70889	,	-7932	,	-4893	,	1.1333256	,	0
17,33	,	70904	,	-7929	,	-4891	,	-0.05139911	,	0
17,33	,	70936	,	-7932	,	-4895	,	-1.1941577	,	0
17,33	,	70953	,	-7932	,	-4895	,	-2.1567602	,	0
17,33	,	70968	,	-7924	,	-4890	,	-2.8270776	,	0
17,33	,	71000	,	-7936	,	-4896	,	-3.1230974	,	0
17,33	,	71017	,	-7930	,	-4894	,	-3.0957131	,	0
17,33	,	71032	,	-7933	,	-4898	,	-2.8850763	,	0
17,33	,	71064	,	-7925	,	-4895	,	-2.5503457	,	0
17,33	,	71080	,	-7927	,	-4899	,	-2.054107	,	0
17,33	,	71096	,	-7926	,	-4900	,	-1.3792003	,	0
17,33	,	71128	,	-7921	,	-4900	,	-0.575032	,	0
17,33	,	71145	,	-7929	,	-4904	,	0.27620965	,	0
17,33	,	71176	,	-7932	,	-4903	,	1.014106	,	0
17,33	,	71192	,	-7936	,	-4901	,	1.4082178	,	0
17,33	,	71208	,	-7932	,	-4899	,	1.3260038	,	0
17,33	,	71240	,	-7925	,	-4901	,	0.875553	,	0
17,33	,	71256	,	-7905	,	-4901	,	0.4536569	,	0
17,33	,	71272	,	-7913	,	-4898	,	0.5665197	,	0
17,33	,	71304	,	-7909	,	-4901	,	1.4223444	,	0
17,33	,	71320	,	-7904	,	-4899	,	2.8480296	,	0
17,33	,	71352	,	-7903	,	-4899	,	4.5716467	,	1
17,33	,	71368	,	-7903	,	-4895	,	6.3275666	,	2
17,33	,	71384	,	-7909	,	-4893	,	7.8090487	,	3
17,33	,	71416	,	-7903	,	-4899	,	8.737005	,	4
17,33	,	71432	,	-7908	,	-4897	,	8.9877205	,	4
17,33	,	71448	,	-7909	,	-4901	,	8.577372	,	4
17,33	,	71480	,	-7909	,	-4893	,	7.5817494	,	4
17,33	,	71496	,	-7911	,	-4901	,	6.146048	,	4
17,33	,	71528	,	-7902	,	-4893	,	4.5057206	,	4
17,33	,	71544	,	-7912	,	-4899	,	2.9223366	,	3
17,33	,	71560	,	-7903	,	-4899	,	1.5685959	,	2
17,33	,	71592	,	-7910	,	-4901	,	0.5211344	,	1
17,33	,	71608	,	-7918	,	-4898	,	-0.25734723	,	0
17,33	,	71624	,	-7915	,	-4900	,	-0.9409039	,	0
17,33	,	71656	,	-7913	,	-4899	,	-1.6356758	,	0
17,33	,	71672	,	-7918	,	-4900	,	-2.2775462	,	0
17,33	,	71688	,	-7913	,	-4900	,	-2.7783303	,	0
17,33	,	71720	,	-7914	,	-4901	,	-3.0744252	,	0
17,33	,	71736	,	-7918	,	-4904	,	-3.1333795	,	0
17,34	,	71768	,	-7925	,	-4906	,	-3.0471888	,	0
17,34	,	71784	,	-7917	,	-4909	,	-2.973865	,	0
17,34	,	71800	,	-7925	,	-4902	,	-2.973973	,	0
17,34	,	71832	,	-7927	,	-4904	,	-3.0580382	,	0
17,34	,	71848	,	-7928	,	-4904	,	-3.269466	,	0
17,34	,	71864	,	-7932	,	-4907	,	-3.6217985	,	0
17,34	,	71896	,	-7933	,	-4905	,	-4.0872974	,	0
17,34	,	71912	,	-7929	,	-4911	,	-4.5907927	,	0
17,34	,	71944	,	-7936	,	-4904	,	-5.004701	,	0
17,34	,	71960	,	-7942	,	-4907	,	-5.2935915	,	0
17,34	,	71976	,	-7948	,	-4911	,	-5.590521	,	0
17,34	,	72008	,	-7947	,	-4914	,	-6.040468	,	0
17,34	,	72024	,	-7947	,	-4906	,	-6.633354	,	0
17,34	,	72041	,	-7947	,	-4905	,	-7.216073	,	0
17,34	,	72072	,	-7936	,	-4902	,	-7.5578127	,	0
17,34	,	72088	,	-7938	,	-4901	,	-7.3951206	,	0
17,34	,	72104	,	-7936	,	-4903	,	-6.587205	,	0
17,34	,	72136	,	-7938	,	-4903	,	-5.229103	,	0
17,34	,	72152	,	-7926	,	-4900	,	-3.5158722	,	1
17,34	,	72184	,	-7933	,	-4901	,	-1.6015551	,	2
17,34	,	72200	,	-7917	,	-4900	,	0.39513016	,	3
17,34	,	72216	,	-7926	,	-4897	,	2.3849707	,	4
17,34	,	72248	,	-7919	,	-4893	,	4.2564077	,	5
17,34	,	72264	,	-7926	,	-4900	,	5.8266196	,	6
17,34	,	72280	,	-7931	,	-4901	,	6.8705034	,	7
17,34	,	72312	,	-7924	,	-4896	,	7.2048206	,	8
17,34	,	72328	,	-7924	,	-4894	,	6.8538218	,	8
17,34	,	72360	,	-7927	,	-4892	,	6.0273933	,	7
17,34	,	72376	,	-7924	,	-4900	,	4.9365015	,	6
17,34	,	72392	,	-7925	,	-4899	,	3.7546525	,	5
17,34	,	72424	,	-7929	,	-4898	,	2.609901	,	4
17,34	,	72440	,	-7929	,	-4902	,	1.54673	,	3
17,34	,	72456	,	-7930	,	-4896	,	0.57347083	,	2
17,34	,	72488	,	-7935	,	-4898	,	-0.30449343	,	1
17,34	,	72504	,	-7947	,	-4890	,	-1.1688509	,	0
17,34	,	72520	,	-7934	,	-4886	,	-2.1460629	,	0
17,34	,	72552	,	-7936	,	-4891	,	-3.1665804	,	0
17,34	,	72568	,	-7941	,	-4889	,	-4.0039506	,	0
17,34	,	72600	,	-7955	,	-4889	,	-4.6199083	,	0
17,34	,	72616	,	-7953	,	-4884	,	-5.2273254	,	0
17,34	,	72632	,	-7949	,	-4884	,	-5.961448	,	0
17,34	,	72664	,	-7959	,	-4892	,	-6.725982	,	0
17,34	,	72680	,	-7961	,	-4885	,	-7.4219003	,	0
17,34	,	72696	,	-7958	,	-4881	,	-8.026449	,	0
17,34	,	72728	,	-7965	,	-4882	,	-8.480063	,	0
17,34	,	72743	,	-7963	,	-4886	,	-8.731211	,	0
17,35	,	72776	,	-7961	,	-4886	,	-8.749001	,	0
17,35	,	72792	,	-7968	,	-4889	,	-8.49404	,	0
17,35	,	72808	,	-7969	,	-4890	,	-8.01602	,	0
17,35	,	72840	,	-7971	,	-4889	,	-7.448873	,	0
17,35	,	72856	,	-7976	,	-4893	,	-6.91233	,	0
17,35	,	72871	,	-7977	,	-4893	,	-6.5010357	,	0
17,35	,	72903	,	-7975	,	-4904	,	-6.24747	,	0
17,35	,	72919	,	-7970	,	-4894	,	-6.052657	,	0
17,35	,	72936	,	-7961	,	-4891	,	-5.6903625	,	0
17,35	,	72968	,	-7959	,	-4896	,	-4.8982863	,	0
17,35	,	72984	,	-7957	,	-4898	,	-3.5418396	,	0
17,35	,	73016	,	-7957	,	-4898	,	-1.71104	,	1
17,35	,	73032	,	-7954	,	-4902	,	0.35400867	,	2
17,35	,	73048	,	-7955	,	-4898	,	2.3866818	,	4
17,35	,	73079	,	-7952	,	-4898	,	4.157312	,	6
17,35	,	73095	,	-7954	,	-4901	,	5.5000815	,	7
17,35	,	73111	,	-7953	,	-4899	,	6.3204136	,	8
17,35	,	73144	,	-7943	,	-4896	,	6.6420884	,	8
17,35	,	73160	,	-7947	,	-4897	,	6.634576	,	8
17,35	,	73192	,	-7936	,	-4896	,	6.5086436	,	8
17,35	,	73207	,	-7938	,	-4901	,	6.4321194	,	7
17,35	,	73224	,	-7933	,	-4904	,	6.501301	,	6
17,35	,	73255	,	-7931	,	-4900	,	6.727899	,	4
17,35	,	73271	,	-7940	,	-4900	,	7.027422	,	2
17,35	,	73287	,	-7939	,	-4901	,	7.188179	,	1
17,35	,	73320	,	-7929	,	-4902	,	7.0396314	,	0
17,35	,	73336	,	-7928	,	-4904	,	6.658199	,	0
17,35	,	73352	,	-7929	,	-4904	,	6.231428	,	0
17,35	,	73384	,	-7932	,	-4904	,	5.8240347	,	0
17,35	,	73400	,	-7929	,	-4904	,	5.3830137	,	0
17,35	,	73431	,	-7930	,	-4909	,	4.868062	,	0
17,35	,	73447	,	-7932	,	-4908	,	4.2786956	,	0
17,35	,	73463	,	-7941	,	-4912	,	3.569294	,	0
17,35	,	73496	,	-7936	,	-4905	,	2.6528807	,	0
17,35	,	73512	,	-7938	,	-4908	,	1.5416517	,	0
17,35	,	73528	,	-7949	,	-4909	,	0.3180511	,	0
17,35	,	73560	,	-7946	,	-4911	,	-1.0121661	,	0
17,35	,	73575	,	-7943	,	-4914	,	-2.4050443	,	0
17,35	,	73607	,	-7955	,	-4913	,	-3.7097778	,	0
17,35	,	73623	,	-7948	,	-4917	,	-4.8357487	,	0
17,35	,	73640	,	-7968	,	-4914	,	-5.8114457	,	0
17,35	,	73671	,	-7964	,	-4922	,	-6.764213	,	0
17,35	,	73687	,	-7972	,	-4917	,	-7.816713	,	0
17,35	,	73703	,	-7979	,	-4925	,	-8.988221	,	0
17,35	,	73735	,	-7975	,	-4919	,	-10.225903	,	0
17,36	,	73751	,	-7981	,	-4922	,	-11.384357	,	0
17,36	,	73783	,	-7978	,	-4921	,	-12.260752	,	0
17,36	,	73800	,	-7978	,	-4920	,	-12.67712	,	0
17,36	,	73816	,	-7983	,	-4917	,	-12.526897	,	0
17,36	,	73847	,	-7971	,	-4915	,	-11.800589	,	0
17,36	,	73863	,	-7969	,	-4916	,	-10.486856	,	0
17,36	,	73879	,	-7962	,	-4915	,	-8.545467	,	1
17,36	,	73911	,	-7964	,	-4914	,	-6.034557	,	2
17,36	,	73927	,	-7962	,	-4918	,	-3.1793914	,	4
17,36	,	73943	,	-7963	,	-4915	,	-0.3178954	,	6
17,36	,	73975	,	-7966	,	-4913	,	2.2005033	,	8
17,36	,	73991	,	-7958	,	-4919	,	4.126095	,	10
17,36	,	74023	,	-7964	,	-4909	,	5.384791	,	11
17,36	,	74039	,	-7959	,	-4918	,	6.0190406	,	12
17,36	,	74055	,	-7960	,	-4911	,	6.118246	,	12
17,36	,	74087	,	-7961	,	-4919	,	5.8023195	,	11
17,36	,	74103	,	-7961	,	-4916	,	5.1762285	,	10
17,36	,	74119	,	-7955	,	-4913	,	4.3594117	,	8
17,36	,	74151	,	-7966	,	-4913	,	3.49181	,	6
17,36	,	74167	,	-7961	,	-4915	,	2.6240788	,	4
17,36	,	74199	,	-7965	,	-4922	,	1.7415366	,	2
17,36	,	74215	,	-7962	,	-4913	,	0.8732139	,	1
17,36	,	74231	,	-7963	,	-4913	,	0.09193981	,	0
17,36	,	74263	,	-7965	,	-4915	,	-0.5352775	,	0
17,36	,	74279	,	-7970	,	-4915	,	-1.0143847	,	0
17,36	,	74295	,	-7969	,	-4919	,	-1.4280503	,	0
17,36	,	74327	,	-7963	,	-4914	,	-1.8061609	,	0
17,36	,	74343	,	-7972	,	-4918	,	-2.0884514	,	0
17,36	,	74359	,	-7970	,	-4908	,	-2.2625391	,	0
17,36	,	74391	,	-7975	,	-4915	,	-2.3974082	,	0
17,36	,	74407	,	-7986	,	-4908	,	-2.6137064	,	0
17,36	,	74439	,	-7979	,	-4915	,	-3.0589395	,	0
17,36	,	74455	,	-7984	,	-4921	,	-3.7490115	,	0
17,36	,	74471	,	-7992	,	-4918	,	-4.5786285	,	0
17,36	,	74503	,	-7990	,	-4918	,	-5.4889097	,	0
17,36	,	74519	,	-7989	,	-4915	,	-6.4031544	,	0
17,36	,	74535	,	-7989	,	-4919	,	-7.1404867	,	0
17,36	,	74567	,	-7996	,	-4920	,	-7.5533648	,	0
17,36	,	74583	,	-7992	,	-4925	,	-7.6389713	,	0
17,36	,	74615	,	-8002	,	-4913	,	-7.4853086	,	0
17,36	,	74631	,	-8002	,	-4917	,	-7.230343	,	0
17,36	,	74647	,	-8001	,	-4925	,	-6.999629	,	0
17,36	,	74679	,	-8005	,	-4913	,	-6.81386	,	0
17,36	,	74695	,	-8012	,	-4911	,	-6.676986	,	0
17,36	,	74711	,	-8001	,	-4908	,	-6.6152487	,	0
17,36	,	74743	,	-8002	,	-4912	,	-6.5250425	,	0
17,37	,	74759	,	-7998	,	-4908	,	-6.199608	,	0
17,37	,	74775	,	-7994	,	-4900	,	-5.4866734	,	0
17,37	,	74807	,	-7992	,	-4898	,	-4.321349	,	0
17,37	,	74823	,	-7986	,	-4900	,	-2.7225504	,	1
17,37	,	74855	,	-7983	,	-4892	,	-0.7807019	,	2
17,37	,	74871	,	-7978	,	-4895	,	1.3787425	,	3
17,37	,	74887	,	-7975	,	-4884	,	3.6139627	,	5
17,37	,	74919	,	-7972	,	-4886	,	5.774251	,	7
17,37	,	74935	,	-7982	,	-4890	,	7.653343	,	9
17,37	,	74951	,	-7972	,	-4890	,	8.991212	,	10
17,37	,	74983	,	-7969	,	-4885	,	9.669874	,	11
17,37	,	74999	,	-7968	,	-4886	,	9.802878	,	11
17,37	,	75031	,	-7980	,	-4882	,	9.507973	,	10
17,37	,	75047	,	-7965	,	-4884	,	8.805216	,	9
17,37	,	75063	,	-7969	,	-4884	,	7.8087	,	8
17,37	,	75095	,	-7973	,	-4889	,	6.7097573	,	6
17,37	,	75111	,	-7968	,	-4894	,	5.5969057	,	4
17,37	,	75127	,	-7973	,	-4893	,	4.4987936	,	2
17,37	,	75159	,	-7976	,	-4898	,	3.4248095	,	1
17,37	,	75175	,	-7983	,	-4902	,	2.3061135	,	0
17,37	,	75191	,	-7976	,	-4904	,	1.070636	,	0
17,37	,	75223	,	-7984	,	-4899	,	-0.238181	,	0
17,37	,	75239	,	-7982	,	-4906	,	-1.5132432	,	0
17,37	,	75271	,	-7975	,	-4913	,	-2.6233282	,	0
17,37	,	75287	,	-7981	,	-4899	,	-3.3901303	,	0
17,37	,	75303	,	-7983	,	-4910	,	-3.7341702	,	0
17,37	,	75335	,	-7984	,	-4908	,	-3.7573361	,	0
17,37	,	75351	,	-7986	,	-4906	,	-3.6121833	,	0
17,37	,	75367	,	-7988	,	-4909	,	-3.4204001	,	0
17,37	,	75399	,	-7990	,	-4907	,	-3.2784638	,	0
17,37	,	75415	,	-7988	,	-4911	,	-3.2278657	,	0
17,37	,	75447	,	-7981	,	-4908	,	-3.1922998	,	0
17,37	,	75462	,	-7986	,	-4914	,	-3.020475	,	0
17,37	,	75478	,	-7989	,	-4915	,	-2.6630244	,	0
17,37	,	75511	,	-7989	,	-4913	,	-2.2246633	,	0
17,37	,	75527	,	-7985	,	-4914	,	-1.8095666	,	0
17,37	,	75543	,	-7987	,	-4916	,	-1.4258018	,	0
17,37	,	75575	,	-7988	,	-4917	,	-1.0574834	,	0
17,37	,	75591	,	-7984	,	-4917	,	-0.71288526	,	0
17,37	,	75607	,	-7976	,	-4906	,	-0.3378021	,	0
17,37	,	75638	,	-7967	,	-4910	,	0.25470373	,	0
17,37	,	75655	,	-7968	,	-4909	,	1.2667803	,	0
17,37	,	75686	,	-7964	,	-4909	,	2.7174277	,	1
17,37	,	75703	,	-7957	,	-4908	,	4.453089	,	2
17,37	,	75719	,	-7955	,	-4904	,	6.303339	,	3
17,38	,	75751	,	-7950	,	-4907	,	8.121308	,	4
17,38	,	75766	,	-7947	,	-4906	,	9.770251	,	5
17,38	,	75782	,	-7946	,	-4901	,	11.129929	,	6
17,38	,	75814	,	-7942	,	-4910	,	12.096891	,	7
17,38	,	75831	,	-7949	,	-4901	,	12.575315	,	7
17,38	,	75863	,	-7951	,	-4902	,	12.442281	,	7
17,38	,	75879	,	-7948	,	-4905	,	11.612564	,	6
17,38	,	75894	,	-7947	,	-4904	,	10.174427	,	5
17,38	,	75926	,	-7944	,	-4897	,	8.38119	,	4
17,38	,	75943	,	-7947	,	-4904	,	6.5169144	,	3
17,38	,	75958	,	-7949	,	-4904	,	4.769671	,	2
17,38	,	75990	,	-7956	,	-4906	,	3.1773396	,	1
17,38	,	76006	,	-7948	,	-4910	,	1.7046525	,	0
17,38	,	76023	,	-7947	,	-4901	,	0.4075966	,	0
17,38	,	76055	,	-7942	,	-4904	,	-0.54137063	,	0
17,38	,	76071	,	-7947	,	-4903	,	-1.0117519	,	0
17,38	,	76102	,	-7957	,	-4906	,	-1.0874021	,	0
17,38	,	76118	,	-7955	,	-4907	,	-1.0614462	,	0
17,38	,	76134	,	-7957	,	-4910	,	-1.1907505	,	0
17,38	,	76167	,	-7956	,	-4905	,	-1.5248137	,	0
17,38	,	76183	,	-7961	,	-4903	,	-1.9943242	,	0
17,38	,	76199	,	-7954	,	-4910	,	-2.5099742	,	0
17,38	,	76230	,	-7956	,	-4915	,	-2.940032	,	0
17,38	,	76246	,	-7964	,	-4913	,	-3.1841886	,	0
17,38	,	76278	,	-7959	,	-4911	,	-3.2810915	,	0
17,38	,	76294	,	-7965	,	-4917	,	-3.3100913	,	0
17,38	,	76311	,	-7965	,	-4904	,	-3.319683	,	0
17,38	,	76342	,	-7967	,	-4912	,	-3.3593092	,	0
17,38	,	76358	,	-7972	,	-4918	,	-3.4741056	,	0
17,38	,	76374	,	-7974	,	-4911	,	-3.7149022	,	0
17,38	,	76406	,	-7976	,	-4914	,	-4.116546	,	0
17,38	,	76422	,	-7974	,	-4910	,	-4.632009	,	0
17,38	,	76438	,	-7978	,	-4918	,	-5.142071	,	0
17,38	,	76471	,	-7980	,	-4912	,	-5.553392	,	0
17,38	,	76487	,	-7977	,	-4914	,	-5.824123	,	0
17,38	,	76518	,	-7979	,	-4907	,	-5.902212	,	0
17,38	,	76534	,	-7974	,	-4909	,	-5.7281313	,	0
17,38	,	76550	,	-7960	,	-4902	,	-5.1919584	,	0
17,38	,	76582	,	-7956	,	-4899	,	-4.070542	,	0
17,38	,	76598	,	-7949	,	-4902	,	-2.1879542	,	1
17,38	,	76614	,	-7948	,	-4895	,	0.3917899	,	2
17,38	,	76646	,	-7945	,	-4893	,	3.3768544	,	4
17,38	,	76662	,	-7944	,	-4892	,	6.3678007	,	6
17,38	,	76694	,	-7940	,	-4897	,	8.991257	,	8
17,38	,	76710	,	-7942	,	-4895	,	10.981502	,	10
17,38	,	76726	,	-7938	,	-4894	,	12.190575	,	11
17,39	,	76758	,	-7930	,	-4902	,	12.6347065	,	12
17,39	,	76774	,	-7933	,	-4894	,	12.499264	,	12
17,39	,	76790	,	-7934	,	-4892	,	11.961539	,	11
17,39	,	76822	,	-7944	,	-4888	,	11.035284	,	10
17,39	,	76838	,	-7937	,	-4893	,	9.651051	,	8
17,39	,	76854	,	-7939	,	-4887	,	7.8636456	,	6
17,39	,	76886	,	-7934	,	-4886	,	5.9106083	,	4
17,39	,	76902	,	-7935	,	-4889	,	4.07894	,	2
17,39	,	76934	,	-7942	,	-4882	,	2.5409753	,	1
17,39	,	76950	,	-7944	,	-4881	,	1.2734363	,	0
17,39	,	76966	,	-7941	,	-4877	,	0.17435753	,	0
17,39	,	76998	,	-7947	,	-4879	,	-0.79300296	,	0
17,39	,	77014	,	-7948	,	-4884	,	-1.6423273	,	0
17,39	,	77030	,	-7953	,	-4874	,	-2.4262185	,	0
17,39	,	77062	,	-7947	,	-4872	,	-3.175014	,	0
17,39	,	77078	,	-7953	,	-4869	,	-3.8332903	,	0
17,39	,	77110	,	-7955	,	-4877	,	-4.3426895	,	0
17,39	,	77126	,	-7948	,	-4871	,	-4.6875534	,	0
17,39	,	77142	,	-7952	,	-4871	,	-4.8106937	,	0
17,39	,	77174	,	-7949	,	-4874	,	-4.649004	,	0
17,39	,	77190	,	-7955	,	-4878	,	-4.2303023	,	0
17,39	,	77206	,	-7956	,	-4877	,	-3.6776402	,	0
17,39	,	77238	,	-7971	,	-4873	,	-3.2180836	,	0
17,39	,	77254	,	-7960	,	-4881	,	-3.101253	,	0
17,39	,	77286	,	-7964	,	-4890	,	-3.3630257	,	0
17,39	,	77302	,	-7953	,	-4884	,	-3.7657318	,	0
17,39	,	77318	,	-7960	,	-4889	,	-3.9997706	,	0
17,39	,	77350	,	-7954	,	-4887	,	-3.8796568	,	0
17,39	,	77366	,	-7952	,	-4890	,	-3.3674102	,	0
17,39	,	77382	,	-7937	,	-4882	,	-2.4255729	,	0
17,39	,	77414	,	-7940	,	-4885	,	-0.96400535	,	0
17,39	,	77430	,	-7933	,	-4884	,	1.0058098	,	1
17,39	,	77446	,	-7934	,	-4882	,	3.2884555	,	2
17,39	,	77478	,	-7925	,	-4886	,	5.6159053	,	4
17,39	,	77494	,	-7928	,	-4884	,	7.761225	,	6
17,39	,	77526	,	-7920	,	-4878	,	9.555139	,	8
17,39	,	77542	,	-7916	,	-4881	,	10.91853	,	9
17,39	,	77558	,	-7920	,	-4880	,	11.849118	,	10
17,39	,	77590	,	-7911	,	-4881	,	12.336463	,	10
17,39	,	77606	,	-7923	,	-4881	,	12.350731	,	10
17,39	,	77622	,	-7904	,	-4882	,	11.901058	,	9
17,39	,	77654	,	-7898	,	-4882	,	11.188013	,	8
17,39	,	77670	,	-7903	,	-4882	,	10.546076	,	6
17,39	,	77702	,	-7902	,	-4883	,	10.101164	,	4
17,39	,	77718	,	-7888	,	-4882	,	9.798749	,	2
17,39	,	77734	,	-7893	,	-4885	,	9.655608	,	1
17,40	,	77766	,	-7896	,	-4884	,	9.641838	,	0
17,40	,	77782	,	-7907	,	-4885	,	9.496643	,	0
17,40	,	77798	,	-7898	,	-4885	,	8.898291	,	0
17,40	,	77830	,	-7909	,	-4889	,	7.723714	,	0
17,40	,	77846	,	-7903	,	-4888	,	6.0541487	,	0
17,40	,	77862	,	-7911	,	-4895	,	4.066077	,	0
17,40	,	77893	,	-7905	,	-4893	,	1.9749885	,	0
17,40	,	77910	,	-7905	,	-4899	,	0.023021698	,	0
17,40	,	77942	,	-7918	,	-4896	,	-1.6089246	,	0
17,40	,	77958	,	-7913	,	-4895	,	-2.9265893	,	0
17,40	,	77974	,	-7925	,	-4898	,	-4.044422	,	0
17,40	,	78006	,	-7922	,	-4895	,	-5.062153	,	0
17,40	,	78022	,	-7929	,	-4900	,	-6.0343485	,	0
17,40	,	78038	,	-7934	,	-4894	,	-6.982025	,	0
17,40	,	78070	,	-7929	,	-4905	,	-7.8924303	,	0
17,40	,	78086	,	-7939	,	-4903	,	-8.684514	,	0
17,40	,	78118	,	-7942	,	-4902	,	-9.311541	,	0
17,40	,	78134	,	-7946	,	-4903	,	-9.828741	,	0
17,40	,	78150	,	-7943	,	-4906	,	-10.257418	,	0
17,40	,	78182	,	-7942	,	-4906	,	-10.492707	,	0
17,40	,	78198	,	-7939	,	-4905	,	-10.368312	,	0
17,40	,	78214	,	-7942	,	-4900	,	-9.7803955	,	0
17,40	,	78246	,	-7932	,	-4897	,	-8.714298	,	0
17,40	,	78262	,	-7925	,	-4895	,	-7.1418347	,	1
17,40	,	78278	,	-7921	,	-4898	,	-5.010207	,	2
17,40	,	78310	,	-7920	,	-4889	,	-2.3808546	,	4
17,40	,	78326	,	-7922	,	-4895	,	0.49444604	,	6
17,40	,	78358	,	-7909	,	-4893	,	3.296906	,	8
17,40	,	78374	,	-7907	,	-4887	,	5.845669	,	10
17,40	,	78390	,	-7907	,	-4891	,	8.076102	,	12
17,40	,	78422	,	-7908	,	-4892	,	9.864045	,	14
17,40	,	78437	,	-7903	,	-4888	,	11.048749	,	15
17,40	,	78453	,	-7912	,	-4892	,	11.537118	,	15
17,40	,	78486	,	-7900	,	-4893	,	11.330777	,	14
17,40	,	78502	,	-7908	,	-4889	,	10.558516	,	12
17,40	,	78533	,	-7909	,	-4893	,	9.38777	,	10
17,40	,	78549	,	-7903	,	-4891	,	7.937545	,	8
17,40	,	78565	,	-7908	,	-4898	,	6.3542438	,	6
17,40	,	78597	,	-7908	,	-4888	,	4.7857723	,	4
17,40	,	78613	,	-7916	,	-4895	,	3.2772243	,	2
17,40	,	78629	,	-7916	,	-4899	,	1.7817442	,	1
17,40	,	78662	,	-7914	,	-4893	,	0.2795627	,	0
17,40	,	78678	,	-7916	,	-4894	,	-1.1328874	,	0
17,40	,	78694	,	-7926	,	-4896	,	-2.363643	,	0
17,40	,	78726	,	-7925	,	-4890	,	-3.4554102	,	0
17,40	,	78742	,	-7925	,	-4893	,	-4.4641466	,	0
17,41	,	78773	,	-7932	,	-4894	,	-5.359787	,	0
17,41	,	78789	,	-7927	,	-4900	,	-6.0950975	,	0
17,41	,	78805	,	-7929	,	-4899	,	-6.6012087	,	0
17,41	,	78837	,	-7940	,	-4893	,	-6.8398385	,	0
17,41	,	78854	,	-7938	,	-4895	,	-6.9222913	,	0
17,41	,	78870	,	-7946	,	-4896	,	-7.0164995	,	0
17,41	,	78901	,	-7941	,	-4898	,	-7.2002077	,	0
17,41	,	78917	,	-7948	,	-4895	,	-7.443815	,	0
17,41	,	78949	,	-7946	,	-4897	,	-7.675311	,	0
17,41	,	78965	,	-7946	,	-4898	,	-7.815857	,	0
17,41	,	78981	,	-7950	,	-4901	,	-7.7826815	,	0
17,41	,	79013	,	-7963	,	-4900	,	-7.612688	,	0
17,41	,	79030	,	-7968	,	-4896	,	-7.544873	,	0
17,41	,	79046	,	-7957	,	-4889	,	-7.770224	,	0
17,41	,	79078	,	-7954	,	-4894	,	-8.126387	,	0
17,41	,	79093	,	-7949	,	-4889	,	-8.209324	,	0
17,41	,	79109	,	-7938	,	-4883	,	-7.6558075	,	0
17,41	,	79141	,	-7936	,	-4887	,	-6.2455616	,	0
17,41	,	79157	,	-7937	,	-4878	,	-3.9976046	,	1
17,41	,	79189	,	-7942	,	-4876	,	-1.2525198	,	3
17,41	,	79206	,	-7933	,	-4882	,	1.4935012	,	5
17,41	,	79221	,	-7934	,	-4872	,	3.8794742	,	7
17,41	,	79253	,	-7928	,	-4877	,	5.7628636	,	9
17,41	,	79269	,	-7932	,	-4865	,	7.1055174	,	10
17,41	,	79285	,	-7921	,	-4866	,	7.926687	,	11
17,41	,	79317	,	-7925	,	-4867	,	8.336155	,	11
17,41	,	79333	,	-7928	,	-4869	,	8.429262	,	11
17,41	,	79365	,	-7923	,	-4872	,	8.195027	,	10
17,41	,	79381	,	-7928	,	-4868	,	7.6289964	,	8
17,41	,	79397	,	-7928	,	-4869	,	6.776881	,	6
17,41	,	79429	,	-7920	,	-4869	,	5.7301216	,	4
17,41	,	79445	,	-7927	,	-4877	,	4.6535907	,	2
17,41	,	79461	,	-7931	,	-4876	,	3.6420717	,	1
17,41	,	79493	,	-7933	,	-4881	,	2.6286752	,	0
17,41	,	79509	,	-7938	,	-4888	,	1.5109239	,	0
17,41	,	79541	,	-7938	,	-4882	,	0.24960673	,	0
17,41	,	79557	,	-7933	,	-4887	,	-1.085338	,	0
17,41	,	79573	,	-7939	,	-4895	,	-2.3211627	,	0
17,41	,	79605	,	-7935	,	-4886	,	-3.2999692	,	0
17,41	,	79621	,	-7944	,	-4892	,	-3.9665344	,	0
17,41	,	79637	,	-7952	,	-4894	,	-4.421633	,	0
17,41	,	79669	,	-7943	,	-4896	,	-4.842271	,	0
17,41	,	79685	,	-7941	,	-4897	,	-5.220765	,	0
17,41	,	79701	,	-7944	,	-4894	,	-5.3754287	,	0
17,41	,	79733	,	-7954	,	-4898	,	-5.260234	,	0
17,42	,	79749	,	-7949	,	-4904	,	-5.035034	,	0
17,42	,	79781	,	-7946	,	-4896	,	-4.8173676	,	0
17,42	,	79797	,	-7940	,	-4898	,	-4.526293	,	0
17,42	,	79813	,	-7956	,	-4898	,	-4.0626926	,	0
17,42	,	79845	,	-7956	,	-4896	,	-3.5525565	,	0
17,42	,	79861	,	-7945	,	-4901	,	-3.1821568	,	0
17,42	,	79877	,	-7950	,	-4912	,	-2.909219	,	0
17,42	,	79909	,	-7948	,	-4904	,	-2.592156	,	0
17,42	,	79925	,	-7942	,	-4907	,	-2.1602614	,	0
17,42	,	79957	,	-7929	,	-4893	,	-1.4934288	,	0
17,42	,	79973	,	-7929	,	-4897	,	-0.3886875	,	0
17,42	,	79989	,	-7924	,	-4899	,	1.2427222	,	1
17,42	,	80021	,	-7920	,	-4903	,	3.281067	,	2
17,42	,	80037	,	-7915	,	-4896	,	5.514589	,	4
17,42	,	80053	,	-7919	,	-4898	,	7.7047763	,	6
17,42	,	80085	,	-7918	,	-4896	,	9.559616	,	8
17,42	,	80101	,	-7917	,	-4898	,	10.803605	,	9
17,42	,	80117	,	-7916	,	-4902	,	11.303528	,	10
17,42	,	80149	,	-7918	,	-4898	,	11.078583	,	10
17,42	,	80165	,	-7919	,	-4902	,	10.22443	,	10
17,42	,	80197	,	-7923	,	-4894	,	8.855309	,	9
17,42	,	80213	,	-7920	,	-4906	,	7.10284	,	8
17,42	,	80229	,	-7924	,	-4903	,	5.1451364	,	6
17,42	,	80261	,	-7928	,	-4902	,	3.1576843	,	4
17,42	,	80277	,	-7922	,	-4901	,	1.2705479	,	2
17,42	,	80293	,	-7931	,	-4898	,	-0.4021299	,	1
17,42	,	80325	,	-7924	,	-4903	,	-1.7817792	,	0
17,42	,	80341	,	-7938	,	-4906	,	-2.8655825	,	0
17,42	,	80373	,	-7935	,	-4905	,	-3.7454476	,	0
17,42	,	80389	,	-7949	,	-4908	,	-4.5822296	,	0
17,42	,	80405	,	-7940	,	-4913	,	-5.4939227	,	0
17,42	,	80437	,	-7942	,	-4909	,	-6.4159393	,	0
17,42	,	80453	,	-7942	,	-4908	,	-7.133737	,	0
17,42	,	80469	,	-7948	,	-4913	,	-7.508369	,	0
17,42	,	80501	,	-7950	,	-4906	,	-7.57957	,	0
17,42	,	80517	,	-7952	,	-4916	,	-7.4703193	,	0
17,42	,	80533	,	-7947	,	-4915	,	-7.2509766	,	0
17,42	,	80565	,	-7955	,	-4917	,	-6.9161663	,	0
17,42	,	80581	,	-7954	,	-4911	,	-6.492001	,	0
17,42	,	80613	,	-7953	,	-4927	,	-6.036929	,	0
17,42	,	80629	,	-7957	,	-4923	,	-5.568184	,	0
17,42	,	80645	,	-7969	,	-4924	,	-5.1572123	,	0
17,42	,	80677	,	-7969	,	-4919	,	-4.9997787	,	0
17,42	,	80693	,	-7965	,	-4921	,	-5.2096553	,	0
17,42	,	80709	,	-7965	,	-4913	,	-5.6375566	,	0
17,42	,	80741	,	-7954	,	-4909	,	-5.957324	,	0
17,43	,	80757	,	-7959	,	-4917	,	-5.851952	,	0
17,43	,	80788	,	-7951	,	-4913	,	-5.1723013	,	0
17,43	,	80804	,	-7961	,	-4909	,	-3.9921408	,	0
17,43	,	80821	,	-7951	,	-4911	,	-2.5286543	,	1
17,43	,	80853	,	-7946	,	-4908	,	-0.9565177	,	2
17,43	,	80869	,	-7950	,	-4909	,	0.66264856	,	3
17,43	,	80885	,	-7947	,	-4913	,	2.2303843	,	4
17,43	,	80917	,	-7943	,	-4902	,	3.6027744	,	5
17,43	,	80932	,	-7947	,	-4901	,	4.690274	,	6
17,43	,	80948	,	-7948	,	-4908	,	5.4085603	,	7
17,43	,	80980	,	-7944	,	-4911	,	5.681283	,	7
17,43	,	80997	,	-7943	,	-4904	,	5.5424137	,	7
17,43	,	81029	,	-7956	,	-4912	,	5.063008	,	6
17,43	,	81045	,	-7953	,	-4910	,	4.213222	,	5
17,43	,	81061	,	-7950	,	-4907	,	2.9972162	,	4
17,43	,	81093	,	-7954	,	-4912	,	1.5953395	,	3
17,43	,	81108	,	-7955	,	-4906	,	0.22191489	,	2
17,43	,	81124	,	-7955	,	-4911	,	-0.99452734	,	1
17,43	,	81156	,	-7956	,	-4907	,	-1.9759595	,	0
17,43	,	81173	,	-7966	,	-4912	,	-2.7245958	,	0
17,43	,	81205	,	-7968	,	-4906	,	-3.3835747	,	0
17,43	,	81221	,	-7961	,	-4903	,	-4.077443	,	0
17,43	,	81237	,	-7970	,	-4907	,	-4.7514715	,	0
17,43	,	81268	,	-7969	,	-4900	,	-5.314892	,	0
17,43	,	81285	,	-7969	,	-4902	,	-5.7376194	,	0
17,43	,	81300	,	-7979	,	-4902	,	-6.0154552	,	0
17,43	,	81332	,	-7975	,	-4903	,	-6.204485	,	0
17,43	,	81348	,	-7978	,	-4898	,	-6.354093	,	0
17,43	,	81381	,	-7978	,	-4901	,	-6.4366245	,	0
17,43	,	81397	,	-7976	,	-4888	,	-6.39528	,	0
17,43	,	81413	,	-7984	,	-4891	,	-6.199053	,	0
17,43	,	81444	,	-7978	,	-4897	,	-5.8779893	,	0
17,43	,	81461	,	-7979	,	-4891	,	-5.4569554	,	0
17,43	,	81476	,	-7993	,	-4895	,	-4.977511	,	0
17,43	,	81508	,	-7992	,	-4891	,	-4.625663	,	0
17,43	,	81524	,	-7992	,	-4898	,	-4.5836954	,	0
17,43	,	81540	,	-7984	,	-4892	,	-4.7875266	,	0
17,43	,	81573	,	-7977	,	-4898	,	-4.930709	,	0
17,43	,	81589	,	-7983	,	-4899	,	-4.68952	,	0
17,43	,	81620	,	-7975	,	-4894	,	-3.9520893	,	0
17,43	,	81636	,	-7970	,	-4895	,	-2.7593741	,	0
17,43	,	81652	,	-7963	,	-4904	,	-1.1389198	,	1
17,43	,	81684	,	-7958	,	-4900	,	0.8867179	,	2
17,43	,	81700	,	-7955	,	-4905	,	3.2284875	,	4
17,43	,	81716	,	-7956	,	-4902	,	5.679632	,	6
17,44	,	81749	,	-7955	,	-4902	,	7.925574	,	8
17,44	,	81765	,	-7958	,	-4902	,	9.636928	,	10
17,44	,	81796	,	-7952	,	-4900	,	10.595444	,	11
17,44	,	81812	,	-7951	,	-4905	,	10.798054	,	11
17,44	,	81828	,	-7947	,	-4903	,	10.428936	,	11
17,44	,	81860	,	-7950	,	-4907	,	9.705693	,	10
17,44	,	81876	,	-7946	,	-4903	,	8.773926	,	9
17,44	,	81892	,	-7945	,	-4901	,	7.741503	,	7
17,44	,	81925	,	-7951	,	-4905	,	6.696808	,	5
17,44	,	81940	,	-7948	,	-4905	,	5.65184	,	3
17,44	,	81972	,	-7939	,	-4907	,	4.6331787	,	1
17,44	,	81988	,	-7943	,	-4904	,	3.7773373	,	0
17,44	,	82004	,	-7937	,	-4904	,	3.2089279	,	0
17,44	,	82036	,	-7949	,	-4903	,	2.9130108	,	0
17,44	,	82052	,	-7938	,	-4912	,	2.7543316	,	0
17,44	,	82068	,	-7939	,	-4910	,	2.63665	,	0
17,44	,	82100	,	-7946	,	-4912	,	2.5398808	,	0
17,44	,	82116	,	-7937	,	-4913	,	2.4123268	,	0
17,44	,	82132	,	-7939	,	-4909	,	2.2399726	,	0
17,44	,	82164	,	-7940	,	-4905	,	2.0734775	,	0
17,44	,	82180	,	-7934	,	-4910	,	1.9423364	,	0
17,44	,	82212	,	-7946	,	-4912	,	1.8393742	,	0
17,44	,	82228	,	-7942	,	-4912	,	1.6791654	,	0
17,44	,	82244	,	-7947	,	-4911	,	1.347609	,	0
17,44	,	82276	,	-7945	,	-4913	,	0.81534797	,	0
17,44	,	82292	,	-7948	,	-4917	,	0.1299271	,	0
17,44	,	82308	,	-7949	,	-4915	,	-0.6376429	,	0
17,44	,	82340	,	-7950	,	-4922	,	-1.4195367	,	0
17,44	,	82356	,	-7955	,	-4918	,	-2.1661985	,	0
17,44	,	82388	,	-7958	,	-4921	,	-2.8800974	,	0
17,44	,	82404	,	-7964	,	-4922	,	-3.6222649	,	0
17,44	,	82420	,	-7965	,	-4915	,	-4.4547853	,	0
17,44	,	82452	,	-7965	,	-4918	,	-5.363516	,	0
17,44	,	82468	,	-7960	,	-4913	,	-6.2076674	,	0
17,44	,	82484	,	-7953	,	-4916	,	-6.7289686	,	0
17,44	,	82516	,	-7950	,	-4913	,	-6.6397395	,	0
17,44	,	82532	,	-7952	,	-4911	,	-5.7994666	,	0
17,44	,	82564	,	-7956	,	-4920	,	-4.352417	,	0
17,44	,	82580	,	-7934	,	-4914	,	-2.5487802	,	1
17,44	,	82596	,	-7938	,	-4910	,	-0.4579153	,	2
17,44	,	82628	,	-7935	,	-4910	,	1.8945854	,	4
17,44	,	82644	,	-7933	,	-4912	,	4.3036947	,	6
17,44	,	82660	,	-7931	,	-4917	,	6.4997516	,	8
17,44	,	82692	,	-7933	,	-4916	,	8.258816	,	10
17,44	,	82708	,	-7931	,	-4917	,	9.402117	,	11
17,44	,	82724	,	-7929	,	-4917	,	9.856253	,	12
17,45	,	82756	,	-7928	,	-4915	,	9.693579	,	12
17,45	,	82772	,	-7931	,	-4911	,	9.050909	,	11
17,45	,	82804	,	-7927	,	-4916	,	8.055733	,	10
17,45	,	82820	,	-7924	,	-4917	,	6.869091	,	8
17,45	,	82836	,	-7923	,	-4912	,	5.6982937	,	6
17,45	,	82868	,	-7939	,	-4908	,	4.633958	,	4
17,45	,	82884	,	-7932	,	-4918	,	3.5542808	,	2
17,45	,	82900	,	-7934	,	-4919	,	2.3506136	,	1
17,45	,	82932	,	-7936	,	-4913	,	1.0824594	,	0
17,45	,	82948	,	-7942	,	-4906	,	-0.1718061	,	0
17,45	,	82980	,	-7935	,	-4916	,	-1.3730202	,	0
17,45	,	82996	,	-7947	,	-4910	,	-2.4671564	,	0
17,45	,	83012	,	-7946	,	-4917	,	-3.4495323	,	0
17,45	,	83044	,	-7948	,	-4915	,	-4.3576636	,	0
17,45	,	83060	,	-7951	,	-4912	,	-5.1740894	,	0
17,45	,	83076	,	-7951	,	-4905	,	-5.847333	,	0
17,45	,	83108	,	-7959	,	-4913	,	-6.363207	,	0
17,45	,	83124	,	-7952	,	-4917	,	-6.7378216	,	0
17,45	,	83140	,	-7966	,	-4911	,	-6.9855413	,	0
17,45	,	83172	,	-7965	,	-4912	,	-7.174246	,	0
17,45	,	83188	,	-7965	,	-4914	,	-7.3911877	,	0
17,45	,	83220	,	-7964	,	-4919	,	-7.597495	,	0
17,45	,	83236	,	-7969	,	-4911	,	-7.67844	,	0
17,45	,	83252	,	-7975	,	-4920	,	-7.618911	,	0
17,45	,	83284	,	-7974	,	-4919	,	-7.5154057	,	0
17,45	,	83300	,	-7977	,	-4917	,	-7.4346733	,	0
17,45	,	83316	,	-7968	,	-4908	,	-7.320936	,	0
17,45	,	83348	,	-7966	,	-4908	,	-7.000841	,	0
17,45	,	83364	,	-7956	,	-4912	,	-6.246858	,	0
17,45	,	83396	,	-7964	,	-4907	,	-4.925872	,	0
17,45	,	83412	,	-7953	,	-4914	,	-3.1180165	,	1
17,45	,	83428	,	-7955	,	-4897	,	-1.0266511	,	2
17,45	,	83459	,	-7946	,	-4903	,	1.1699307	,	4
17,45	,	83476	,	-7949	,	-4895	,	3.3288038	,	6
17,45	,	83492	,	-7942	,	-4896	,	5.307794	,	8
17,45	,	83524	,	-7932	,	-4893	,	7.0361347	,	9
17,45	,	83540	,	-7941	,	-4887	,	8.526175	,	10
17,45	,	83556	,	-7939	,	-4888	,	9.684416	,	11
17,45	,	83587	,	-7940	,	-4880	,	10.306652	,	12
17,45	,	83603	,	-7951	,	-4877	,	10.231094	,	11
17,45	,	83636	,	-7938	,	-4883	,	9.401493	,	10
17,45	,	83652	,	-7939	,	-4882	,	7.99211	,	8
17,45	,	83668	,	-7937	,	-4881	,	6.366184	,	6
17,45	,	83699	,	-7935	,	-4878	,	4.8428288	,	4
17,45	,	83715	,	-7936	,	-4884	,	3.610688	,	3
17,45	,	83732	,	-7945	,	-4879	,	2.6854486	,	2
17,46	,	83764	,	-7939	,	-4882	,	1.9211123	,	1
17,46	,	83780	,	-7948	,	-4878	,	1.1679579	,	0
17,46	,	83812	,	-7942	,	-4881	,	0.36337602	,	0
17,46	,	83828	,	-7949	,	-4886	,	-0.47731185	,	0
17,46	,	83844	,	-7946	,	-4889	,	-1.2942784	,	0
17,46	,	83875	,	-7957	,	-4888	,	-2.0614362	,	0
17,46	,	83892	,	-7950	,	-4888	,	-2.8081918	,	0
17,46	,	83907	,	-7947	,	-4891	,	-3.4900165	,	0
17,46	,	83939	,	-7956	,	-4897	,	-3.977148	,	0
17,46	,	83956	,	-7964	,	-4898	,	-4.287192	,	0
17,46	,	83972	,	-7958	,	-4899	,	-4.591122	,	0
17,46	,	84004	,	-7950	,	-4904	,	-4.9013586	,	0
17,46	,	84020	,	-7956	,	-4904	,	-5.015792	,	0
17,46	,	84051	,	-7960	,	-4901	,	-4.8228083	,	0
17,46	,	84067	,	-7954	,	-4897	,	-4.4038687	,	0
17,46	,	84083	,	-7959	,	-4908	,	-3.8541596	,	0
17,46	,	84115	,	-7967	,	-4901	,	-3.2821102	,	0
17,46	,	84132	,	-7966	,	-4901	,	-2.883062	,	0
17,46	,	84148	,	-7975	,	-4909	,	-2.832982	,	0
17,46	,	84180	,	-7961	,	-4909	,	-3.1481948	,	0
17,46	,	84196	,	-7970	,	-4912	,	-3.639541	,	0
17,46	,	84227	,	-7963	,	-4903	,	-4.0536265	,	0
17,46	,	84243	,	-7964	,	-4902	,	-4.221774	,	0
17,46	,	84259	,	-7952	,	-4909	,	-4.007521	,	0
17,46	,	84291	,	-7948	,	-4896	,	-3.2474117	,	0
17,46	,	84307	,	-7939	,	-4897	,	-1.8108472	,	0
17,46	,	84324	,	-7933	,	-4902	,	0.32544482	,	1
17,46	,	84356	,	-7924	,	-4898	,	3.0700927	,	3
17,46	,	84371	,	-7918	,	-4901	,	6.2475843	,	5
17,46	,	84387	,	-7917	,	-4892	,	9.595883	,	8
17,46	,	84419	,	-7912	,	-4892	,	12.767663	,	11
17,46	,	84435	,	-7913	,	-4896	,	15.406451	,	14
17,46	,	84467	,	-7919	,	-4897	,	17.188084	,	16
17,46	,	84483	,	-7915	,	-4897	,	17.84741	,	17
17,46	,	84499	,	-7917	,	-4898	,	17.308445	,	17
17,46	,	84531	,	-7911	,	-4898	,	15.75282	,	16
17,46	,	84547	,	-7907	,	-4895	,	13.560509	,	14
17,46	,	84563	,	-7910	,	-4896	,	11.169191	,	12
17,46	,	84595	,	-7917	,	-4900	,	8.858066	,	9
17,46	,	84611	,	-7919	,	-4898	,	6.6644506	,	6
17,46	,	84643	,	-7917	,	-4901	,	4.548806	,	3
17,46	,	84659	,	-7921	,	-4904	,	2.5490599	,	1
17,46	,	84675	,	-7929	,	-4898	,	0.704479	,	0
17,46	,	84708	,	-7931	,	-4903	,	-1.0434144	,	0
17,46	,	84723	,	-7930	,	-4904	,	-2.7445087	,	0
17,46	,	84739	,	-7927	,	-4905	,	-4.299258	,	0
17,47	,	84771	,	-7930	,	-4907	,	-5.5044365	,	0
17,47	,	84787	,	-7928	,	-4908	,	-6.2055693	,	0
17,47	,	84803	,	-7940	,	-4900	,	-6.413801	,	0
17,47	,	84835	,	-7937	,	-4900	,	-6.319959	,	0
17,47	,	84851	,	-7942	,	-4908	,	-6.147706	,	0
17,47	,	84883	,	-7939	,	-4905	,	-6.008359	,	0
17,47	,	84899	,	-7944	,	-4906	,	-5.9104147	,	0
17,47	,	84915	,	-7950	,	-4907	,	-5.8639135	,	0
17,47	,	84947	,	-7952	,	-4913	,	-5.9420533	,	0
17,47	,	84963	,	-7955	,	-4909	,	-6.201483	,	0
17,47	,	84979	,	-7957	,	-4914	,	-6.6120043	,	0
17,47	,	85011	,	-7951	,	-4918	,	-7.054349	,	0
17,47	,	85027	,	-7959	,	-4914	,	-7.3598194	,	0
17,47	,	85059	,	-7967	,	-4913	,	-7.481673	,	0
17,47	,	85075	,	-7966	,	-4915	,	-7.5499754	,	0
17,47	,	85091	,	-7973	,	-4909	,	-7.695093	,	0
17,47	,	85123	,	-7961	,	-4909	,	-7.9107184	,	0
17,47	,	85139	,	-7967	,	-4915	,	-8.030001	,	0
17,47	,	85155	,	-7959	,	-4912	,	-7.8302307	,	0
17,47	,	85187	,	-7958	,	-4909	,	-7.162098	,	0
17,47	,	85203	,	-7954	,	-4905	,	-5.974969	,	0
17,47	,	85219	,	-7942	,	-4909	,	-4.2687645	,	1
17,47	,	85251	,	-7954	,	-4913	,	-2.1023216	,	2
17,47	,	85267	,	-7948	,	-4902	,	0.26984644	,	4
17,47	,	85299	,	-7944	,	-4901	,	2.4921365	,	6
17,47	,	85315	,	-7941	,	-4900	,	4.37338	,	8
17,47	,	85331	,	-7936	,	-4901	,	5.8953223	,	9
17,47	,	85363	,	-7939	,	-4893	,	7.0800266	,	10
17,47	,	85379	,	-7945	,	-4901	,	7.8675766	,	11
17,47	,	85395	,	-7939	,	-4897	,	8.128853	,	11
17,47	,	85427	,	-7935	,	-4898	,	7.864296	,	10
17,47	,	85443	,	-7944	,	-4895	,	7.2165213	,	9
17,47	,	85475	,	-7950	,	-4900	,	6.241186	,	7
17,47	,	85491	,	-7943	,	-4901	,	4.908244	,	5
17,47	,	85507	,	-7949	,	-4900	,	3.3039174	,	3
17,47	,	85539	,	-7947	,	-4904	,	1.6213517	,	2
17,47	,	85555	,	-7956	,	-4900	,	0.00993371	,	1
17,47	,	85571	,	-7955	,	-4899	,	-1.4882658	,	0
17,47	,	85603	,	-7950	,	-4898	,	-2.840515	,	0
17,47	,	85619	,	-7955	,	-4896	,	-3.9258	,	0
17,47	,	85635	,	-7958	,	-4901	,	-4.6561174	,	0
17,47	,	85667	,	-7957	,	-4900	,	-5.0690675	,	0
17,47	,	85683	,	-7963	,	-4897	,	-5.252657	,	0
17,47	,	85715	,	-7960	,	-4894	,	-5.291853	,	0
17,47	,	85731	,	-7970	,	-4897	,	-5.265476	,	0
17,48	,	85747	,	-7968	,	-4891	,	-5.2661576	,	0
17,48	,	85779	,	-7968	,	-4889	,	-5.3511734	,	0
17,48	,	85795	,	-7974	,	-4881	,	-5.496019	,	0
17,48	,	85811	,	-7973	,	-4883	,	-5.672632	,	0
17,48	,	85843	,	-7984	,	-4880	,	-5.9033365	,	0
17,48	,	85859	,	-7982	,	-4883	,	-6.246772	,	0
17,48	,	85891	,	-7981	,	-4881	,	-6.701534	,	0
17,48	,	85907	,	-7983	,	-4885	,	-7.134623	,	0
17,48	,	85923	,	-7991	,	-4885	,	-7.4283037	,	0
17,48	,	85955	,	-7985	,	-4886	,	-7.5791035	,	0
17,48	,	85971	,	-7984	,	-4892	,	-7.557711	,	0
17,48	,	85987	,	-7993	,	-4881	,	-7.2969427	,	0
17,48	,	86019	,	-7989	,	-4894	,	-6.8416805	,	0
17,48	,	86035	,	-7987	,	-4889	,	-6.2746906	,	0
17,48	,	86066	,	-7989	,	-4893	,	-5.5957117	,	0
17,48	,	86083	,	-7979	,	-4887	,	-4.759503	,	0
17,48	,	86099	,	-7971	,	-4888	,	-3.6521866	,	0
17,48	,	86131	,	-7974	,	-4895	,	-2.1400661	,	1
17,48	,	86147	,	-7973	,	-4893	,	-0.281137	,	2
17,48	,	86163	,	-7968	,	-4888	,	1.6836069	,	3
17,48	,	86195	,	-7970	,	-4892	,	3.52808	,	4
17,48	,	86211	,	-7972	,	-4896	,	5.064489	,	5
17,48	,	86227	,	-7967	,	-4895	,	6.126019	,	6
17,48	,	86259	,	-7957	,	-4893	,	6.7132864	,	7
17,48	,	86275	,	-7958	,	-4888	,	7.032426	,	7
17,48	,	86307	,	-7962	,	-4898	,	7.24946	,	7
17,48	,	86323	,	-7953	,	-4895	,	7.3622894	,	6
17,48	,	86339	,	-7953	,	-4885	,	7.3698215	,	5
17,48	,	86371	,	-7952	,	-4894	,	7.3281317	,	4
17,48	,	86387	,	-7948	,	-4893	,	7.264736	,	3
17,48	,	86403	,	-7950	,	-4898	,	7.174739	,	2
17,48	,	86434	,	-7952	,	-4895	,	7.0019603	,	1
17,48	,	86450	,	-7941	,	-4900	,	6.6895742	,	0
17,48	,	86483	,	-7939	,	-4895	,	6.333597	,	0
17,48	,	86499	,	-7946	,	-4900	,	6.0809765	,	0
17,48	,	86515	,	-7939	,	-4906	,	5.920602	,	0
17,48	,	86547	,	-7938	,	-4905	,	5.779442	,	0
17,48	,	86562	,	-7950	,	-4902	,	5.591097	,	0
17,48	,	86579	,	-7944	,	-4904	,	5.207133	,	0
17,48	,	86611	,	-7941	,	-4903	,	4.5411787	,	0
17,48	,	86627	,	-7949	,	-4907	,	3.6759079	,	0
17,48	,	86643	,	-7948	,	-4905	,	2.695334	,	0
17,48	,	86674	,	-7944	,	-4906	,	1.65414	,	0
17,48	,	86690	,	-7947	,	-4913	,	0.6662233	,	0
17,48	,	86722	,	-7955	,	-4905	,	-0.19683743	,	0
17,48	,	86738	,	-7956	,	-4913	,	-1.0102247	,	0
17,49	,	86755	,	-7965	,	-4916	,	-1.916189	,	0
17,49	,	86787	,	-7965	,	-4916	,	-3.016137	,	0
17,49	,	86803	,	-7972	,	-4917	,	-4.319003	,	0
17,49	,	86819	,	-7974	,	-4917	,	-5.752597	,	0
17,49	,	86850	,	-7977	,	-4918	,	-7.2096777	,	0
17,49	,	86866	,	-7980	,	-4917	,	-8.566221	,	0
17,49	,	86898	,	-7986	,	-4915	,	-9.721217	,	0
17,49	,	86914	,	-7983	,	-4919	,	-10.614792	,	0
17,49	,	86931	,	-7983	,	-4917	,	-11.160457	,	0
17,49	,	86963	,	-7983	,	-4916	,	-11.24057	,	0
17,49	,	86979	,	-7968	,	-4916	,	-10.732388	,	0
17,49	,	86994	,	-7974	,	-4915	,	-9.51335	,	0
17,49	,	87026	,	-7973	,	-4912	,	-7.619382	,	1
17,49	,	87042	,	-7960	,	-4910	,	-5.260001	,	2
17,49	,	87058	,	-7963	,	-4913	,	-2.607348	,	4
17,49	,	87091	,	-7957	,	-4910	,	0.18551588	,	6
17,49	,	87106	,	-7953	,	-4914	,	2.9159164	,	8
17,49	,	87138	,	-7961	,	-4912	,	5.362442	,	10
17,49	,	87154	,	-7959	,	-4913	,	7.2510915	,	12
17,49	,	87170	,	-7958	,	-4914	,	8.353609	,	13
17,49	,	87202	,	-7953	,	-4914	,	8.65787	,	14
17,49	,	87218	,	-7957	,	-4911	,	8.328481	,	13
17,49	,	87234	,	-7958	,	-4917	,	7.5406256	,	12
17,49	,	87267	,	-7967	,	-4913	,	6.379098	,	10
17,49	,	87282	,	-7964	,	-4906	,	4.8663807	,	8
17,49	,	87314	,	-7968	,	-4915	,	3.0764697	,	6
17,49	,	87330	,	-7977	,	-4908	,	1.1280849	,	4
17,49	,	87346	,	-7965	,	-4913	,	-0.8627813	,	2
17,49	,	87378	,	-7972	,	-4913	,	-2.6921017	,	1
17,49	,	87394	,	-7978	,	-4907	,	-4.162327	,	0
17,49	,	87410	,	-7975	,	-4908	,	-5.246284	,	0
17,49	,	87442	,	-7971	,	-4913	,	-5.9454627	,	0
17,49	,	87459	,	-7976	,	-4906	,	-6.2035294	,	0
17,49	,	87474	,	-7972	,	-4914	,	-6.025285	,	0
17,49	,	87506	,	-7980	,	-4911	,	-5.517574	,	0
17,49	,	87522	,	-7981	,	-4914	,	-4.871195	,	0
17,49	,	87554	,	-7989	,	-4912	,	-4.3299494	,	0
17,49	,	87570	,	-7984	,	-4913	,	-4.0763326	,	0
17,49	,	87586	,	-7984	,	-4916	,	-4.1011133	,	0
17,49	,	87618	,	-7991	,	-4909	,	-4.263459	,	0
17,49	,	87634	,	-7985	,	-4911	,	-4.4563603	,	0
17,49	,	87650	,	-7989	,	-4914	,	-4.6026673	,	0
17,49	,	87682	,	-7993	,	-4919	,	-4.6502886	,	0
17,49	,	87698	,	-7999	,	-4914	,	-4.6574025	,	0
17,49	,	87730	,	-8004	,	-4910	,	-4.7728834	,	0
17,49	,	87746	,	-8005	,	-4918	,	-5.1235332	,	0
17,50	,	87762	,	-7997	,	-4917	,	-5.6699314	,	0
17,50	,	87794	,	-8002	,	-4914	,	-6.1852794	,	0
17,50	,	87810	,	-7997	,	-4913	,	-6.4346795	,	0
17,50	,	87826	,	-7995	,	-4911	,	-6.279476	,	0
17,50	,	87858	,	-7991	,	-4905	,	-5.6430435	,	0
17,50	,	87874	,	-7988	,	-4902	,	-4.5096	,	0
17,50	,	87890	,	-7981	,	-4897	,	-2.9183877	,	1
17,50	,	87922	,	-7982	,	-4895	,	-0.9545398	,	2
17,50	,	87938	,	-7980	,	-4890	,	1.2051003	,	3
17,50	,	87970	,	-7975	,	-4882	,	3.3272686	,	5
17,50	,	87986	,	-7986	,	-4886	,	5.1853375	,	7
17,50	,	88002	,	-7966	,	-4879	,	6.603161	,	8
17,50	,	88034	,	-7966	,	-4880	,	7.6142054	,	9
17,50	,	88050	,	-7973	,	-4881	,	8.368324	,	10
17,50	,	88066	,	-7970	,	-4878	,	8.834934	,	10
17,50	,	88098	,	-7967	,	-4879	,	8.900192	,	9
17,50	,	88114	,	-7974	,	-4877	,	8.551429	,	8
17,50	,	88146	,	-7968	,	-4881	,	7.8231716	,	7
17,50	,	88162	,	-7971	,	-4879	,	6.789447	,	5
17,50	,	88178	,	-7969	,	-4878	,	5.5790496	,	3
17,50	,	88210	,	-7970	,	-4891	,	4.3207264	,	2
17,50	,	88226	,	-7977	,	-4888	,	3.0880215	,	1
17,50	,	88242	,	-7978	,	-4893	,	1.8671021	,	0
17,50	,	88274	,	-7975	,	-4893	,	0.6386616	,	0
17,50	,	88290	,	-7973	,	-4895	,	-0.50600517	,	0
17,50	,	88306	,	-7980	,	-4899	,	-1.4387436	,	0
17,50	,	88338	,	-7977	,	-4905	,	-2.1305842	,	0
17,50	,	88354	,	-7979	,	-4899	,	-2.6088803	,	0
17,50	,	88386	,	-7974	,	-4895	,	-2.8639464	,	0
17,50	,	88402	,	-7984	,	-4902	,	-2.8980813	,	0
17,50	,	88418	,	-7982	,	-4900	,	-2.8079758	,	0
17,50	,	88450	,	-7989	,	-4910	,	-2.745822	,	0
17,50	,	88466	,	-7986	,	-4908	,	-2.823217	,	0
17,50	,	88482	,	-7981	,	-4904	,	-3.021134	,	0
17,50	,	88514	,	-7988	,	-4907	,	-3.2065232	,	0
17,50	,	88530	,	-7995	,	-4910	,	-3.33609	,	0
17,50	,	88562	,	-7989	,	-4910	,	-3.4990957	,	0
17,50	,	88578	,	-7997	,	-4911	,	-3.7399209	,	0
17,50	,	88594	,	-7989	,	-4908	,	-4.017875	,	0
17,50	,	88626	,	-7977	,	-4903	,	-4.16725	,	0
17,50	,	88642	,	-7982	,	-4913	,	-3.8949382	,	0
17,50	,	88658	,	-7980	,	-4905	,	-3.0591123	,	0
17,50	,	88689	,	-7982	,	-4912	,	-1.8121619	,	0
17,50	,	88705	,	-7975	,	-4911	,	-0.39941978	,	1
17,50	,	88738	,	-7967	,	-4907	,	1.0618644	,	2
17,51	,	88754	,	-7963	,	-4909	,	2.6097064	,	3
17,51	,	88770	,	-7953	,	-4917	,	4.321393	,	4
17,51	,	88802	,	-7958	,	-4907	,	6.195549	,	5
17,51	,	88818	,	-7955	,	-4908	,	8.064335	,	6
17,51	,	88834	,	-7951	,	-4910	,	9.669704	,	7
17,51	,	88866	,	-7950	,	-4905	,	10.843478	,	8
17,51	,	88882	,	-7946	,	-4906	,	11.535367	,	9
17,51	,	88898	,	-7948	,	-4898	,	11.748867	,	8
17,51	,	88930	,	-7950	,	-4902	,	11.482506	,	7
17,51	,	88946	,	-7943	,	-4904	,	10.751387	,	6
17,51	,	88978	,	-7946	,	-4904	,	9.669016	,	5
17,51	,	88994	,	-7957	,	-4905	,	8.340075	,	4
17,51	,	89010	,	-7946	,	-4909	,	6.7709146	,	3
17,51	,	89041	,	-7942	,	-4901	,	5.086427	,	2
17,51	,	89057	,	-7949	,	-4900	,	3.5674918	,	1
17,51	,	89073	,	-7945	,	-4903	,	2.3788319	,	0
17,51	,	89106	,	-7946	,	-4908	,	1.5165408	,	0
17,51	,	89122	,	-7958	,	-4913	,	0.8758445	,	0
17,51	,	89154	,	-7956	,	-4907	,	0.24939239	,	0
17,51	,	89169	,	-7955	,	-4909	,	-0.51017934	,	0
17,51	,	89185	,	-7956	,	-4908	,	-1.3574293	,	0
17,51	,	89217	,	-7957	,	-4904	,	-2.165682	,	0
17,51	,	89233	,	-7966	,	-4910	,	-2.8807292	,	0
17,51	,	89249	,	-7959	,	-4911	,	-3.5284085	,	0
17,51	,	89282	,	-7959	,	-4917	,	-4.065448	,	0
17,51	,	89298	,	-7961	,	-4906	,	-4.3618126	,	0
17,51	,	89314	,	-7966	,	-4910	,	-4.383715	,	0
17,51	,	89345	,	-7962	,	-4913	,	-4.2209587	,	0
17,51	,	89361	,	-7969	,	-4914	,	-3.969658	,	0
17,51	,	89393	,	-7962	,	-4905	,	-3.6954286	,	0
17,51	,	89409	,	-7975	,	-4914	,	-3.4580517	,	0
17,51	,	89425	,	-7979	,	-4918	,	-3.3835018	,	0
17,51	,	89458	,	-7982	,	-4916	,	-3.6469646	,	0
17,51	,	89474	,	-7973	,	-4917	,	-4.2643576	,	0
17,51	,	89490	,	-7982	,	-4917	,	-5.0274954	,	0
17,51	,	89521	,	-7987	,	-4917	,	-5.7455225	,	0
17,51	,	89538	,	-7987	,	-4921	,	-6.385706	,	0
17,51	,	89569	,	-7981	,	-4917	,	-6.912916	,	0
17,51	,	89586	,	-7988	,	-4914	,	-7.2064266	,	0
17,51	,	89602	,	-7978	,	-4910	,	-7.1591597	,	0
17,51	,	89633	,	-7975	,	-4909	,	-6.6742754	,	0
