Data recorded on Tue Jul 25 13-38-14 CAT 2017
Time: 13:38:41
Time		Millis		IR PPG		Red PPG		Filtered		SSF
38,50	,	89996	,	-22371	,	-24842	,	11.819395	,	26
38,50	,	90027	,	-22364	,	-24849	,	16.91082	,	32
38,50	,	90043	,	-22367	,	-24846	,	19.991833	,	37
38,50	,	90059	,	-22379	,	-24851	,	21.002277	,	40
38,50	,	90091	,	-22376	,	-24856	,	20.039303	,	41
38,50	,	90107	,	-22379	,	-24854	,	17.402107	,	39
38,50	,	90123	,	-22376	,	-24860	,	13.642012	,	35
38,50	,	90155	,	-22373	,	-24862	,	9.438933	,	29
38,50	,	90171	,	-22376	,	-24865	,	5.426921	,	22
38,50	,	90203	,	-22373	,	-24842	,	2.0450253	,	15
38,50	,	90219	,	-22376	,	-24850	,	-0.49097967	,	9
38,50	,	90235	,	-22381	,	-24854	,	-2.1745086	,	4
38,50	,	90267	,	-22389	,	-24859	,	-3.2209191	,	1
38,50	,	90283	,	-22396	,	-24861	,	-3.9922087	,	0
38,50	,	90299	,	-22402	,	-24856	,	-4.8356686	,	0
38,50	,	90331	,	-22409	,	-24860	,	-5.964479	,	0
38,50	,	90347	,	-22411	,	-24876	,	-7.4270573	,	0
38,50	,	90379	,	-22412	,	-24863	,	-9.101653	,	0
38,50	,	90395	,	-22428	,	-24866	,	-10.8013115	,	0
38,50	,	90411	,	-22432	,	-24886	,	-12.4644785	,	0
38,50	,	90443	,	-22431	,	-24888	,	-14.081602	,	0
38,50	,	90459	,	-22436	,	-24893	,	-15.504953	,	0
38,50	,	90475	,	-22450	,	-24898	,	-16.589188	,	0
38,50	,	90507	,	-22447	,	-24903	,	-17.357042	,	0
38,50	,	90523	,	-22458	,	-24905	,	-17.871101	,	0
38,50	,	90539	,	-22466	,	-24919	,	-18.18727	,	0
38,50	,	90571	,	-22449	,	-24905	,	-18.320873	,	0
38,50	,	90587	,	-22451	,	-24898	,	-18.049816	,	0
38,50	,	90619	,	-22427	,	-24887	,	-16.947403	,	0
38,50	,	90635	,	-22423	,	-24888	,	-14.594916	,	1
38,50	,	90651	,	-22414	,	-24881	,	-10.805829	,	3
38,50	,	90683	,	-22394	,	-24871	,	-5.718055	,	6
38,50	,	90699	,	-22397	,	-24865	,	0.32366467	,	11
38,50	,	90715	,	-22394	,	-24866	,	6.7372985	,	17
38,50	,	90747	,	-22386	,	-24858	,	12.7589445	,	23
38,50	,	90763	,	-22393	,	-24860	,	17.72398	,	29
38,50	,	90795	,	-22388	,	-24857	,	21.160795	,	33
38,50	,	90811	,	-22396	,	-24861	,	22.802418	,	36
38,50	,	90827	,	-22403	,	-24866	,	22.584038	,	36
38,50	,	90859	,	-22401	,	-24869	,	20.609272	,	34
38,50	,	90875	,	-22398	,	-24855	,	17.241688	,	31
38,50	,	90891	,	-22393	,	-24862	,	13.121	,	26
38,50	,	90923	,	-22397	,	-24863	,	8.948684	,	20
38,50	,	90939	,	-22391	,	-24858	,	5.259492	,	14
38,50	,	90955	,	-22395	,	-24858	,	2.3569784	,	8
38,50	,	90987	,	-22408	,	-24870	,	0.27023315	,	4
38,51	,	91003	,	-22400	,	-24873	,	-1.2211251	,	1
38,51	,	91035	,	-22413	,	-24871	,	-2.366818	,	0
38,51	,	91051	,	-22405	,	-24878	,	-3.3168423	,	0
38,51	,	91067	,	-22414	,	-24881	,	-4.1310005	,	0
38,51	,	91099	,	-22420	,	-24883	,	-4.859943	,	0
38,51	,	91115	,	-22426	,	-24889	,	-5.638645	,	0
38,51	,	91130	,	-22441	,	-24883	,	-6.654459	,	0
38,51	,	91163	,	-22434	,	-24891	,	-8.027793	,	0
38,51	,	91179	,	-22454	,	-24888	,	-9.718122	,	0
38,51	,	91211	,	-22456	,	-24893	,	-11.632914	,	0
38,51	,	91227	,	-22465	,	-24908	,	-13.710526	,	0
38,51	,	91243	,	-22467	,	-24905	,	-15.814201	,	0
38,51	,	91275	,	-22472	,	-24912	,	-17.723557	,	0
38,51	,	91291	,	-22480	,	-24904	,	-19.245546	,	0
38,51	,	91307	,	-22493	,	-24909	,	-20.339937	,	0
38,51	,	91339	,	-22488	,	-24917	,	-21.089657	,	0
38,51	,	91355	,	-22486	,	-24920	,	-21.457357	,	0
38,51	,	91370	,	-22475	,	-24910	,	-21.170414	,	0
38,51	,	91403	,	-22454	,	-24901	,	-19.80473	,	0
38,51	,	91419	,	-22426	,	-24886	,	-16.830284	,	1
38,51	,	91451	,	-22426	,	-24873	,	-11.839398	,	3
38,51	,	91467	,	-22423	,	-24874	,	-5.0316734	,	7
38,51	,	91483	,	-22422	,	-24875	,	2.6945295	,	13
38,51	,	91515	,	-22412	,	-24872	,	10.230301	,	20
38,51	,	91531	,	-22401	,	-24874	,	16.766094	,	27
38,51	,	91546	,	-22406	,	-24869	,	21.887335	,	33
38,51	,	91578	,	-22413	,	-24869	,	25.297873	,	38
38,51	,	91594	,	-22412	,	-24873	,	26.69939	,	41
38,51	,	91627	,	-22425	,	-24870	,	25.969353	,	41
38,51	,	91643	,	-22435	,	-24880	,	23.199423	,	39
38,51	,	91659	,	-22427	,	-24877	,	18.696074	,	35
38,51	,	91691	,	-22430	,	-24878	,	13.104911	,	29
38,51	,	91707	,	-22422	,	-24871	,	7.303665	,	22
38,51	,	91723	,	-22415	,	-24881	,	2.1529827	,	15
38,51	,	91755	,	-22419	,	-24873	,	-1.6943011	,	9
38,51	,	91771	,	-22422	,	-24874	,	-4.0066395	,	4
38,51	,	91786	,	-22419	,	-24880	,	-4.9641275	,	1
38,51	,	91818	,	-22432	,	-24877	,	-4.9548626	,	0
38,51	,	91835	,	-22430	,	-24898	,	-4.4685526	,	0
38,51	,	91866	,	-22434	,	-24878	,	-3.94857	,	0
38,51	,	91882	,	-22445	,	-24890	,	-3.6862733	,	0
38,51	,	91898	,	-22454	,	-24899	,	-3.9198384	,	0
38,51	,	91930	,	-22456	,	-24907	,	-4.8245735	,	0
38,51	,	91946	,	-22474	,	-24909	,	-6.428049	,	0
38,51	,	91962	,	-22483	,	-24898	,	-8.704232	,	0
38,52	,	91994	,	-22489	,	-24914	,	-11.585515	,	0
38,52	,	92010	,	-22487	,	-24915	,	-14.793208	,	0
38,52	,	92042	,	-22500	,	-24925	,	-17.868591	,	0
38,52	,	92058	,	-22511	,	-24920	,	-20.480022	,	0
38,52	,	92074	,	-22504	,	-24938	,	-22.50336	,	0
38,52	,	92106	,	-22516	,	-24929	,	-23.814762	,	0
38,52	,	92122	,	-22521	,	-24931	,	-24.334686	,	0
38,52	,	92138	,	-22531	,	-24939	,	-24.191252	,	0
38,52	,	92170	,	-22528	,	-24941	,	-23.602741	,	0
38,52	,	92186	,	-22520	,	-24919	,	-22.625748	,	0
38,52	,	92218	,	-22500	,	-24917	,	-21.007303	,	0
38,52	,	92234	,	-22492	,	-24906	,	-18.300331	,	1
38,52	,	92250	,	-22466	,	-24903	,	-14.131084	,	3
38,52	,	92282	,	-22466	,	-24901	,	-8.398273	,	7
38,52	,	92298	,	-22454	,	-24897	,	-1.4203625	,	12
38,52	,	92314	,	-22457	,	-24913	,	6.0783834	,	18
38,52	,	92347	,	-22472	,	-24890	,	13.097682	,	25
38,52	,	92362	,	-22452	,	-24885	,	18.632063	,	32
38,52	,	92378	,	-22454	,	-24891	,	22.167145	,	37
38,52	,	92410	,	-22467	,	-24890	,	23.686783	,	40
38,52	,	92426	,	-22469	,	-24897	,	23.24165	,	40
38,52	,	92458	,	-22462	,	-24899	,	20.997639	,	38
38,52	,	92474	,	-22471	,	-24898	,	17.436272	,	34
38,52	,	92490	,	-22471	,	-24886	,	13.151063	,	29
38,52	,	92522	,	-22477	,	-24893	,	8.627533	,	23
38,52	,	92538	,	-22464	,	-24889	,	4.293792	,	16
38,52	,	92554	,	-22457	,	-24908	,	0.6574049	,	9
38,52	,	92586	,	-22460	,	-24868	,	-1.7982159	,	4
38,52	,	92602	,	-22466	,	-24884	,	-2.9420485	,	1
38,52	,	92634	,	-22469	,	-24893	,	-3.0771542	,	0
38,52	,	92650	,	-22470	,	-24897	,	-2.6795945	,	0
38,52	,	92666	,	-22488	,	-24904	,	-2.2272034	,	0
38,52	,	92698	,	-22480	,	-24907	,	-2.1515217	,	0
38,52	,	92714	,	-22490	,	-24920	,	-2.656633	,	0
38,52	,	92730	,	-22494	,	-24921	,	-3.695756	,	0
38,52	,	92762	,	-22494	,	-24915	,	-5.134467	,	0
38,52	,	92778	,	-22504	,	-24921	,	-6.7979393	,	0
38,52	,	92794	,	-22509	,	-24944	,	-8.538687	,	0
38,52	,	92826	,	-22510	,	-24913	,	-10.254969	,	0
38,52	,	92842	,	-22530	,	-24932	,	-11.877228	,	0
38,52	,	92874	,	-22533	,	-24945	,	-13.470987	,	0
38,52	,	92890	,	-22538	,	-24944	,	-15.140007	,	0
38,52	,	92906	,	-22540	,	-24941	,	-16.808594	,	0
38,52	,	92938	,	-22538	,	-24945	,	-18.220272	,	0
38,52	,	92954	,	-22537	,	-24945	,	-19.047184	,	0
38,52	,	92970	,	-22545	,	-24938	,	-19.062042	,	0
38,53	,	93002	,	-22529	,	-24931	,	-18.222279	,	0
38,53	,	93018	,	-22517	,	-24914	,	-16.45507	,	0
38,53	,	93050	,	-22504	,	-24928	,	-13.541093	,	1
38,53	,	93066	,	-22481	,	-24897	,	-9.274418	,	3
38,53	,	93082	,	-22475	,	-24893	,	-3.6164017	,	7
38,53	,	93114	,	-22469	,	-24906	,	3.1332278	,	12
38,53	,	93130	,	-22473	,	-24883	,	10.247513	,	18
38,53	,	93146	,	-22467	,	-24899	,	16.778065	,	25
38,53	,	93178	,	-22467	,	-24893	,	21.908684	,	31
38,53	,	93194	,	-22460	,	-24896	,	25.194942	,	36
38,53	,	93210	,	-22478	,	-24916	,	26.506796	,	39
38,53	,	93242	,	-22491	,	-24905	,	25.755081	,	39
38,53	,	93258	,	-22481	,	-24901	,	22.92726	,	37
38,53	,	93290	,	-22484	,	-24914	,	18.445831	,	33
38,53	,	93306	,	-22486	,	-24888	,	13.105229	,	28
38,53	,	93322	,	-22481	,	-24888	,	7.6931534	,	22
38,53	,	93354	,	-22486	,	-24889	,	2.8349218	,	15
38,53	,	93370	,	-22480	,	-24895	,	-1.0487185	,	9
38,53	,	93386	,	-22487	,	-24902	,	-3.7649739	,	4
38,53	,	93418	,	-22486	,	-24904	,	-5.3451047	,	1
38,53	,	93434	,	-22491	,	-24904	,	-6.005534	,	0
38,53	,	93466	,	-22489	,	-24903	,	-6.0312476	,	0
38,53	,	93482	,	-22493	,	-24908	,	-5.6739016	,	0
38,53	,	93498	,	-22510	,	-24912	,	-5.215654	,	0
38,53	,	93530	,	-22504	,	-24929	,	-5.0143347	,	0
38,53	,	93545	,	-22518	,	-24915	,	-5.3137684	,	0
38,53	,	93562	,	-22521	,	-24926	,	-6.1746225	,	0
38,53	,	93594	,	-22523	,	-24926	,	-7.5385275	,	0
38,53	,	93610	,	-22531	,	-24943	,	-9.212371	,	0
38,53	,	93626	,	-22536	,	-24934	,	-10.97186	,	0
38,53	,	93657	,	-22533	,	-24933	,	-12.629265	,	0
38,53	,	93674	,	-22548	,	-24938	,	-14.014484	,	0
38,53	,	93705	,	-22549	,	-24943	,	-15.077473	,	0
38,53	,	93721	,	-22556	,	-24954	,	-15.883763	,	0
38,53	,	93737	,	-22547	,	-24946	,	-16.422363	,	0
38,53	,	93770	,	-22545	,	-24953	,	-16.491596	,	0
38,53	,	93786	,	-22514	,	-24903	,	-15.687164	,	0
38,53	,	93802	,	-22488	,	-24893	,	-13.382239	,	0
38,53	,	93833	,	-22474	,	-24891	,	-8.954756	,	2
38,53	,	93849	,	-22462	,	-24886	,	-2.2866297	,	6
38,53	,	93881	,	-22466	,	-24886	,	5.986885	,	12
38,53	,	93897	,	-22461	,	-24877	,	14.664215	,	20
38,53	,	93914	,	-22457	,	-24891	,	22.451056	,	28
38,53	,	93945	,	-22454	,	-24883	,	28.40495	,	35
38,53	,	93962	,	-22446	,	-24880	,	32.088493	,	40
38,53	,	93978	,	-22455	,	-24878	,	33.474792	,	43
38,54	,	94010	,	-22463	,	-24906	,	32.683334	,	44
38,54	,	94025	,	-22464	,	-24870	,	29.863785	,	42
38,54	,	94057	,	-22467	,	-24876	,	25.35334	,	38
38,54	,	94073	,	-22454	,	-24873	,	19.790901	,	32
38,54	,	94089	,	-22456	,	-24877	,	14.029011	,	24
38,54	,	94121	,	-22451	,	-24872	,	8.860106	,	16
38,54	,	94138	,	-22453	,	-24889	,	4.7737503	,	9
38,54	,	94154	,	-22453	,	-24874	,	1.9211102	,	4
38,54	,	94185	,	-22457	,	-24882	,	0.18276262	,	1
38,54	,	94201	,	-22462	,	-24882	,	-0.74185634	,	0
38,54	,	94217	,	-22461	,	-24882	,	-1.2097992	,	0
38,54	,	94250	,	-22453	,	-24896	,	-1.4478847	,	0
38,54	,	94265	,	-22465	,	-24871	,	-1.5190053	,	0
38,54	,	94297	,	-22476	,	-24886	,	-1.575498	,	0
38,54	,	94313	,	-22481	,	-24885	,	-1.9510914	,	0
38,54	,	94329	,	-22481	,	-24891	,	-2.883096	,	0
38,54	,	94361	,	-22495	,	-24899	,	-4.366663	,	0
38,54	,	94377	,	-22501	,	-24896	,	-6.324754	,	0
38,54	,	94393	,	-22501	,	-24904	,	-8.651577	,	0
38,54	,	94425	,	-22511	,	-24903	,	-11.119424	,	0
38,54	,	94441	,	-22511	,	-24905	,	-13.454569	,	0
38,54	,	94473	,	-22514	,	-24909	,	-15.416102	,	0
38,54	,	94489	,	-22513	,	-24931	,	-16.783892	,	0
38,54	,	94505	,	-22534	,	-24904	,	-17.481667	,	0
38,54	,	94537	,	-22533	,	-24929	,	-17.705828	,	0
38,54	,	94553	,	-22514	,	-24918	,	-17.61948	,	0
38,54	,	94569	,	-22496	,	-24891	,	-16.910238	,	0
38,54	,	94601	,	-22475	,	-24892	,	-14.902908	,	0
38,54	,	94617	,	-22453	,	-24871	,	-10.999291	,	2
38,54	,	94633	,	-22437	,	-24864	,	-4.9654	,	5
38,54	,	94665	,	-22427	,	-24853	,	2.9242759	,	11
38,54	,	94681	,	-22431	,	-24854	,	11.835272	,	18
38,54	,	94713	,	-22419	,	-24848	,	20.56835	,	26
38,54	,	94729	,	-22421	,	-24860	,	27.99461	,	34
38,54	,	94745	,	-22416	,	-24841	,	33.337875	,	41
38,54	,	94777	,	-22417	,	-24840	,	36.21147	,	46
38,54	,	94793	,	-22417	,	-24841	,	36.59326	,	48
38,54	,	94809	,	-22423	,	-24843	,	34.72119	,	46
38,54	,	94841	,	-22411	,	-24843	,	31.036377	,	43
38,54	,	94857	,	-22417	,	-24829	,	26.192572	,	37
38,54	,	94889	,	-22411	,	-24837	,	20.903048	,	30
38,54	,	94905	,	-22410	,	-24843	,	15.7739525	,	22
38,54	,	94921	,	-22398	,	-24843	,	11.317141	,	14
38,54	,	94953	,	-22400	,	-24826	,	7.939624	,	7
38,54	,	94969	,	-22408	,	-24853	,	5.755963	,	2
38,54	,	94985	,	-22401	,	-24830	,	4.5261536	,	0
38,55	,	95017	,	-22408	,	-24843	,	3.8977506	,	0
38,55	,	95033	,	-22410	,	-24826	,	3.55411	,	0
38,55	,	95049	,	-22418	,	-24848	,	3.179991	,	0
38,55	,	95081	,	-22410	,	-24850	,	2.5426753	,	0
38,55	,	95097	,	-22417	,	-24846	,	1.6141268	,	0
38,55	,	95129	,	-22432	,	-24840	,	0.43018174	,	0
38,55	,	95145	,	-22435	,	-24857	,	-1.1106656	,	0
38,55	,	95161	,	-22438	,	-24855	,	-3.0952842	,	0
38,55	,	95193	,	-22447	,	-24846	,	-5.423872	,	0
38,55	,	95209	,	-22446	,	-24873	,	-7.894122	,	0
38,55	,	95225	,	-22458	,	-24861	,	-10.292098	,	0
38,55	,	95257	,	-22460	,	-24870	,	-12.458612	,	0
38,55	,	95273	,	-22474	,	-24879	,	-14.345299	,	0
38,55	,	95305	,	-22477	,	-24875	,	-15.994139	,	0
38,55	,	95321	,	-22486	,	-24886	,	-17.457396	,	0
38,55	,	95337	,	-22495	,	-24883	,	-18.761581	,	0
38,55	,	95369	,	-22494	,	-24882	,	-19.902517	,	0
38,55	,	95385	,	-22475	,	-24870	,	-20.668211	,	0
38,55	,	95401	,	-22448	,	-24854	,	-20.429909	,	0
38,55	,	95433	,	-22431	,	-24843	,	-18.31994	,	0
38,55	,	95449	,	-22410	,	-24829	,	-13.738227	,	2
38,55	,	95481	,	-22394	,	-24829	,	-6.6648664	,	6
38,55	,	95497	,	-22370	,	-24825	,	2.4257784	,	13
38,55	,	95513	,	-22368	,	-24815	,	12.726304	,	22
38,55	,	95545	,	-22369	,	-24817	,	23.091461	,	32
38,55	,	95561	,	-22368	,	-24810	,	32.15521	,	42
38,55	,	95577	,	-22365	,	-24810	,	38.762115	,	51
38,55	,	95609	,	-22381	,	-24816	,	42.23746	,	57
38,55	,	95625	,	-22376	,	-24824	,	42.33991	,	60
38,55	,	95641	,	-22380	,	-24812	,	39.29795	,	58
38,55	,	95673	,	-22366	,	-24819	,	33.881504	,	54
38,55	,	95689	,	-22373	,	-24812	,	27.199034	,	47
38,55	,	95721	,	-22372	,	-24809	,	20.280203	,	38
38,55	,	95737	,	-22359	,	-24814	,	13.89451	,	28
38,55	,	95753	,	-22354	,	-24808	,	8.686795	,	18
38,55	,	95784	,	-22362	,	-24810	,	5.07296	,	9
38,55	,	95800	,	-22362	,	-24811	,	2.9790778	,	3
38,55	,	95817	,	-22359	,	-24818	,	1.9952025	,	0
38,55	,	95849	,	-22362	,	-24813	,	1.7137198	,	0
38,55	,	95865	,	-22375	,	-24818	,	1.7463692	,	0
38,55	,	95897	,	-22370	,	-24825	,	1.6679811	,	0
38,55	,	95913	,	-22381	,	-24829	,	1.1828363	,	0
38,55	,	95929	,	-22384	,	-24820	,	0.18658245	,	0
38,55	,	95960	,	-22390	,	-24836	,	-1.3204892	,	0
38,55	,	95976	,	-22391	,	-24839	,	-3.232024	,	0
38,55	,	95992	,	-22404	,	-24838	,	-5.3815928	,	0
38,56	,	96025	,	-22414	,	-24849	,	-7.6907797	,	0
38,56	,	96042	,	-22430	,	-24855	,	-10.22105	,	0
38,56	,	96057	,	-22414	,	-24852	,	-12.959998	,	0
38,56	,	96089	,	-22422	,	-24852	,	-15.560229	,	0
38,56	,	96104	,	-22434	,	-24864	,	-17.580847	,	0
38,56	,	96136	,	-22451	,	-24861	,	-18.966442	,	0
38,56	,	96153	,	-22446	,	-24869	,	-19.971844	,	0
38,56	,	96169	,	-22457	,	-24854	,	-20.756693	,	0
38,56	,	96201	,	-22457	,	-24873	,	-21.305672	,	0
38,56	,	96217	,	-22437	,	-24849	,	-21.436546	,	0
38,56	,	96233	,	-22409	,	-24833	,	-20.59505	,	0
38,56	,	96264	,	-22391	,	-24821	,	-17.94662	,	0
38,56	,	96280	,	-22374	,	-24821	,	-12.915582	,	2
38,56	,	96312	,	-22367	,	-24809	,	-5.590069	,	7
38,56	,	96328	,	-22354	,	-24804	,	3.306611	,	14
38,56	,	96344	,	-22344	,	-24813	,	12.743135	,	22
38,56	,	96377	,	-22340	,	-24802	,	21.694366	,	31
38,56	,	96393	,	-22351	,	-24814	,	29.193333	,	39
38,56	,	96409	,	-22338	,	-24807	,	34.40194	,	46
38,56	,	96440	,	-22354	,	-24807	,	36.860302	,	51
38,56	,	96456	,	-22369	,	-24813	,	36.42993	,	53
38,56	,	96488	,	-22366	,	-24807	,	33.15448	,	51
38,56	,	96504	,	-22358	,	-24808	,	27.53864	,	46
38,56	,	96520	,	-22345	,	-24798	,	20.696894	,	39
38,56	,	96553	,	-22360	,	-24814	,	13.898657	,	31
38,56	,	96569	,	-22351	,	-24805	,	7.9942875	,	22
38,56	,	96585	,	-22349	,	-24809	,	3.3741999	,	14
38,56	,	96616	,	-22344	,	-24806	,	0.22686148	,	7
38,56	,	96632	,	-22355	,	-24824	,	-1.4672582	,	2
38,56	,	96648	,	-22365	,	-24799	,	-2.0866995	,	0
38,56	,	96680	,	-22376	,	-24818	,	-2.3078506	,	0
38,56	,	96696	,	-22368	,	-24816	,	-2.7348325	,	0
38,56	,	96728	,	-22378	,	-24829	,	-3.5787392	,	0
38,56	,	96744	,	-22374	,	-24838	,	-4.7406273	,	0
38,56	,	96762	,	-22383	,	-24828	,	-6.03911	,	0
38,56	,	96792	,	-22396	,	-24830	,	-7.3825865	,	0
38,56	,	96808	,	-22400	,	-24826	,	-8.845	,	0
38,56	,	96824	,	-22394	,	-24837	,	-10.445775	,	0
38,56	,	96856	,	-22408	,	-24833	,	-11.994545	,	0
38,56	,	96873	,	-22415	,	-24854	,	-13.343078	,	0
38,56	,	96904	,	-22415	,	-24822	,	-14.506296	,	0
38,56	,	96920	,	-22432	,	-24847	,	-15.528882	,	0
38,56	,	96936	,	-22433	,	-24846	,	-16.48474	,	0
38,56	,	96968	,	-22432	,	-24852	,	-17.393282	,	0
38,56	,	96984	,	-22424	,	-24839	,	-18.032703	,	0
38,57	,	97000	,	-22403	,	-24845	,	-17.926723	,	0
38,57	,	97032	,	-22379	,	-24820	,	-16.413052	,	0
38,57	,	97048	,	-22362	,	-24810	,	-12.858227	,	1
38,57	,	97064	,	-22357	,	-24803	,	-7.077197	,	4
38,57	,	97096	,	-22345	,	-24797	,	0.44415617	,	9
38,57	,	97112	,	-22341	,	-24814	,	8.7691765	,	16
38,57	,	97144	,	-22342	,	-24787	,	16.825857	,	24
38,57	,	97160	,	-22343	,	-24798	,	23.582478	,	32
38,57	,	97176	,	-22345	,	-24806	,	28.232702	,	38
38,57	,	97208	,	-22363	,	-24803	,	30.286184	,	42
38,57	,	97224	,	-22358	,	-24811	,	29.555298	,	44
38,57	,	97240	,	-22363	,	-24818	,	26.285992	,	43
38,57	,	97272	,	-22366	,	-24812	,	21.160107	,	40
38,57	,	97288	,	-22357	,	-24808	,	15.065085	,	35
38,57	,	97320	,	-22361	,	-24809	,	8.932163	,	28
38,57	,	97336	,	-22345	,	-24811	,	3.604621	,	20
38,57	,	97352	,	-22346	,	-24817	,	-0.27921534	,	12
38,57	,	97384	,	-22359	,	-24799	,	-2.4811864	,	6
38,57	,	97400	,	-22359	,	-24807	,	-3.3135595	,	2
38,57	,	97416	,	-22360	,	-24818	,	-3.3476408	,	0
38,57	,	97448	,	-22379	,	-24811	,	-3.1185298	,	0
38,57	,	97464	,	-22372	,	-24817	,	-3.1040475	,	0
38,57	,	97480	,	-22380	,	-24824	,	-3.571032	,	0
38,57	,	97512	,	-22391	,	-24831	,	-4.540737	,	0
38,57	,	97528	,	-22384	,	-24826	,	-5.942478	,	0
38,57	,	97560	,	-22384	,	-24828	,	-7.5406322	,	0
38,57	,	97576	,	-22394	,	-24834	,	-8.986235	,	0
38,57	,	97592	,	-22401	,	-24850	,	-10.126221	,	0
38,57	,	97624	,	-22413	,	-24830	,	-11.0819645	,	0
38,57	,	97640	,	-22428	,	-24846	,	-12.126987	,	0
38,57	,	97656	,	-22429	,	-24844	,	-13.52408	,	0
38,57	,	97688	,	-22434	,	-24848	,	-15.303776	,	0
38,57	,	97704	,	-22432	,	-24848	,	-17.196	,	0
38,57	,	97736	,	-22417	,	-24849	,	-18.699991	,	0
38,57	,	97752	,	-22405	,	-24831	,	-19.150352	,	0
38,57	,	97768	,	-22381	,	-24818	,	-17.873428	,	0
38,57	,	97800	,	-22361	,	-24815	,	-14.369228	,	1
38,57	,	97816	,	-22334	,	-24799	,	-8.422521	,	4
38,57	,	97832	,	-22327	,	-24813	,	-0.23132706	,	9
38,57	,	97864	,	-22322	,	-24780	,	9.438796	,	17
38,57	,	97880	,	-22320	,	-24787	,	19.32857	,	26
38,57	,	97896	,	-22314	,	-24787	,	28.098782	,	35
38,57	,	97928	,	-22323	,	-24798	,	34.69436	,	43
38,57	,	97944	,	-22320	,	-24792	,	38.44274	,	49
38,57	,	97976	,	-22315	,	-24797	,	39.156494	,	52
38,57	,	97992	,	-22323	,	-24798	,	37.161766	,	51
38,58	,	98008	,	-22321	,	-24799	,	33.056053	,	48
38,58	,	98040	,	-22321	,	-24788	,	27.531681	,	43
38,58	,	98056	,	-22320	,	-24786	,	21.344738	,	35
38,58	,	98072	,	-22306	,	-24804	,	15.275801	,	26
38,58	,	98104	,	-22317	,	-24768	,	10.023164	,	17
38,58	,	98120	,	-22317	,	-24784	,	5.942545	,	9
38,58	,	98152	,	-22306	,	-24787	,	3.0402927	,	3
38,58	,	98168	,	-22320	,	-24786	,	1.2115245	,	0
38,58	,	98184	,	-22327	,	-24797	,	0.17337489	,	0
38,58	,	98216	,	-22323	,	-24796	,	-0.52834165	,	0
38,58	,	98232	,	-22334	,	-24803	,	-1.2316803	,	0
38,58	,	98248	,	-22347	,	-24801	,	-2.1637328	,	0
38,58	,	98280	,	-22348	,	-24803	,	-3.549214	,	0
38,58	,	98296	,	-22344	,	-24806	,	-5.401902	,	0
38,58	,	98327	,	-22363	,	-24816	,	-7.4839563	,	0
38,58	,	98343	,	-22364	,	-24804	,	-9.620346	,	0
38,58	,	98359	,	-22377	,	-24828	,	-11.78583	,	0
38,58	,	98391	,	-22375	,	-24807	,	-13.928956	,	0
38,58	,	98408	,	-22393	,	-24816	,	-15.943723	,	0
38,58	,	98424	,	-22391	,	-24828	,	-17.765057	,	0
38,58	,	98456	,	-22391	,	-24833	,	-19.294228	,	0
38,58	,	98472	,	-22369	,	-24813	,	-20.188442	,	0
38,58	,	98487	,	-22359	,	-24812	,	-19.852205	,	0
38,58	,	98519	,	-22334	,	-24800	,	-17.677853	,	0
38,58	,	98535	,	-22304	,	-24777	,	-13.221272	,	2
38,58	,	98567	,	-22306	,	-24793	,	-6.3835917	,	6
38,58	,	98583	,	-22298	,	-24770	,	2.255086	,	12
38,58	,	98600	,	-22277	,	-24766	,	11.594887	,	20
38,58	,	98632	,	-22273	,	-24766	,	20.614685	,	29
38,58	,	98648	,	-22278	,	-24767	,	28.474298	,	38
38,58	,	98663	,	-22275	,	-24766	,	34.35727	,	45
38,58	,	98695	,	-22276	,	-24758	,	37.66539	,	50
38,58	,	98711	,	-22278	,	-24767	,	38.2273	,	53
38,58	,	98743	,	-22282	,	-24769	,	36.240562	,	51
38,58	,	98759	,	-22283	,	-24768	,	32.15586	,	47
38,58	,	98776	,	-22271	,	-24761	,	26.665318	,	41
38,58	,	98807	,	-22277	,	-24774	,	20.640333	,	33
38,58	,	98823	,	-22273	,	-24751	,	14.857235	,	24
38,58	,	98839	,	-22276	,	-24763	,	9.80355	,	15
38,58	,	98871	,	-22282	,	-24767	,	5.6818867	,	8
38,58	,	98887	,	-22269	,	-24766	,	2.5192022	,	3
38,58	,	98903	,	-22279	,	-24765	,	0.3225932	,	0
38,58	,	98935	,	-22290	,	-24766	,	-1.0386324	,	0
38,58	,	98951	,	-22290	,	-24774	,	-1.9526869	,	0
38,58	,	98983	,	-22301	,	-24777	,	-2.8290164	,	0
38,59	,	98999	,	-22299	,	-24786	,	-3.904462	,	0
38,59	,	99015	,	-22308	,	-24794	,	-5.2370887	,	0
38,59	,	99047	,	-22322	,	-24792	,	-6.824404	,	0
38,59	,	99063	,	-22315	,	-24786	,	-8.667927	,	0
38,59	,	99079	,	-22329	,	-24791	,	-10.647947	,	0
38,59	,	99111	,	-22331	,	-24792	,	-12.575366	,	0
38,59	,	99127	,	-22353	,	-24807	,	-14.402765	,	0
38,59	,	99159	,	-22346	,	-24811	,	-16.199326	,	0
38,59	,	99175	,	-22359	,	-24809	,	-17.939627	,	0
38,59	,	99191	,	-22361	,	-24820	,	-19.479874	,	0
38,59	,	99223	,	-22363	,	-24814	,	-20.672344	,	0
38,59	,	99239	,	-22355	,	-24795	,	-21.312515	,	0
38,59	,	99255	,	-22321	,	-24789	,	-20.954308	,	0
38,59	,	99287	,	-22297	,	-24770	,	-18.833344	,	0
38,59	,	99303	,	-22291	,	-24770	,	-14.27951	,	2
38,59	,	99335	,	-22267	,	-24753	,	-7.2743397	,	6
38,59	,	99351	,	-22260	,	-24750	,	1.5736847	,	13
38,59	,	99367	,	-22260	,	-24754	,	11.267703	,	21
38,59	,	99399	,	-22255	,	-24763	,	20.558167	,	30
38,59	,	99415	,	-22253	,	-24749	,	28.27409	,	39
38,59	,	99431	,	-22239	,	-24753	,	33.70493	,	46
38,59	,	99463	,	-22257	,	-24763	,	36.61744	,	51
38,59	,	99479	,	-22254	,	-24763	,	36.96422	,	53
38,59	,	99495	,	-22258	,	-24758	,	34.843437	,	51
38,59	,	99527	,	-22263	,	-24754	,	30.648909	,	47
38,59	,	99543	,	-22259	,	-24748	,	25.00784	,	40
38,59	,	99575	,	-22251	,	-24747	,	18.712877	,	32
38,59	,	99591	,	-22253	,	-24746	,	12.62546	,	23
38,59	,	99607	,	-22254	,	-24754	,	7.40022	,	14
38,59	,	99639	,	-22258	,	-24742	,	3.3203163	,	7
38,59	,	99655	,	-22256	,	-24747	,	0.38590002	,	2
38,59	,	99671	,	-22260	,	-24773	,	-1.5409667	,	0
38,59	,	99703	,	-22263	,	-24760	,	-2.6810195	,	0
38,59	,	99719	,	-22277	,	-24771	,	-3.3603907	,	0
38,59	,	99751	,	-22282	,	-24776	,	-4.003607	,	0
38,59	,	99767	,	-22291	,	-24769	,	-4.9871473	,	0
38,59	,	99783	,	-22291	,	-24789	,	-6.460315	,	0
38,59	,	99815	,	-22310	,	-24780	,	-8.373119	,	0
38,59	,	99831	,	-22325	,	-24791	,	-10.712639	,	0
38,59	,	99847	,	-22327	,	-24786	,	-13.530527	,	0
38,59	,	99879	,	-22331	,	-24798	,	-16.66759	,	0
38,59	,	99895	,	-22336	,	-24801	,	-19.710653	,	0
38,59	,	99911	,	-22349	,	-24800	,	-22.281633	,	0
38,59	,	99944	,	-22351	,	-24807	,	-24.21434	,	0
38,59	,	99959	,	-22356	,	-24818	,	-25.458122	,	0
38,59	,	99991	,	-22364	,	-24836	,	-25.990139	,	0
39,0	,	100007	,	-22367	,	-24807	,	-25.86454	,	0
39,0	,	100023	,	-22353	,	-24814	,	-25.11486	,	0
39,0	,	100055	,	-22330	,	-24805	,	-23.48715	,	0
39,0	,	100071	,	-22303	,	-24796	,	-20.38586	,	1
39,0	,	100087	,	-22294	,	-24786	,	-15.242884	,	4
39,0	,	100119	,	-22278	,	-24777	,	-8.001921	,	9
39,0	,	100135	,	-22270	,	-24766	,	0.78217983	,	16
39,0	,	100166	,	-22274	,	-24782	,	10.132214	,	24
39,0	,	100183	,	-22266	,	-24762	,	18.871271	,	33
39,0	,	100199	,	-22272	,	-24768	,	25.93482	,	41
39,0	,	100231	,	-22273	,	-24779	,	30.580753	,	48
39,0	,	100247	,	-22269	,	-24760	,	32.477654	,	52
39,0	,	100263	,	-22277	,	-24763	,	31.754606	,	52
39,0	,	100294	,	-22279	,	-24779	,	28.842754	,	49
39,0	,	100311	,	-22282	,	-24790	,	24.291775	,	44
39,0	,	100327	,	-22279	,	-24777	,	18.750988	,	37
39,0	,	100359	,	-22276	,	-24769	,	12.9562845	,	29
39,0	,	100375	,	-22277	,	-24779	,	7.599139	,	20
39,0	,	100406	,	-22267	,	-24766	,	3.2000904	,	12
39,0	,	100422	,	-22264	,	-24777	,	0.121423244	,	5
39,0	,	100438	,	-22281	,	-24775	,	-1.5459473	,	1
39,0	,	100471	,	-22280	,	-24789	,	-2.1549013	,	0
39,0	,	100486	,	-22288	,	-24768	,	-2.2863789	,	0
39,0	,	100502	,	-22295	,	-24781	,	-2.4419796	,	0
39,0	,	100534	,	-22300	,	-24790	,	-2.9701426	,	0
39,0	,	100551	,	-22309	,	-24789	,	-4.0473356	,	0
39,0	,	100582	,	-22310	,	-24794	,	-5.6782303	,	0
39,0	,	100599	,	-22322	,	-24794	,	-7.7368627	,	0
39,0	,	100615	,	-22313	,	-24796	,	-9.984738	,	0
39,0	,	100646	,	-22334	,	-24800	,	-12.1291485	,	0
39,0	,	100663	,	-22331	,	-24809	,	-13.9986725	,	0
39,0	,	100678	,	-22339	,	-24812	,	-15.557829	,	0
39,0	,	100710	,	-22351	,	-24837	,	-16.80658	,	0
39,0	,	100727	,	-22352	,	-24804	,	-17.805288	,	0
39,0	,	100759	,	-22370	,	-24826	,	-18.661335	,	0
39,0	,	100775	,	-22372	,	-24829	,	-19.49918	,	0
39,0	,	100791	,	-22378	,	-24831	,	-20.386454	,	0
39,0	,	100822	,	-22360	,	-24824	,	-21.1402	,	0
39,0	,	100838	,	-22350	,	-24819	,	-21.235863	,	0
39,0	,	100854	,	-22334	,	-24807	,	-20.003645	,	0
39,0	,	100887	,	-22307	,	-24785	,	-16.894989	,	1
39,0	,	100902	,	-22305	,	-24791	,	-11.661262	,	4
39,0	,	100919	,	-22291	,	-24775	,	-4.5718527	,	9
39,0	,	100950	,	-22292	,	-24798	,	3.5767908	,	16
39,0	,	100966	,	-22284	,	-24772	,	11.748771	,	24
39,1	,	100998	,	-22288	,	-24788	,	18.948532	,	32
39,1	,	101014	,	-22299	,	-24779	,	24.329361	,	39
39,1	,	101030	,	-22300	,	-24785	,	27.251041	,	44
39,1	,	101062	,	-22318	,	-24784	,	27.401674	,	46
39,1	,	101079	,	-22310	,	-24800	,	24.871418	,	45
39,1	,	101094	,	-22314	,	-24794	,	20.214941	,	42
39,1	,	101127	,	-22314	,	-24784	,	14.346884	,	37
39,1	,	101142	,	-22303	,	-24800	,	8.261684	,	30
39,1	,	101174	,	-22307	,	-24786	,	2.8524075	,	22
39,1	,	101190	,	-22303	,	-24803	,	-1.2786741	,	14
39,1	,	101206	,	-22311	,	-24774	,	-3.9465656	,	7
39,1	,	101238	,	-22321	,	-24793	,	-5.3609214	,	2
39,1	,	101254	,	-22324	,	-24792	,	-6.0111637	,	0
39,1	,	101270	,	-22323	,	-24798	,	-6.3682737	,	0
39,1	,	101302	,	-22331	,	-24796	,	-6.678263	,	0
39,1	,	101318	,	-22333	,	-24808	,	-7.052952	,	0
39,1	,	101334	,	-22339	,	-24801	,	-7.5616074	,	0
39,1	,	101366	,	-22346	,	-24798	,	-8.2364	,	0
39,1	,	101382	,	-22346	,	-24810	,	-9.074713	,	0
39,1	,	101414	,	-22364	,	-24813	,	-10.066998	,	0
39,1	,	101430	,	-22368	,	-24837	,	-11.281531	,	0
39,1	,	101446	,	-22376	,	-24805	,	-12.802186	,	0
39,1	,	101478	,	-22390	,	-24842	,	-14.6179905	,	0
39,1	,	101494	,	-22393	,	-24836	,	-16.668018	,	0
39,1	,	101510	,	-22393	,	-24847	,	-18.789131	,	0
39,1	,	101542	,	-22409	,	-24848	,	-20.707224	,	0
39,1	,	101558	,	-22410	,	-24847	,	-22.238129	,	0
39,1	,	101590	,	-22411	,	-24849	,	-23.292492	,	0
39,1	,	101606	,	-22418	,	-24838	,	-23.76028	,	0
39,1	,	101622	,	-22398	,	-24841	,	-23.486187	,	0
39,1	,	101654	,	-22383	,	-24815	,	-22.140587	,	0
39,1	,	101670	,	-22346	,	-24825	,	-19.145033	,	1
39,1	,	101686	,	-22332	,	-24791	,	-13.904992	,	3
39,1	,	101718	,	-22324	,	-24793	,	-6.302122	,	8
39,1	,	101734	,	-22321	,	-24791	,	2.981204	,	15
39,1	,	101750	,	-22309	,	-24797	,	12.741047	,	24
39,1	,	101782	,	-22311	,	-24798	,	21.760757	,	33
39,1	,	101798	,	-22308	,	-24801	,	29.0415	,	42
39,1	,	101830	,	-22315	,	-24799	,	33.861115	,	49
39,1	,	101846	,	-22313	,	-24805	,	35.85056	,	53
39,1	,	101862	,	-22325	,	-24800	,	35.018223	,	53
39,1	,	101894	,	-22321	,	-24801	,	31.693438	,	51
39,1	,	101910	,	-22321	,	-24817	,	26.510612	,	46
39,1	,	101926	,	-22314	,	-24790	,	20.365107	,	39
39,1	,	101958	,	-22309	,	-24796	,	14.226521	,	30
39,1	,	101974	,	-22320	,	-24789	,	8.852042	,	21
39,2	,	102006	,	-22309	,	-24797	,	4.6013985	,	12
39,2	,	102022	,	-22317	,	-24795	,	1.5446591	,	5
39,2	,	102038	,	-22323	,	-24792	,	-0.44214725	,	1
39,2	,	102070	,	-22320	,	-24804	,	-1.6577799	,	0
39,2	,	102086	,	-22318	,	-24807	,	-2.368519	,	0
39,2	,	102102	,	-22319	,	-24803	,	-2.6869373	,	0
39,2	,	102134	,	-22330	,	-24811	,	-2.7245486	,	0
39,2	,	102150	,	-22336	,	-24811	,	-2.7448478	,	0
39,2	,	102181	,	-22340	,	-24809	,	-3.0689774	,	0
39,2	,	102198	,	-22351	,	-24815	,	-3.8952613	,	0
39,2	,	102214	,	-22352	,	-24822	,	-5.2708874	,	0
39,2	,	102246	,	-22360	,	-24818	,	-7.1048884	,	0
39,2	,	102262	,	-22368	,	-24827	,	-9.221773	,	0
39,2	,	102278	,	-22371	,	-24828	,	-11.450541	,	0
39,2	,	102310	,	-22381	,	-24834	,	-13.630356	,	0
39,2	,	102326	,	-22384	,	-24836	,	-15.621389	,	0
39,2	,	102341	,	-22381	,	-24843	,	-17.273216	,	0
39,2	,	102374	,	-22406	,	-24845	,	-18.471748	,	0
39,2	,	102390	,	-22399	,	-24854	,	-19.299097	,	0
39,2	,	102422	,	-22396	,	-24848	,	-19.823864	,	0
39,2	,	102438	,	-22386	,	-24833	,	-19.808062	,	0
39,2	,	102454	,	-22357	,	-24822	,	-18.750551	,	0
39,2	,	102486	,	-22351	,	-24815	,	-16.06765	,	1
39,2	,	102502	,	-22339	,	-24807	,	-11.470463	,	3
39,2	,	102518	,	-22330	,	-24805	,	-5.2232494	,	7
39,2	,	102550	,	-22313	,	-24795	,	2.0728064	,	13
39,2	,	102565	,	-22322	,	-24795	,	9.688419	,	20
39,2	,	102598	,	-22322	,	-24782	,	16.720387	,	27
39,2	,	102614	,	-22301	,	-24795	,	22.327095	,	34
39,2	,	102630	,	-22305	,	-24784	,	26.157093	,	39
39,2	,	102661	,	-22303	,	-24784	,	28.23442	,	42
39,2	,	102677	,	-22315	,	-24799	,	28.588024	,	43
39,2	,	102693	,	-22307	,	-24798	,	27.247246	,	41
39,2	,	102726	,	-22316	,	-24792	,	24.419598	,	37
39,2	,	102742	,	-22304	,	-24795	,	20.534641	,	31
39,2	,	102757	,	-22307	,	-24791	,	16.1747	,	24
39,2	,	102789	,	-22301	,	-24791	,	11.939844	,	17
39,2	,	102805	,	-22304	,	-24791	,	8.278273	,	10
39,2	,	102837	,	-22308	,	-24790	,	5.3782105	,	5
39,2	,	102853	,	-22310	,	-24797	,	3.1769824	,	2
39,2	,	102870	,	-22306	,	-24791	,	1.5218539	,	0
39,2	,	102902	,	-22309	,	-24798	,	0.3198874	,	0
39,2	,	102918	,	-22319	,	-24799	,	-0.5326246	,	0
39,2	,	102933	,	-22327	,	-24815	,	-1.2864246	,	0
39,2	,	102965	,	-22330	,	-24814	,	-2.253079	,	0
39,2	,	102981	,	-22326	,	-24814	,	-3.5511043	,	0
39,3	,	103013	,	-22349	,	-24814	,	-5.108764	,	0
39,3	,	103029	,	-22347	,	-24823	,	-6.9147863	,	0
39,3	,	103046	,	-22354	,	-24837	,	-8.974209	,	0
39,3	,	103078	,	-22358	,	-24828	,	-11.137569	,	0
39,3	,	103094	,	-22369	,	-24833	,	-13.224238	,	0
39,3	,	103109	,	-22375	,	-24828	,	-15.160452	,	0
39,3	,	103141	,	-22378	,	-24852	,	-16.9127	,	0
39,3	,	103158	,	-22388	,	-24838	,	-18.40836	,	0
39,3	,	103173	,	-22391	,	-24848	,	-19.583618	,	0
39,3	,	103205	,	-22413	,	-24858	,	-20.49357	,	0
39,3	,	103221	,	-22415	,	-24850	,	-21.33915	,	0
39,3	,	103254	,	-22419	,	-24867	,	-22.260418	,	0
39,3	,	103270	,	-22420	,	-24861	,	-23.13642	,	0
39,3	,	103285	,	-22406	,	-24846	,	-23.61278	,	0
39,3	,	103317	,	-22378	,	-24838	,	-23.085457	,	0
39,3	,	103333	,	-22370	,	-24831	,	-20.804985	,	0
39,3	,	103349	,	-22341	,	-24810	,	-16.263966	,	2
39,3	,	103381	,	-22333	,	-24810	,	-9.422694	,	6
39,3	,	103397	,	-22328	,	-24806	,	-0.7800503	,	12
39,3	,	103429	,	-22334	,	-24807	,	8.586815	,	20
39,3	,	103445	,	-22327	,	-24812	,	17.315025	,	29
39,3	,	103462	,	-22322	,	-24802	,	24.292059	,	37
39,3	,	103493	,	-22310	,	-24788	,	29.004158	,	43
39,3	,	103509	,	-22319	,	-24794	,	31.448807	,	47
39,3	,	103525	,	-22326	,	-24799	,	31.75433	,	49
39,3	,	103558	,	-22330	,	-24810	,	30.011583	,	47
39,3	,	103573	,	-22326	,	-24820	,	26.464436	,	43
39,3	,	103605	,	-22305	,	-24788	,	21.749428	,	37
39,3	,	103621	,	-22313	,	-24799	,	16.825375	,	29
39,3	,	103637	,	-22319	,	-24784	,	12.446972	,	20
39,3	,	103669	,	-22313	,	-24789	,	8.850698	,	12
39,3	,	103685	,	-22318	,	-24791	,	6.0184164	,	6
39,3	,	103701	,	-22324	,	-24790	,	3.8491883	,	2
39,3	,	103733	,	-22328	,	-24798	,	2.120594	,	0
39,3	,	103749	,	-22321	,	-24806	,	0.6242583	,	0
39,3	,	103765	,	-22333	,	-24802	,	-0.71339285	,	0
39,3	,	103797	,	-22333	,	-24797	,	-1.9426782	,	0
39,3	,	103813	,	-22338	,	-24814	,	-3.1455765	,	0
39,3	,	103845	,	-22340	,	-24804	,	-4.353223	,	0
39,3	,	103861	,	-22363	,	-24816	,	-5.6293516	,	0
39,3	,	103877	,	-22353	,	-24817	,	-7.1330767	,	0
39,3	,	103909	,	-22373	,	-24827	,	-8.931855	,	0
39,3	,	103925	,	-22372	,	-24833	,	-10.959956	,	0
39,3	,	103943	,	-22375	,	-24828	,	-13.077005	,	0
39,3	,	103973	,	-22375	,	-24837	,	-15.01159	,	0
39,4	,	103989	,	-22386	,	-24845	,	-16.486273	,	0
39,4	,	104021	,	-22394	,	-24850	,	-17.440868	,	0
39,4	,	104037	,	-22402	,	-24856	,	-18.033232	,	0
39,4	,	104053	,	-22393	,	-24862	,	-18.394053	,	0
39,4	,	104085	,	-22409	,	-24841	,	-18.479643	,	0
39,4	,	104101	,	-22429	,	-24867	,	-18.359291	,	0
39,4	,	104117	,	-22431	,	-24871	,	-18.392328	,	0
39,4	,	104149	,	-22425	,	-24872	,	-18.803936	,	0
39,4	,	104165	,	-22421	,	-24856	,	-19.329903	,	0
39,4	,	104181	,	-22406	,	-24850	,	-19.380909	,	0
39,4	,	104213	,	-22379	,	-24837	,	-18.253325	,	0
39,4	,	104229	,	-22364	,	-24823	,	-15.257569	,	1
39,4	,	104261	,	-22341	,	-24818	,	-9.995995	,	3
39,4	,	104277	,	-22339	,	-24812	,	-2.6233244	,	8
39,4	,	104293	,	-22337	,	-24826	,	6.074803	,	15
39,4	,	104325	,	-22329	,	-24806	,	14.894495	,	23
39,4	,	104341	,	-22337	,	-24814	,	22.632715	,	31
39,4	,	104357	,	-22336	,	-24806	,	28.331009	,	38
39,4	,	104389	,	-22334	,	-24817	,	31.42459	,	43
39,4	,	104405	,	-22332	,	-24815	,	31.876282	,	46
39,4	,	104437	,	-22344	,	-24812	,	30.026976	,	45
39,4	,	104453	,	-22338	,	-24812	,	26.349838	,	43
39,4	,	104469	,	-22340	,	-24809	,	21.435349	,	38
39,4	,	104501	,	-22324	,	-24805	,	16.055653	,	31
39,4	,	104517	,	-22319	,	-24806	,	11.094409	,	23
39,4	,	104533	,	-22321	,	-24833	,	7.2641544	,	15
39,4	,	104565	,	-22312	,	-24795	,	4.850617	,	8
39,4	,	104581	,	-22320	,	-24801	,	3.7616234	,	3
39,4	,	104597	,	-22331	,	-24805	,	3.5845087	,	0
39,4	,	104629	,	-22334	,	-24808	,	3.6588306	,	0
39,4	,	104645	,	-22321	,	-24821	,	3.479472	,	0
39,4	,	104677	,	-22343	,	-24818	,	2.913715	,	0
39,4	,	104693	,	-22351	,	-24820	,	1.8617353	,	0
39,4	,	104709	,	-22351	,	-24824	,	0.13337874	,	0
39,4	,	104741	,	-22354	,	-24826	,	-2.2307434	,	0
39,4	,	104757	,	-22355	,	-24819	,	-4.897611	,	0
39,4	,	104773	,	-22360	,	-24840	,	-7.478975	,	0
39,4	,	104805	,	-22363	,	-24814	,	-9.695932	,	0
39,4	,	104821	,	-22377	,	-24836	,	-11.451996	,	0
39,4	,	104852	,	-22381	,	-24844	,	-12.847003	,	0
39,4	,	104869	,	-22395	,	-24838	,	-14.087761	,	0
39,4	,	104885	,	-22394	,	-24842	,	-15.342363	,	0
39,4	,	104917	,	-22388	,	-24853	,	-16.557858	,	0
39,4	,	104933	,	-22400	,	-24858	,	-17.456402	,	0
39,4	,	104948	,	-22417	,	-24859	,	-17.916656	,	0
39,4	,	104981	,	-22411	,	-24856	,	-18.13309	,	0
39,5	,	104997	,	-22413	,	-24860	,	-18.237482	,	0
39,5	,	105013	,	-22403	,	-24873	,	-18.064667	,	0
39,5	,	105045	,	-22387	,	-24836	,	-17.235317	,	0
39,5	,	105061	,	-22350	,	-24823	,	-15.153217	,	0
39,5	,	105093	,	-22348	,	-24812	,	-11.162425	,	2
39,5	,	105109	,	-22339	,	-24813	,	-5.11246	,	5
39,5	,	105124	,	-22337	,	-24801	,	2.3668847	,	11
39,5	,	105156	,	-22325	,	-24808	,	10.252687	,	18
39,5	,	105173	,	-22327	,	-24810	,	17.57341	,	25
39,5	,	105189	,	-22328	,	-24804	,	23.525618	,	32
39,5	,	105221	,	-22327	,	-24802	,	27.500889	,	37
39,5	,	105236	,	-22336	,	-24800	,	29.170883	,	40
39,5	,	105268	,	-22334	,	-24823	,	28.509583	,	41
39,5	,	105284	,	-22339	,	-24804	,	25.787731	,	39
39,5	,	105300	,	-22329	,	-24814	,	21.573467	,	36
39,5	,	105333	,	-22317	,	-24812	,	16.705324	,	30
39,5	,	105349	,	-22322	,	-24806	,	12.097609	,	23
39,5	,	105365	,	-22316	,	-24806	,	8.373851	,	16
39,5	,	105396	,	-22334	,	-24801	,	5.6744657	,	9
39,5	,	105412	,	-22339	,	-24812	,	3.696794	,	4
39,5	,	105444	,	-22324	,	-24814	,	2.0351992	,	1
39,5	,	105460	,	-22339	,	-24806	,	0.5619049	,	0
39,5	,	105477	,	-22333	,	-24816	,	-0.6986729	,	0
39,5	,	105508	,	-22344	,	-24839	,	-1.7872298	,	0
39,5	,	105525	,	-22347	,	-24809	,	-2.8035564	,	0
39,5	,	105540	,	-22359	,	-24822	,	-3.9069803	,	0
39,5	,	105572	,	-22361	,	-24831	,	-5.2576885	,	0
39,5	,	105588	,	-22371	,	-24836	,	-6.9208097	,	0
39,5	,	105604	,	-22378	,	-24828	,	-8.87435	,	0
39,5	,	105637	,	-22376	,	-24831	,	-11.00964	,	0
39,5	,	105653	,	-22379	,	-24840	,	-13.071497	,	0
39,5	,	105684	,	-22382	,	-24833	,	-14.741801	,	0
39,5	,	105700	,	-22394	,	-24843	,	-15.854864	,	0
39,5	,	105716	,	-22398	,	-24847	,	-16.49121	,	0
39,5	,	105748	,	-22413	,	-24860	,	-16.888775	,	0
39,5	,	105765	,	-22405	,	-24820	,	-17.253403	,	0
39,5	,	105780	,	-22418	,	-24854	,	-17.607069	,	0
39,5	,	105812	,	-22408	,	-24840	,	-17.8149	,	0
39,5	,	105828	,	-22402	,	-24831	,	-17.626415	,	0
39,5	,	105860	,	-22373	,	-24818	,	-16.597095	,	0
39,5	,	105876	,	-22349	,	-24804	,	-14.074406	,	1
39,5	,	105892	,	-22341	,	-24797	,	-9.502831	,	3
39,5	,	105925	,	-22336	,	-24791	,	-2.9356546	,	7
39,5	,	105940	,	-22326	,	-24806	,	4.883912	,	13
39,5	,	105956	,	-22319	,	-24799	,	12.955997	,	20
39,5	,	105988	,	-22314	,	-24805	,	20.37872	,	28
39,6	,	106004	,	-22311	,	-24782	,	26.445375	,	35
39,6	,	106020	,	-22311	,	-24800	,	30.66215	,	41
39,6	,	106052	,	-22321	,	-24791	,	32.71289	,	45
39,6	,	106068	,	-22313	,	-24796	,	32.47604	,	46
39,6	,	106100	,	-22317	,	-24796	,	30.162899	,	44
39,6	,	106116	,	-22305	,	-24789	,	26.339169	,	40
39,6	,	106132	,	-22311	,	-24792	,	21.749176	,	34
39,6	,	106164	,	-22314	,	-24793	,	17.034592	,	27
39,6	,	106180	,	-22315	,	-24787	,	12.564411	,	19
39,6	,	106196	,	-22311	,	-24794	,	8.546464	,	12
39,6	,	106228	,	-22314	,	-24795	,	5.153865	,	6
39,6	,	106244	,	-22309	,	-24783	,	2.5126162	,	2
39,6	,	106276	,	-22326	,	-24797	,	0.6080985	,	0
39,6	,	106292	,	-22318	,	-24805	,	-0.7648215	,	0
39,6	,	106308	,	-22331	,	-24807	,	-1.8605309	,	0
39,6	,	106340	,	-22339	,	-24796	,	-2.9167752	,	0
39,6	,	106356	,	-22331	,	-24808	,	-4.120665	,	0
39,6	,	106372	,	-22346	,	-24811	,	-5.4740705	,	0
39,6	,	106404	,	-22337	,	-24824	,	-6.856195	,	0
39,6	,	106420	,	-22342	,	-24800	,	-8.095274	,	0
39,6	,	106436	,	-22360	,	-24817	,	-9.0762615	,	0
39,6	,	106468	,	-22342	,	-24821	,	-9.8533125	,	0
39,6	,	106484	,	-22367	,	-24817	,	-10.479007	,	0
39,6	,	106516	,	-22370	,	-24829	,	-11.039066	,	0
39,6	,	106532	,	-22376	,	-24837	,	-11.7349825	,	0
39,6	,	106548	,	-22378	,	-24835	,	-12.648986	,	0
39,6	,	106580	,	-22376	,	-24843	,	-13.640353	,	0
39,6	,	106596	,	-22402	,	-24839	,	-14.558971	,	0
39,6	,	106612	,	-22397	,	-24841	,	-15.464643	,	0
39,6	,	106644	,	-22394	,	-24838	,	-16.400492	,	0
39,6	,	106660	,	-22376	,	-24843	,	-17.031212	,	0
39,6	,	106692	,	-22360	,	-24816	,	-16.696	,	0
39,6	,	106708	,	-22338	,	-24817	,	-14.694694	,	0
39,6	,	106724	,	-22329	,	-24799	,	-10.603194	,	2
39,6	,	106756	,	-22307	,	-24789	,	-4.468223	,	6
39,6	,	106772	,	-22299	,	-24792	,	3.254076	,	12
39,6	,	106788	,	-22295	,	-24787	,	11.789308	,	19
39,6	,	106820	,	-22298	,	-24784	,	20.079895	,	27
39,6	,	106836	,	-22303	,	-24787	,	26.963415	,	35
39,6	,	106852	,	-22298	,	-24785	,	31.515482	,	41
39,6	,	106884	,	-22298	,	-24799	,	33.35435	,	45
39,6	,	106900	,	-22303	,	-24802	,	32.6196	,	46
39,6	,	106932	,	-22296	,	-24795	,	29.758976	,	44
39,6	,	106948	,	-22299	,	-24788	,	25.430752	,	40
39,6	,	106964	,	-22294	,	-24791	,	20.386328	,	34
39,7	,	106996	,	-22293	,	-24793	,	15.31283	,	27
39,7	,	107012	,	-22302	,	-24777	,	10.7009735	,	19
39,7	,	107028	,	-22299	,	-24785	,	6.758521	,	11
39,7	,	107060	,	-22296	,	-24790	,	3.5452576	,	5
39,7	,	107076	,	-22310	,	-24790	,	1.0647836	,	1
39,7	,	107108	,	-22304	,	-24789	,	-0.81860566	,	0
39,7	,	107124	,	-22305	,	-24796	,	-2.2520862	,	0
39,7	,	107140	,	-22314	,	-24803	,	-3.2937818	,	0
39,7	,	107172	,	-22321	,	-24796	,	-4.0875273	,	0
39,7	,	107188	,	-22329	,	-24808	,	-4.905999	,	0
39,7	,	107204	,	-22325	,	-24807	,	-5.946133	,	0
39,7	,	107236	,	-22342	,	-24810	,	-7.2260866	,	0
39,7	,	107252	,	-22348	,	-24828	,	-8.748407	,	0
39,7	,	107268	,	-22356	,	-24831	,	-10.569765	,	0
39,7	,	107299	,	-22358	,	-24820	,	-12.641602	,	0
39,7	,	107316	,	-22366	,	-24822	,	-14.76491	,	0
39,7	,	107348	,	-22362	,	-24832	,	-16.670437	,	0
39,7	,	107364	,	-22378	,	-24837	,	-18.122925	,	0
39,7	,	107380	,	-22380	,	-24836	,	-19.067146	,	0
39,7	,	107412	,	-22394	,	-24850	,	-19.637749	,	0
39,7	,	107428	,	-22392	,	-24836	,	-20.000725	,	0
39,7	,	107444	,	-22406	,	-24851	,	-20.248032	,	0
39,7	,	107476	,	-22424	,	-24867	,	-20.511078	,	0
39,7	,	107492	,	-22431	,	-24863	,	-21.05737	,	0
39,7	,	107524	,	-22428	,	-24855	,	-22.021282	,	0
39,7	,	107540	,	-22407	,	-24857	,	-23.038757	,	0
39,7	,	107556	,	-22388	,	-24845	,	-23.232489	,	0
39,7	,	107588	,	-22371	,	-24840	,	-21.612211	,	0
39,7	,	107604	,	-22361	,	-24832	,	-17.606045	,	1
39,7	,	107620	,	-22354	,	-24823	,	-11.33245	,	5
39,7	,	107652	,	-22348	,	-24825	,	-3.507986	,	11
39,7	,	107668	,	-22363	,	-24811	,	4.7587833	,	18
39,7	,	107699	,	-22340	,	-24811	,	12.26948	,	26
39,7	,	107715	,	-22337	,	-24821	,	18.25154	,	33
39,7	,	107731	,	-22337	,	-24821	,	22.490414	,	38
39,7	,	107764	,	-22346	,	-24823	,	24.919775	,	42
39,7	,	107780	,	-22350	,	-24817	,	25.417915	,	44
39,7	,	107795	,	-22359	,	-24814	,	23.941818	,	43
39,7	,	107827	,	-22358	,	-24820	,	20.673185	,	39
39,7	,	107843	,	-22351	,	-24810	,	16.120628	,	33
39,7	,	107859	,	-22345	,	-24809	,	11.098196	,	26
39,7	,	107892	,	-22351	,	-24817	,	6.4389305	,	18
39,7	,	107908	,	-22344	,	-24801	,	2.683155	,	11
39,7	,	107940	,	-22361	,	-24825	,	-0.0128855705	,	6
39,7	,	107956	,	-22357	,	-24818	,	-1.831336	,	2
39,7	,	107972	,	-22354	,	-24820	,	-3.041535	,	0
39,8	,	108003	,	-22354	,	-24819	,	-3.748033	,	0
39,8	,	108019	,	-22364	,	-24824	,	-4.0161114	,	0
39,8	,	108035	,	-22376	,	-24829	,	-4.112157	,	0
39,8	,	108067	,	-22374	,	-24833	,	-4.42157	,	0
39,8	,	108083	,	-22394	,	-24839	,	-5.213726	,	0
39,8	,	108115	,	-22386	,	-24835	,	-6.578482	,	0
39,8	,	108131	,	-22394	,	-24857	,	-8.388475	,	0
39,8	,	108147	,	-22407	,	-24851	,	-10.39295	,	0
39,8	,	108179	,	-22424	,	-24859	,	-12.51556	,	0
39,8	,	108196	,	-22424	,	-24868	,	-14.8377075	,	0
39,8	,	108211	,	-22422	,	-24860	,	-17.254215	,	0
39,8	,	108243	,	-22431	,	-24866	,	-19.402496	,	0
39,8	,	108259	,	-22436	,	-24872	,	-20.969452	,	0
39,8	,	108275	,	-22445	,	-24877	,	-21.882069	,	0
39,8	,	108307	,	-22449	,	-24881	,	-22.232384	,	0
39,8	,	108323	,	-22472	,	-24888	,	-22.242615	,	0
39,8	,	108355	,	-22470	,	-24890	,	-22.244217	,	0
39,8	,	108371	,	-22464	,	-24920	,	-22.379108	,	0
39,8	,	108387	,	-22482	,	-24888	,	-22.466404	,	0
39,8	,	108419	,	-22498	,	-24914	,	-22.431253	,	0
39,8	,	108435	,	-22490	,	-24910	,	-22.442104	,	0
39,8	,	108451	,	-22489	,	-24900	,	-22.46934	,	0
39,8	,	108483	,	-22475	,	-24887	,	-22.1135	,	0
39,8	,	108499	,	-22465	,	-24879	,	-20.835474	,	0
39,8	,	108531	,	-22440	,	-24878	,	-18.139038	,	1
39,8	,	108547	,	-22445	,	-24869	,	-13.7494755	,	3
39,8	,	108563	,	-22443	,	-24864	,	-7.92414	,	7
39,8	,	108595	,	-22443	,	-24873	,	-1.4680395	,	12
39,8	,	108611	,	-22437	,	-24894	,	4.701244	,	18
39,8	,	108627	,	-22438	,	-24860	,	9.899458	,	24
39,8	,	108659	,	-22432	,	-24869	,	13.740721	,	29
39,8	,	108675	,	-22424	,	-24874	,	16.15738	,	32
39,8	,	108691	,	-22440	,	-24877	,	17.277033	,	34
39,8	,	108723	,	-22457	,	-24860	,	17.06421	,	34
39,8	,	108739	,	-22440	,	-24879	,	15.360497	,	32
39,8	,	108771	,	-22425	,	-24873	,	12.486907	,	28
39,8	,	108787	,	-22431	,	-24882	,	9.308481	,	23
39,8	,	108803	,	-22440	,	-24863	,	6.5113316	,	17
39,8	,	108835	,	-22430	,	-24878	,	4.2740483	,	11
39,8	,	108851	,	-22438	,	-24893	,	2.5778956	,	6
39,8	,	108867	,	-22446	,	-24869	,	1.3185408	,	3
39,8	,	108899	,	-22448	,	-24878	,	0.24026966	,	1
39,8	,	108915	,	-22450	,	-24887	,	-0.8925258	,	0
39,8	,	108947	,	-22459	,	-24888	,	-2.1711092	,	0
39,8	,	108963	,	-22470	,	-24886	,	-3.663662	,	0
39,8	,	108979	,	-22475	,	-24895	,	-5.483139	,	0
39,9	,	109011	,	-22477	,	-24893	,	-7.6497846	,	0
39,9	,	109027	,	-22479	,	-24907	,	-9.975887	,	0
39,9	,	109043	,	-22486	,	-24900	,	-12.165915	,	0
39,9	,	109075	,	-22496	,	-24902	,	-14.027569	,	0
39,9	,	109091	,	-22503	,	-24927	,	-15.559226	,	0
39,9	,	109107	,	-22517	,	-24893	,	-16.885689	,	0
39,9	,	109139	,	-22515	,	-24927	,	-18.137573	,	0
39,9	,	109155	,	-22519	,	-24929	,	-19.289415	,	0
39,9	,	109187	,	-22533	,	-24928	,	-20.199245	,	0
39,9	,	109203	,	-22532	,	-24945	,	-20.818518	,	0
39,9	,	109219	,	-22541	,	-24939	,	-21.172424	,	0
39,9	,	109251	,	-22539	,	-24930	,	-21.24043	,	0
39,9	,	109267	,	-22553	,	-24940	,	-20.999958	,	0
39,9	,	109283	,	-22566	,	-24948	,	-20.581757	,	0
39,9	,	109315	,	-22565	,	-24943	,	-20.251677	,	0
39,9	,	109331	,	-22554	,	-24962	,	-20.054382	,	0
39,9	,	109363	,	-22543	,	-24923	,	-19.589056	,	0
39,9	,	109379	,	-22517	,	-24924	,	-18.175175	,	0
39,9	,	109395	,	-22503	,	-24904	,	-15.131705	,	1
39,9	,	109426	,	-22501	,	-24912	,	-10.153328	,	4
39,9	,	109443	,	-22492	,	-24903	,	-3.5912094	,	8
39,9	,	109459	,	-22491	,	-24903	,	3.7218475	,	14
39,9	,	109491	,	-22492	,	-24901	,	10.805725	,	21
39,9	,	109507	,	-22489	,	-24908	,	16.759045	,	28
39,9	,	109539	,	-22496	,	-24905	,	20.931593	,	33
39,9	,	109555	,	-22498	,	-24905	,	22.97121	,	37
39,9	,	109571	,	-22505	,	-24935	,	22.809832	,	39
39,9	,	109603	,	-22494	,	-24901	,	20.708729	,	38
39,9	,	109619	,	-22505	,	-24905	,	17.233543	,	35
39,9	,	109635	,	-22504	,	-24913	,	13.023928	,	31
39,9	,	109667	,	-22498	,	-24906	,	8.643741	,	25
39,9	,	109683	,	-22502	,	-24908	,	4.610922	,	18
39,9	,	109698	,	-22502	,	-24912	,	1.3016744	,	11
39,9	,	109731	,	-22502	,	-24905	,	-1.1360617	,	6
39,9	,	109747	,	-22509	,	-24908	,	-2.7359183	,	2
39,9	,	109779	,	-22511	,	-24904	,	-3.6896365	,	0
39,9	,	109795	,	-22512	,	-24914	,	-4.2577014	,	0
39,9	,	109811	,	-22518	,	-24932	,	-4.6485066	,	0
39,9	,	109842	,	-22524	,	-24906	,	-5.0340347	,	0
39,9	,	109858	,	-22532	,	-24924	,	-5.5956254	,	0
39,9	,	109874	,	-22539	,	-24923	,	-6.4940333	,	0
39,9	,	109907	,	-22538	,	-24926	,	-7.7763057	,	0
39,9	,	109923	,	-22544	,	-24930	,	-9.303877	,	0
39,9	,	109955	,	-22549	,	-24931	,	-10.852505	,	0
39,9	,	109970	,	-22551	,	-24950	,	-12.2494335	,	0
39,9	,	109986	,	-22561	,	-24936	,	-13.397816	,	0
39,10	,	110019	,	-22563	,	-24941	,	-14.286747	,	0
39,10	,	110035	,	-22571	,	-24942	,	-14.966991	,	0
39,10	,	110051	,	-22582	,	-24967	,	-15.531681	,	0
39,10	,	110082	,	-22584	,	-24946	,	-16.109295	,	0
39,10	,	110098	,	-22596	,	-24961	,	-16.783722	,	0
39,10	,	110114	,	-22604	,	-24970	,	-17.594276	,	0
39,10	,	110146	,	-22608	,	-24961	,	-18.556131	,	0
39,10	,	110162	,	-22601	,	-24964	,	-19.526583	,	0
39,10	,	110195	,	-22616	,	-24982	,	-20.21487	,	0
39,10	,	110211	,	-22620	,	-24971	,	-20.466425	,	0
39,10	,	110226	,	-22613	,	-24962	,	-20.301003	,	0
39,10	,	110258	,	-22590	,	-24952	,	-19.55148	,	0
39,10	,	110274	,	-22577	,	-24940	,	-17.71053	,	0
39,10	,	110290	,	-22565	,	-24952	,	-14.272802	,	1
39,10	,	110322	,	-22551	,	-24929	,	-9.109215	,	4
39,10	,	110339	,	-22542	,	-24923	,	-2.5090342	,	9
39,10	,	110370	,	-22554	,	-24925	,	4.8390937	,	15
39,10	,	110386	,	-22549	,	-24926	,	11.889066	,	22
39,10	,	110402	,	-22545	,	-24904	,	17.64122	,	29
39,10	,	110434	,	-22537	,	-24929	,	21.5849	,	34
39,10	,	110450	,	-22539	,	-24945	,	23.69019	,	37
39,10	,	110466	,	-22540	,	-24932	,	24.13226	,	39
39,10	,	110498	,	-22546	,	-24927	,	23.104355	,	38
39,10	,	110514	,	-22548	,	-24922	,	20.800423	,	35
39,10	,	110530	,	-22551	,	-24936	,	17.471275	,	30
39,10	,	110562	,	-22548	,	-24915	,	13.47882	,	24
39,10	,	110578	,	-22538	,	-24924	,	9.3402815	,	17
39,10	,	110610	,	-22547	,	-24925	,	5.6192684	,	10
39,10	,	110626	,	-22544	,	-24916	,	2.6556773	,	5
39,10	,	110642	,	-22553	,	-24918	,	0.47040987	,	2
39,10	,	110674	,	-22548	,	-24912	,	-1.0841589	,	0
39,10	,	110690	,	-22548	,	-24925	,	-2.13164	,	0
39,10	,	110706	,	-22556	,	-24923	,	-2.748693	,	0
39,10	,	110738	,	-22556	,	-24925	,	-3.0869334	,	0
39,10	,	110754	,	-22560	,	-24931	,	-3.340651	,	0
39,10	,	110786	,	-22566	,	-24948	,	-3.6592216	,	0
39,10	,	110802	,	-22565	,	-24947	,	-4.1410055	,	0
39,10	,	110818	,	-22578	,	-24950	,	-4.837247	,	0
39,10	,	110850	,	-22573	,	-24946	,	-5.7685404	,	0
39,10	,	110866	,	-22583	,	-24951	,	-6.8859854	,	0
39,10	,	110882	,	-22592	,	-24954	,	-8.119773	,	0
39,10	,	110914	,	-22600	,	-24966	,	-9.497763	,	0
39,10	,	110930	,	-22609	,	-24956	,	-11.093252	,	0
39,10	,	110946	,	-22610	,	-24969	,	-12.897846	,	0
39,10	,	110978	,	-22622	,	-24969	,	-14.787356	,	0
39,11	,	110994	,	-22621	,	-24973	,	-16.592525	,	0
39,11	,	111026	,	-22627	,	-24977	,	-18.137587	,	0
39,11	,	111042	,	-22634	,	-24973	,	-19.271488	,	0
39,11	,	111058	,	-22646	,	-24982	,	-19.987797	,	0
39,11	,	111090	,	-22646	,	-24982	,	-20.41233	,	0
39,11	,	111106	,	-22647	,	-24987	,	-20.602253	,	0
39,11	,	111122	,	-22638	,	-24989	,	-20.414196	,	0
39,11	,	111154	,	-22621	,	-24955	,	-19.497974	,	0
39,11	,	111170	,	-22605	,	-24943	,	-17.368929	,	0
39,11	,	111202	,	-22582	,	-24944	,	-13.579049	,	2
39,11	,	111218	,	-22578	,	-24939	,	-7.9564323	,	5
39,11	,	111234	,	-22574	,	-24943	,	-0.8546953	,	10
39,11	,	111266	,	-22571	,	-24934	,	6.8576593	,	17
39,11	,	111282	,	-22574	,	-24929	,	14.122307	,	24
39,11	,	111298	,	-22562	,	-24930	,	20.043358	,	31
39,11	,	111330	,	-22551	,	-24928	,	24.189777	,	36
39,11	,	111346	,	-22550	,	-24925	,	26.626236	,	40
39,11	,	111362	,	-22555	,	-24932	,	27.56037	,	42
39,11	,	111394	,	-22559	,	-24939	,	27.07194	,	40
39,11	,	111410	,	-22565	,	-24933	,	25.172504	,	37
39,11	,	111442	,	-22559	,	-24937	,	22.003117	,	32
39,11	,	111458	,	-22547	,	-24936	,	18.012613	,	25
39,11	,	111474	,	-22557	,	-24923	,	13.867489	,	18
39,11	,	111506	,	-22549	,	-24924	,	10.099041	,	11
39,11	,	111522	,	-22554	,	-24931	,	6.964801	,	6
39,11	,	111538	,	-22556	,	-24932	,	4.5229874	,	2
39,11	,	111570	,	-22559	,	-24930	,	2.6736789	,	0
39,11	,	111586	,	-22566	,	-24932	,	1.2187862	,	0
39,11	,	111617	,	-22566	,	-24924	,	-0.055043936	,	0
39,11	,	111634	,	-22569	,	-24936	,	-1.2797464	,	0
39,11	,	111650	,	-22578	,	-24930	,	-2.5084205	,	0
39,11	,	111682	,	-22582	,	-24915	,	-3.818527	,	0
39,11	,	111698	,	-22590	,	-24930	,	-5.3011823	,	0
39,11	,	111714	,	-22584	,	-24935	,	-6.935322	,	0
39,11	,	111746	,	-22590	,	-24941	,	-8.526487	,	0
39,11	,	111762	,	-22590	,	-24944	,	-9.830792	,	0
39,11	,	111794	,	-22596	,	-24943	,	-10.716854	,	0
39,11	,	111810	,	-22599	,	-24951	,	-11.1935425	,	0
39,11	,	111826	,	-22611	,	-24950	,	-11.392366	,	0
39,11	,	111858	,	-22616	,	-24952	,	-11.546228	,	0
39,11	,	111874	,	-22618	,	-24951	,	-11.86165	,	0
39,11	,	111890	,	-22618	,	-24961	,	-12.356249	,	0
39,11	,	111922	,	-22629	,	-24943	,	-12.906389	,	0
39,11	,	111938	,	-22642	,	-24949	,	-13.485361	,	0
39,11	,	111954	,	-22647	,	-24969	,	-14.234361	,	0
39,11	,	111986	,	-22647	,	-24958	,	-15.236708	,	0
39,12	,	112001	,	-22640	,	-24973	,	-16.29498	,	0
39,12	,	112034	,	-22605	,	-24937	,	-16.817127	,	0
39,12	,	112049	,	-22595	,	-24937	,	-15.892169	,	0
39,12	,	112065	,	-22579	,	-24914	,	-12.788208	,	0
39,12	,	112098	,	-22561	,	-24920	,	-7.3714004	,	3
39,12	,	112114	,	-22570	,	-24916	,	-0.12138224	,	8
39,12	,	112130	,	-22562	,	-24905	,	7.936187	,	15
39,12	,	112161	,	-22566	,	-24908	,	15.535484	,	23
39,12	,	112177	,	-22554	,	-24902	,	21.662529	,	30
39,12	,	112209	,	-22552	,	-24919	,	25.817646	,	36
39,12	,	112226	,	-22553	,	-24896	,	27.939884	,	40
39,12	,	112242	,	-22549	,	-24899	,	28.18658	,	42
39,12	,	112274	,	-22559	,	-24910	,	26.806915	,	42
39,12	,	112289	,	-22560	,	-24908	,	24.062675	,	39
39,12	,	112305	,	-22562	,	-24901	,	20.240738	,	34
39,12	,	112338	,	-22554	,	-24903	,	15.776579	,	27
39,12	,	112354	,	-22555	,	-24902	,	11.245197	,	19
39,12	,	112370	,	-22546	,	-24906	,	7.20527	,	12
39,12	,	112401	,	-22549	,	-24898	,	4.0644855	,	6
39,12	,	112417	,	-22547	,	-24893	,	1.9900889	,	2
39,12	,	112449	,	-22549	,	-24903	,	0.8947644	,	0
39,12	,	112465	,	-22552	,	-24901	,	0.5215157	,	0
39,12	,	112481	,	-22547	,	-24902	,	0.57225704	,	0
39,12	,	112513	,	-22562	,	-24907	,	0.7664635	,	0
39,12	,	112530	,	-22557	,	-24908	,	0.8158331	,	0
39,12	,	112546	,	-22562	,	-24903	,	0.52377737	,	0
39,12	,	112577	,	-22566	,	-24911	,	-0.13924295	,	0
39,12	,	112593	,	-22566	,	-24908	,	-1.1232184	,	0
39,12	,	112625	,	-22575	,	-24921	,	-2.3480024	,	0
39,12	,	112641	,	-22581	,	-24915	,	-3.7625265	,	0
39,12	,	112657	,	-22581	,	-24916	,	-5.345232	,	0
39,12	,	112690	,	-22594	,	-24930	,	-7.034273	,	0
39,12	,	112705	,	-22594	,	-24916	,	-8.769643	,	0
39,12	,	112722	,	-22599	,	-24934	,	-10.486946	,	0
39,12	,	112753	,	-22610	,	-24931	,	-12.099325	,	0
39,12	,	112770	,	-22616	,	-24934	,	-13.595042	,	0
39,12	,	112785	,	-22621	,	-24940	,	-15.013784	,	0
39,12	,	112817	,	-22621	,	-24945	,	-16.305498	,	0
39,12	,	112834	,	-22611	,	-24933	,	-17.243746	,	0
39,12	,	112865	,	-22596	,	-24918	,	-17.397232	,	0
39,12	,	112882	,	-22571	,	-24910	,	-16.174362	,	0
39,12	,	112897	,	-22553	,	-24902	,	-12.996082	,	1
39,12	,	112929	,	-22535	,	-24892	,	-7.5774584	,	4
39,12	,	112945	,	-22521	,	-24873	,	-0.11757231	,	9
39,12	,	112961	,	-22504	,	-24872	,	8.7585335	,	16
39,12	,	112993	,	-22515	,	-24877	,	18.098255	,	24
39,13	,	113009	,	-22505	,	-24863	,	26.692934	,	33
39,13	,	113041	,	-22495	,	-24869	,	33.465015	,	41
39,13	,	113057	,	-22497	,	-24867	,	37.865376	,	47
39,13	,	113073	,	-22492	,	-24871	,	39.78742	,	51
39,13	,	113105	,	-22507	,	-24870	,	39.315887	,	51
39,13	,	113122	,	-22503	,	-24875	,	36.62491	,	48
39,13	,	113137	,	-22495	,	-24861	,	32.112526	,	43
39,13	,	113169	,	-22494	,	-24876	,	26.521334	,	36
39,13	,	113185	,	-22500	,	-24853	,	20.663057	,	28
39,13	,	113201	,	-22491	,	-24866	,	15.131871	,	19
39,13	,	113233	,	-22493	,	-24858	,	10.337967	,	11
39,13	,	113249	,	-22489	,	-24853	,	6.5464497	,	5
39,13	,	113281	,	-22495	,	-24858	,	3.821117	,	1
39,13	,	113297	,	-22491	,	-24860	,	2.0412803	,	0
39,13	,	113313	,	-22491	,	-24868	,	1.0143771	,	0
39,13	,	113345	,	-22501	,	-24850	,	0.51487434	,	0
39,13	,	113361	,	-22496	,	-24864	,	0.26139826	,	0
39,13	,	113377	,	-22489	,	-24853	,	0.08287972	,	0
39,13	,	113409	,	-22507	,	-24887	,	-0.046516567	,	0
39,13	,	113425	,	-22516	,	-24861	,	-0.31432408	,	0
39,13	,	113457	,	-22525	,	-24873	,	-1.1020464	,	0
39,13	,	113473	,	-22528	,	-24874	,	-2.6559196	,	0
39,13	,	113489	,	-22523	,	-24883	,	-4.8653483	,	0
39,13	,	113521	,	-22537	,	-24888	,	-7.3482523	,	0
39,13	,	113537	,	-22534	,	-24886	,	-9.738771	,	0
39,13	,	113553	,	-22531	,	-24898	,	-11.752681	,	0
39,13	,	113585	,	-22548	,	-24896	,	-13.168114	,	0
39,13	,	113601	,	-22553	,	-24898	,	-14.030231	,	0
39,13	,	113633	,	-22566	,	-24898	,	-14.646427	,	0
39,13	,	113649	,	-22568	,	-24925	,	-15.315353	,	0
39,13	,	113665	,	-22542	,	-24872	,	-16.00265	,	0
39,13	,	113697	,	-22515	,	-24862	,	-16.052094	,	0
39,13	,	113713	,	-22484	,	-24862	,	-14.358137	,	0
39,13	,	113729	,	-22472	,	-24841	,	-10.027588	,	1
39,13	,	113761	,	-22462	,	-24839	,	-2.976138	,	5
39,13	,	113777	,	-22463	,	-24844	,	5.9584312	,	12
39,13	,	113793	,	-22453	,	-24830	,	15.3997345	,	20
39,13	,	113825	,	-22455	,	-24833	,	23.976124	,	29
39,13	,	113841	,	-22449	,	-24835	,	30.660212	,	37
39,13	,	113873	,	-22441	,	-24829	,	34.914974	,	43
39,13	,	113889	,	-22441	,	-24843	,	36.707203	,	47
39,13	,	113905	,	-22445	,	-24816	,	36.282288	,	48
39,13	,	113937	,	-22442	,	-24829	,	33.95642	,	47
39,13	,	113953	,	-22455	,	-24825	,	30.093414	,	43
39,13	,	113969	,	-22442	,	-24832	,	25.125528	,	36
39,14	,	114001	,	-22440	,	-24825	,	19.647871	,	28
39,14	,	114016	,	-22429	,	-24831	,	14.41534	,	19
39,14	,	114049	,	-22430	,	-24819	,	10.103218	,	11
39,14	,	114065	,	-22435	,	-24823	,	7.030246	,	5
39,14	,	114081	,	-22429	,	-24825	,	5.1061673	,	1
39,14	,	114113	,	-22433	,	-24820	,	4.054301	,	0
39,14	,	114129	,	-22432	,	-24840	,	3.5751736	,	0
39,14	,	114145	,	-22429	,	-24816	,	3.3961415	,	0
39,14	,	114177	,	-22445	,	-24817	,	3.2795525	,	0
39,14	,	114192	,	-22450	,	-24823	,	2.9117918	,	0
39,14	,	114225	,	-22446	,	-24836	,	2.0054302	,	0
39,14	,	114241	,	-22455	,	-24827	,	0.54226184	,	0
39,14	,	114257	,	-22456	,	-24841	,	-1.3112023	,	0
39,14	,	114289	,	-22454	,	-24843	,	-3.340522	,	0
39,14	,	114304	,	-22475	,	-24824	,	-5.351671	,	0
39,14	,	114321	,	-22476	,	-24840	,	-7.337638	,	0
39,14	,	114353	,	-22484	,	-24838	,	-9.395709	,	0
39,14	,	114368	,	-22482	,	-24868	,	-11.475843	,	0
39,14	,	114401	,	-22492	,	-24846	,	-13.385788	,	0
39,14	,	114417	,	-22500	,	-24830	,	-14.988998	,	0
39,14	,	114433	,	-22505	,	-24867	,	-16.296587	,	0
39,14	,	114464	,	-22512	,	-24878	,	-17.365234	,	0
39,14	,	114480	,	-22517	,	-24870	,	-18.219234	,	0
39,14	,	114496	,	-22504	,	-24860	,	-18.77539	,	0
39,14	,	114529	,	-22486	,	-24841	,	-18.66448	,	0
39,14	,	114545	,	-22453	,	-24833	,	-17.184013	,	0
39,14	,	114560	,	-22435	,	-24837	,	-13.554173	,	1
39,14	,	114592	,	-22432	,	-24842	,	-7.4534216	,	4
39,14	,	114608	,	-22424	,	-24806	,	0.59733486	,	10
39,14	,	114640	,	-22416	,	-24806	,	9.491933	,	18
39,14	,	114657	,	-22410	,	-24808	,	18.074001	,	26
39,14	,	114673	,	-22407	,	-24805	,	25.40321	,	34
39,14	,	114705	,	-22410	,	-24808	,	30.790655	,	41
39,14	,	114720	,	-22402	,	-24814	,	33.844406	,	46
39,14	,	114736	,	-22419	,	-24817	,	34.47951	,	49
39,14	,	114768	,	-22413	,	-24811	,	32.800896	,	48
39,14	,	114784	,	-22406	,	-24815	,	29.171913	,	45
39,14	,	114816	,	-22415	,	-24823	,	24.284378	,	39
39,14	,	114833	,	-22412	,	-24826	,	18.86079	,	31
39,14	,	114849	,	-22402	,	-24790	,	13.504591	,	23
39,14	,	114880	,	-22405	,	-24795	,	8.784562	,	15
39,14	,	114896	,	-22400	,	-24801	,	5.1177864	,	8
39,14	,	114912	,	-22400	,	-24815	,	2.6541257	,	3
39,14	,	114944	,	-22398	,	-24806	,	1.3260784	,	0
39,14	,	114961	,	-22407	,	-24808	,	0.8809619	,	0
39,15	,	114992	,	-22409	,	-24812	,	0.9103551	,	0
39,15	,	115008	,	-22405	,	-24809	,	1.017371	,	0
39,15	,	115024	,	-22417	,	-24817	,	0.95929325	,	0
39,15	,	115056	,	-22427	,	-24824	,	0.5302145	,	0
39,15	,	115072	,	-22438	,	-24834	,	-0.5405322	,	0
39,15	,	115088	,	-22437	,	-24817	,	-2.409383	,	0
39,15	,	115120	,	-22442	,	-24840	,	-4.925462	,	0
39,15	,	115136	,	-22451	,	-24846	,	-7.7394714	,	0
39,15	,	115152	,	-22462	,	-24840	,	-10.584315	,	0
39,15	,	115184	,	-22463	,	-24839	,	-13.330654	,	0
39,15	,	115200	,	-22468	,	-24846	,	-15.826707	,	0
39,15	,	115232	,	-22473	,	-24847	,	-17.870745	,	0
39,15	,	115248	,	-22471	,	-24859	,	-19.290577	,	0
39,15	,	115264	,	-22485	,	-24857	,	-20.002495	,	0
39,15	,	115296	,	-22484	,	-24856	,	-20.08181	,	0
39,15	,	115312	,	-22477	,	-24865	,	-19.631273	,	0
39,15	,	115328	,	-22457	,	-24838	,	-18.496704	,	0
39,15	,	115360	,	-22428	,	-24822	,	-16.180172	,	1
39,15	,	115376	,	-22402	,	-24808	,	-12.014619	,	3
39,15	,	115408	,	-22395	,	-24814	,	-5.602045	,	7
39,15	,	115424	,	-22400	,	-24806	,	2.671741	,	13
39,15	,	115440	,	-22393	,	-24807	,	11.62397	,	21
39,15	,	115472	,	-22400	,	-24806	,	19.83711	,	29
39,15	,	115488	,	-22399	,	-24817	,	26.148315	,	37
39,15	,	115504	,	-22393	,	-24802	,	29.887226	,	43
39,15	,	115536	,	-22396	,	-24814	,	30.974861	,	46
39,15	,	115552	,	-22404	,	-24813	,	29.710165	,	46
39,15	,	115568	,	-22408	,	-24819	,	26.485878	,	44
39,15	,	115600	,	-22406	,	-24805	,	21.789864	,	40
39,15	,	115616	,	-22397	,	-24807	,	16.322847	,	34
39,15	,	115648	,	-22404	,	-24811	,	10.892759	,	26
39,15	,	115664	,	-22398	,	-24802	,	6.125641	,	18
39,15	,	115680	,	-22396	,	-24794	,	2.3814516	,	10
39,15	,	115712	,	-22396	,	-24801	,	-0.16599178	,	4
39,15	,	115728	,	-22404	,	-24817	,	-1.5780418	,	1
39,15	,	115744	,	-22407	,	-24811	,	-2.17737	,	0
39,15	,	115776	,	-22413	,	-24825	,	-2.3962615	,	0
39,15	,	115792	,	-22416	,	-24810	,	-2.6072917	,	0
39,15	,	115824	,	-22415	,	-24819	,	-3.0211358	,	0
39,15	,	115840	,	-22424	,	-24832	,	-3.6797793	,	0
39,15	,	115856	,	-22428	,	-24823	,	-4.576643	,	0
39,15	,	115888	,	-22434	,	-24827	,	-5.7221375	,	0
39,15	,	115904	,	-22444	,	-24826	,	-7.119005	,	0
39,15	,	115920	,	-22438	,	-24830	,	-8.712651	,	0
39,15	,	115952	,	-22451	,	-24841	,	-10.338992	,	0
39,15	,	115968	,	-22447	,	-24840	,	-11.805695	,	0
39,16	,	116000	,	-22457	,	-24846	,	-12.986023	,	0
39,16	,	116016	,	-22468	,	-24852	,	-13.875577	,	0
39,16	,	116032	,	-22474	,	-24845	,	-14.62879	,	0
39,16	,	116064	,	-22456	,	-24850	,	-15.308626	,	0
39,16	,	116080	,	-22448	,	-24840	,	-15.583963	,	0
39,16	,	116096	,	-22430	,	-24830	,	-14.856367	,	0
39,16	,	116128	,	-22415	,	-24820	,	-12.590565	,	0
39,16	,	116143	,	-22401	,	-24804	,	-8.517475	,	2
39,16	,	116160	,	-22402	,	-24807	,	-2.8055396	,	6
39,16	,	116192	,	-22402	,	-24792	,	3.8443875	,	11
39,16	,	116208	,	-22393	,	-24800	,	10.449074	,	17
39,16	,	116240	,	-22388	,	-24796	,	16.19514	,	23
39,16	,	116256	,	-22388	,	-24809	,	20.60426	,	28
39,16	,	116272	,	-22388	,	-24785	,	23.411398	,	32
39,16	,	116304	,	-22394	,	-24809	,	24.478647	,	34
39,16	,	116320	,	-22384	,	-24798	,	23.847702	,	35
39,16	,	116336	,	-22384	,	-24810	,	21.848774	,	33
39,16	,	116368	,	-22396	,	-24802	,	18.953468	,	29
39,16	,	116384	,	-22381	,	-24802	,	15.550188	,	24
39,16	,	116415	,	-22375	,	-24798	,	12.084583	,	18
39,16	,	116432	,	-22374	,	-24793	,	9.10318	,	12
39,16	,	116448	,	-22376	,	-24804	,	6.940755	,	7
39,16	,	116479	,	-22385	,	-24805	,	5.5406775	,	3
39,16	,	116495	,	-22384	,	-24811	,	4.5777555	,	1
39,16	,	116512	,	-22395	,	-24781	,	3.6854172	,	0
39,16	,	116544	,	-22390	,	-24797	,	2.6034865	,	0
39,16	,	116560	,	-22396	,	-24809	,	1.2520006	,	0
39,16	,	116575	,	-22397	,	-24815	,	-0.29255676	,	0
39,16	,	116607	,	-22406	,	-24810	,	-1.9389827	,	0
39,16	,	116623	,	-22413	,	-24828	,	-3.6782465	,	0
39,16	,	116655	,	-22416	,	-24830	,	-5.537598	,	0
39,16	,	116672	,	-22420	,	-24825	,	-7.4711027	,	0
39,16	,	116688	,	-22435	,	-24824	,	-9.404214	,	0
39,16	,	116719	,	-22429	,	-24823	,	-11.309134	,	0
39,16	,	116735	,	-22435	,	-24849	,	-13.077037	,	0
39,16	,	116752	,	-22452	,	-24828	,	-14.567572	,	0
39,16	,	116784	,	-22462	,	-24848	,	-15.8652525	,	0
39,16	,	116800	,	-22459	,	-24848	,	-17.156898	,	0
39,16	,	116831	,	-22463	,	-24854	,	-18.406101	,	0
39,16	,	116847	,	-22450	,	-24850	,	-19.31239	,	0
39,16	,	116863	,	-22454	,	-24839	,	-19.466602	,	0
39,16	,	116895	,	-22431	,	-24827	,	-18.491396	,	0
39,16	,	116911	,	-22413	,	-24819	,	-16.03024	,	0
39,16	,	116927	,	-22389	,	-24809	,	-11.738463	,	2
39,16	,	116960	,	-22391	,	-24809	,	-5.5565243	,	6
39,16	,	116975	,	-22388	,	-24827	,	1.9633412	,	12
39,16	,	116991	,	-22390	,	-24796	,	9.74507	,	19
39,17	,	117023	,	-22385	,	-24801	,	16.65055	,	26
39,17	,	117039	,	-22379	,	-24798	,	21.889595	,	32
39,17	,	117071	,	-22374	,	-24795	,	25.164463	,	37
39,17	,	117087	,	-22373	,	-24808	,	26.560324	,	40
39,17	,	117103	,	-22389	,	-24805	,	26.259014	,	41
39,17	,	117135	,	-22384	,	-24805	,	24.367672	,	39
39,17	,	117151	,	-22388	,	-24807	,	21.089666	,	35
39,17	,	117167	,	-22387	,	-24801	,	16.870277	,	29
39,17	,	117199	,	-22375	,	-24803	,	12.320099	,	22
39,17	,	117215	,	-22377	,	-24822	,	8.105089	,	15
39,17	,	117247	,	-22376	,	-24798	,	4.727492	,	9
39,17	,	117263	,	-22382	,	-24800	,	2.338153	,	4
39,17	,	117279	,	-22386	,	-24812	,	0.78192425	,	1
39,17	,	117311	,	-22390	,	-24811	,	-0.25273967	,	0
39,17	,	117327	,	-22384	,	-24818	,	-1.0426043	,	0
39,17	,	117343	,	-22407	,	-24813	,	-1.7798767	,	0
39,17	,	117375	,	-22404	,	-24822	,	-2.7026284	,	0
39,17	,	117391	,	-22410	,	-24824	,	-4.00146	,	0
39,17	,	117423	,	-22415	,	-24834	,	-5.6540046	,	0
39,17	,	117439	,	-22416	,	-24826	,	-7.498952	,	0
39,17	,	117455	,	-22436	,	-24849	,	-9.39478	,	0
39,17	,	117487	,	-22434	,	-24822	,	-11.327106	,	0
39,17	,	117503	,	-22450	,	-24835	,	-13.3285885	,	0
39,17	,	117519	,	-22451	,	-24841	,	-15.369202	,	0
39,17	,	117551	,	-22460	,	-24846	,	-17.35479	,	0
39,17	,	117567	,	-22472	,	-24849	,	-19.181026	,	0
39,17	,	117583	,	-22471	,	-24851	,	-20.786371	,	0
39,17	,	117615	,	-22479	,	-24856	,	-22.078104	,	0
39,17	,	117631	,	-22487	,	-24866	,	-22.948933	,	0
39,17	,	117663	,	-22490	,	-24864	,	-23.386166	,	0
39,17	,	117679	,	-22488	,	-24859	,	-23.392776	,	0
39,17	,	117695	,	-22470	,	-24862	,	-22.794209	,	0
39,17	,	117727	,	-22459	,	-24832	,	-21.173018	,	0
39,17	,	117743	,	-22432	,	-24835	,	-18.025692	,	1
39,17	,	117759	,	-22425	,	-24828	,	-13.019552	,	4
39,17	,	117791	,	-22423	,	-24832	,	-6.295192	,	9
39,17	,	117807	,	-22420	,	-24838	,	1.4073	,	15
39,17	,	117839	,	-22418	,	-24825	,	9.038484	,	22
39,17	,	117855	,	-22419	,	-24818	,	15.619574	,	29
39,17	,	117871	,	-22416	,	-24826	,	20.450045	,	35
39,17	,	117903	,	-22423	,	-24817	,	23.175947	,	39
39,17	,	117919	,	-22417	,	-24836	,	23.764187	,	41
39,17	,	117935	,	-22427	,	-24840	,	22.452114	,	40
39,17	,	117967	,	-22428	,	-24831	,	19.628477	,	37
39,17	,	117983	,	-22423	,	-24835	,	15.764809	,	32
39,18	,	117999	,	-22427	,	-24836	,	11.434762	,	26
39,18	,	118031	,	-22436	,	-24835	,	7.1457624	,	19
39,18	,	118047	,	-22433	,	-24825	,	3.177023	,	12
39,18	,	118079	,	-22436	,	-24847	,	-0.30019903	,	6
39,18	,	118095	,	-22432	,	-24829	,	-3.10504	,	2
39,18	,	118111	,	-22441	,	-24830	,	-5.1197815	,	0
39,18	,	118143	,	-22447	,	-24836	,	-6.4220104	,	0
39,18	,	118159	,	-22452	,	-24846	,	-7.2745705	,	0
39,18	,	118175	,	-22457	,	-24844	,	-7.954385	,	0
39,18	,	118207	,	-22450	,	-24842	,	-8.586632	,	0
39,18	,	118223	,	-22467	,	-24847	,	-9.15308	,	0
39,18	,	118255	,	-22468	,	-24857	,	-9.687822	,	0
39,18	,	118271	,	-22468	,	-24850	,	-10.277519	,	0
39,18	,	118287	,	-22485	,	-24857	,	-10.945741	,	0
39,18	,	118319	,	-22489	,	-24868	,	-11.7637825	,	0
39,18	,	118335	,	-22490	,	-24864	,	-12.80675	,	0
39,18	,	118351	,	-22494	,	-24872	,	-13.96335	,	0
39,18	,	118383	,	-22500	,	-24874	,	-15.021639	,	0
39,18	,	118399	,	-22508	,	-24887	,	-15.864564	,	0
39,18	,	118415	,	-22518	,	-24887	,	-16.529985	,	0
39,18	,	118447	,	-22517	,	-24876	,	-17.113634	,	0
39,18	,	118463	,	-22534	,	-24908	,	-17.667694	,	0
39,18	,	118494	,	-22548	,	-24904	,	-18.306084	,	0
39,18	,	118511	,	-22555	,	-24905	,	-19.247295	,	0
39,18	,	118527	,	-22556	,	-24914	,	-20.565414	,	0
39,18	,	118559	,	-22538	,	-24900	,	-21.933426	,	0
39,18	,	118575	,	-22521	,	-24888	,	-22.588413	,	0
39,18	,	118591	,	-22508	,	-24899	,	-21.627903	,	0
39,18	,	118623	,	-22499	,	-24879	,	-18.49368	,	0
39,18	,	118639	,	-22491	,	-24882	,	-13.229632	,	3
39,18	,	118671	,	-22494	,	-24873	,	-6.4450455	,	8
39,18	,	118687	,	-22492	,	-24880	,	0.86653996	,	14
39,18	,	118703	,	-22498	,	-24879	,	7.6188426	,	21
39,18	,	118735	,	-22489	,	-24863	,	12.95655	,	27
39,18	,	118751	,	-22492	,	-24879	,	16.459394	,	32
39,18	,	118767	,	-22502	,	-24877	,	18.046402	,	35
39,18	,	118799	,	-22508	,	-24884	,	17.74068	,	36
39,18	,	118815	,	-22508	,	-24891	,	15.68634	,	36
39,18	,	118830	,	-22502	,	-24877	,	12.315332	,	33
39,18	,	118863	,	-22497	,	-24878	,	8.343101	,	28
39,18	,	118879	,	-22498	,	-24893	,	4.5355744	,	22
39,18	,	118911	,	-22495	,	-24881	,	1.4430442	,	15
39,18	,	118927	,	-22499	,	-24881	,	-0.6881149	,	9
39,18	,	118943	,	-22508	,	-24887	,	-1.9209805	,	4
39,18	,	118975	,	-22508	,	-24897	,	-2.5715153	,	1
39,19	,	118990	,	-22526	,	-24888	,	-3.0545	,	0
39,19	,	119006	,	-22519	,	-24899	,	-3.737916	,	0
39,19	,	119038	,	-22525	,	-24902	,	-4.7654014	,	0
39,19	,	119054	,	-22525	,	-24896	,	-6.0177765	,	0
39,19	,	119087	,	-22542	,	-24907	,	-7.3511133	,	0
39,19	,	119103	,	-22540	,	-24919	,	-8.756554	,	0
39,19	,	119118	,	-22543	,	-24928	,	-10.220551	,	0
39,19	,	119150	,	-22558	,	-24919	,	-11.652375	,	0
39,19	,	119166	,	-22561	,	-24920	,	-13.041529	,	0
39,19	,	119183	,	-22569	,	-24924	,	-14.438093	,	0
39,19	,	119214	,	-22572	,	-24923	,	-15.81142	,	0
39,19	,	119231	,	-22585	,	-24934	,	-17.094458	,	0
39,19	,	119262	,	-22588	,	-24940	,	-18.27092	,	0
39,19	,	119278	,	-22599	,	-24938	,	-19.355377	,	0
39,19	,	119294	,	-22600	,	-24942	,	-20.334826	,	0
39,19	,	119327	,	-22606	,	-24941	,	-21.137077	,	0
39,19	,	119343	,	-22617	,	-24946	,	-21.68717	,	0
39,19	,	119358	,	-22620	,	-24964	,	-21.998035	,	0
39,19	,	119390	,	-22621	,	-24950	,	-22.097324	,	0
39,19	,	119406	,	-22637	,	-24959	,	-21.980442	,	0
39,19	,	119422	,	-22630	,	-24955	,	-21.683231	,	0
39,19	,	119454	,	-22607	,	-24947	,	-21.065065	,	0
39,19	,	119470	,	-22592	,	-24936	,	-19.569416	,	0
39,19	,	119502	,	-22581	,	-24931	,	-16.54942	,	1
39,19	,	119518	,	-22576	,	-24923	,	-11.785795	,	4
39,19	,	119534	,	-22571	,	-24929	,	-5.632675	,	8
39,19	,	119567	,	-22566	,	-24920	,	1.178896	,	14
39,19	,	119583	,	-22564	,	-24919	,	7.8239756	,	20
39,19	,	119599	,	-22566	,	-24925	,	13.559934	,	26
39,19	,	119631	,	-22563	,	-24919	,	17.817953	,	31
39,19	,	119646	,	-22562	,	-24921	,	20.307276	,	35
39,19	,	119678	,	-22558	,	-24912	,	21.063263	,	37
39,19	,	119694	,	-22562	,	-24925	,	20.352497	,	36
39,19	,	119710	,	-22565	,	-24914	,	18.495634	,	33
39,19	,	119742	,	-22573	,	-24921	,	15.752922	,	29
39,19	,	119758	,	-22567	,	-24917	,	12.371891	,	23
39,19	,	119774	,	-22565	,	-24928	,	8.716662	,	17
39,19	,	119806	,	-22572	,	-24925	,	5.2123656	,	11
39,19	,	119822	,	-22560	,	-24921	,	2.1933541	,	6
39,19	,	119838	,	-22571	,	-24935	,	-0.11401987	,	2
39,19	,	119870	,	-22569	,	-24906	,	-1.6539125	,	0
39,19	,	119886	,	-22580	,	-24917	,	-2.5990562	,	0
39,19	,	119918	,	-22581	,	-24930	,	-3.2496998	,	0
39,19	,	119934	,	-22584	,	-24938	,	-3.869994	,	0
39,19	,	119950	,	-22584	,	-24936	,	-4.561038	,	0
39,19	,	119982	,	-22598	,	-24940	,	-5.3314686	,	0
39,20	,	119998	,	-22604	,	-24940	,	-6.275248	,	0
39,20	,	120014	,	-22610	,	-24950	,	-7.540778	,	0
39,20	,	120046	,	-22612	,	-24940	,	-9.144185	,	0
39,20	,	120062	,	-22626	,	-24946	,	-10.9620075	,	0
39,20	,	120094	,	-22621	,	-24966	,	-12.84261	,	0
39,20	,	120110	,	-22627	,	-24951	,	-14.579707	,	0
39,20	,	120126	,	-22640	,	-24959	,	-15.979946	,	0
39,20	,	120158	,	-22636	,	-24965	,	-17.00717	,	0
39,20	,	120174	,	-22640	,	-24965	,	-17.653631	,	0
39,20	,	120190	,	-22645	,	-24979	,	-17.850449	,	0
39,20	,	120222	,	-22654	,	-24979	,	-17.62441	,	0
39,20	,	120238	,	-22644	,	-24969	,	-17.086655	,	0
39,20	,	120254	,	-22664	,	-24986	,	-16.318829	,	0
39,20	,	120286	,	-22667	,	-24983	,	-15.491806	,	0
39,20	,	120302	,	-22679	,	-24985	,	-14.899002	,	0
39,20	,	120334	,	-22676	,	-25006	,	-14.72994	,	0
39,20	,	120350	,	-22671	,	-24964	,	-14.883843	,	0
39,20	,	120366	,	-22627	,	-24950	,	-14.790571	,	0
39,20	,	120398	,	-22612	,	-24950	,	-13.396608	,	0
39,20	,	120414	,	-22601	,	-24935	,	-9.775953	,	1
39,20	,	120430	,	-22603	,	-24934	,	-3.8754945	,	4
39,20	,	120462	,	-22598	,	-24951	,	3.4515018	,	9
39,20	,	120478	,	-22595	,	-24938	,	10.983763	,	16
39,20	,	120509	,	-22599	,	-24947	,	17.606052	,	23
39,20	,	120526	,	-22607	,	-24946	,	22.445833	,	29
39,20	,	120542	,	-22594	,	-24939	,	24.98899	,	33
39,20	,	120574	,	-22596	,	-24953	,	25.27808	,	35
39,20	,	120590	,	-22604	,	-24930	,	23.737125	,	35
39,20	,	120606	,	-22605	,	-24938	,	20.800932	,	34
39,20	,	120638	,	-22607	,	-24932	,	16.873817	,	31
39,20	,	120654	,	-22600	,	-24931	,	12.449013	,	26
39,20	,	120670	,	-22600	,	-24931	,	8.096326	,	19
39,20	,	120702	,	-22589	,	-24938	,	4.364005	,	12
39,20	,	120717	,	-22602	,	-24934	,	1.6291342	,	6
39,20	,	120750	,	-22591	,	-24942	,	-0.031013966	,	2
39,20	,	120766	,	-22604	,	-24935	,	-0.792032	,	0
39,20	,	120782	,	-22608	,	-24953	,	-1.0080547	,	0
39,20	,	120814	,	-22605	,	-24967	,	-1.0964228	,	0
39,20	,	120830	,	-22614	,	-24936	,	-1.3254223	,	0
39,20	,	120846	,	-22627	,	-24954	,	-1.8680476	,	0
39,20	,	120878	,	-22623	,	-24961	,	-2.894477	,	0
39,20	,	120894	,	-22633	,	-24974	,	-4.415919	,	0
39,20	,	120925	,	-22638	,	-24966	,	-6.290906	,	0
39,20	,	120942	,	-22645	,	-24975	,	-8.3799305	,	0
39,20	,	120957	,	-22649	,	-24974	,	-10.552308	,	0
39,20	,	120990	,	-22651	,	-24965	,	-12.634871	,	0
39,21	,	121006	,	-22654	,	-24969	,	-14.412071	,	0
39,21	,	121022	,	-22660	,	-24965	,	-15.703758	,	0
39,21	,	121054	,	-22670	,	-24994	,	-16.487875	,	0
39,21	,	121070	,	-22675	,	-24977	,	-16.915756	,	0
39,21	,	121102	,	-22682	,	-24995	,	-17.18261	,	0
39,21	,	121118	,	-22690	,	-25007	,	-17.432323	,	0
39,21	,	121134	,	-22703	,	-24990	,	-17.792782	,	0
39,21	,	121166	,	-22698	,	-25007	,	-18.34702	,	0
39,21	,	121181	,	-22701	,	-24990	,	-18.977844	,	0
39,21	,	121198	,	-22688	,	-24977	,	-19.330101	,	0
39,21	,	121230	,	-22675	,	-24963	,	-18.896887	,	0
39,21	,	121246	,	-22665	,	-24962	,	-17.164818	,	0
39,21	,	121262	,	-22649	,	-24959	,	-13.825449	,	1
39,21	,	121294	,	-22640	,	-24965	,	-8.878768	,	4
39,21	,	121310	,	-22627	,	-24931	,	-2.6161823	,	8
39,21	,	121341	,	-22631	,	-24943	,	4.3887396	,	14
39,21	,	121358	,	-22621	,	-24941	,	11.343637	,	21
39,21	,	121373	,	-22626	,	-24944	,	17.435976	,	27
39,21	,	121405	,	-22626	,	-24934	,	21.998869	,	33
39,21	,	121421	,	-22624	,	-24942	,	24.607832	,	37
39,21	,	121438	,	-22627	,	-24946	,	25.173435	,	39
39,21	,	121470	,	-22626	,	-24941	,	23.900318	,	38
39,21	,	121486	,	-22635	,	-24944	,	21.144531	,	35
39,21	,	121517	,	-22629	,	-24940	,	17.33041	,	31
39,21	,	121533	,	-22624	,	-24956	,	12.997218	,	25
39,21	,	121549	,	-22618	,	-24935	,	8.808091	,	18
39,21	,	121581	,	-22622	,	-24932	,	5.3403015	,	12
39,21	,	121597	,	-22612	,	-24931	,	2.8997774	,	6
39,21	,	121613	,	-22620	,	-24945	,	1.5324125	,	2
39,21	,	121646	,	-22625	,	-24930	,	1.0225754	,	0
39,21	,	121662	,	-22626	,	-24940	,	0.9485332	,	0
39,21	,	121678	,	-22621	,	-24935	,	0.951072	,	0
39,21	,	121709	,	-22629	,	-24944	,	0.8762753	,	0
39,21	,	121725	,	-22637	,	-24950	,	0.6114423	,	0
39,21	,	121757	,	-22637	,	-24950	,	-0.0040965974	,	0
39,21	,	121773	,	-22641	,	-24938	,	-1.0355953	,	0
39,21	,	121790	,	-22643	,	-24937	,	-2.3948593	,	0
39,21	,	121821	,	-22663	,	-24952	,	-4.0065713	,	0
39,21	,	121837	,	-22654	,	-24954	,	-5.8855233	,	0
39,21	,	121853	,	-22660	,	-24963	,	-7.928686	,	0
39,21	,	121885	,	-22675	,	-24970	,	-9.91478	,	0
39,21	,	121901	,	-22671	,	-24960	,	-11.740789	,	0
39,21	,	121933	,	-22674	,	-24960	,	-13.327537	,	0
39,21	,	121949	,	-22686	,	-24965	,	-14.5451565	,	0
39,21	,	121965	,	-22679	,	-24965	,	-15.352281	,	0
39,22	,	121997	,	-22689	,	-24968	,	-15.749237	,	0
39,22	,	122013	,	-22692	,	-24963	,	-15.757107	,	0
39,22	,	122029	,	-22672	,	-24967	,	-15.368577	,	0
39,22	,	122061	,	-22638	,	-24940	,	-14.198519	,	0
39,22	,	122077	,	-22621	,	-24922	,	-11.4508705	,	1
39,22	,	122093	,	-22612	,	-24927	,	-6.549829	,	3
39,22	,	122125	,	-22605	,	-24905	,	0.31997252	,	7
39,22	,	122141	,	-22592	,	-24914	,	8.346847	,	13
39,22	,	122173	,	-22593	,	-24914	,	16.512653	,	21
39,22	,	122189	,	-22598	,	-24906	,	23.771063	,	29
39,22	,	122205	,	-22590	,	-24906	,	29.186369	,	36
39,22	,	122237	,	-22597	,	-24911	,	32.20753	,	41
39,22	,	122253	,	-22597	,	-24899	,	32.71151	,	44
39,22	,	122269	,	-22603	,	-24924	,	30.870132	,	43
39,22	,	122301	,	-22593	,	-24908	,	27.14198	,	41
39,22	,	122317	,	-22594	,	-24905	,	22.26147	,	37
39,22	,	122349	,	-22587	,	-24908	,	17.060946	,	31
39,22	,	122365	,	-22587	,	-24902	,	12.247672	,	23
39,22	,	122381	,	-22574	,	-24898	,	8.332987	,	15
39,22	,	122413	,	-22573	,	-24901	,	5.662384	,	8
39,22	,	122429	,	-22582	,	-24907	,	4.298257	,	3
39,22	,	122445	,	-22587	,	-24899	,	3.8767326	,	0
39,22	,	122477	,	-22585	,	-24905	,	3.8256714	,	0
39,22	,	122493	,	-22593	,	-24893	,	3.702024	,	0
39,22	,	122525	,	-22589	,	-24913	,	3.268488	,	0
39,22	,	122541	,	-22600	,	-24909	,	2.4383516	,	0
39,22	,	122557	,	-22605	,	-24900	,	1.1784201	,	0
39,22	,	122589	,	-22615	,	-24915	,	-0.5588248	,	0
39,22	,	122605	,	-22607	,	-24909	,	-2.7245083	,	0
39,22	,	122621	,	-22615	,	-24910	,	-5.060242	,	0
39,22	,	122653	,	-22627	,	-24924	,	-7.2927213	,	0
39,22	,	122669	,	-22615	,	-24924	,	-9.288629	,	0
39,22	,	122685	,	-22619	,	-24924	,	-10.857319	,	0
39,22	,	122717	,	-22631	,	-24943	,	-11.798787	,	0
39,22	,	122733	,	-22635	,	-24911	,	-12.196119	,	0
39,22	,	122765	,	-22656	,	-24931	,	-12.405382	,	0
39,22	,	122781	,	-22656	,	-24939	,	-12.852856	,	0
39,22	,	122797	,	-22654	,	-24938	,	-13.73514	,	0
39,22	,	122829	,	-22643	,	-24932	,	-14.784624	,	0
39,22	,	122845	,	-22639	,	-24913	,	-15.414674	,	0
39,22	,	122861	,	-22607	,	-24918	,	-14.957608	,	0
39,22	,	122893	,	-22582	,	-24894	,	-12.6934185	,	0
39,22	,	122909	,	-22571	,	-24889	,	-8.067409	,	2
39,22	,	122941	,	-22562	,	-24883	,	-1.1534042	,	6
39,22	,	122957	,	-22555	,	-24899	,	7.262994	,	12
39,22	,	122973	,	-22544	,	-24862	,	16.065933	,	20
39,23	,	123005	,	-22536	,	-24866	,	24.223595	,	28
39,23	,	123021	,	-22538	,	-24861	,	30.944065	,	36
39,23	,	123037	,	-22533	,	-24858	,	35.640793	,	42
39,23	,	123069	,	-22537	,	-24861	,	37.962696	,	46
39,23	,	123084	,	-22526	,	-24857	,	37.89428	,	48
39,23	,	123101	,	-22533	,	-24864	,	35.765816	,	46
39,23	,	123133	,	-22530	,	-24853	,	32.08368	,	42
39,23	,	123149	,	-22518	,	-24852	,	27.433994	,	36
39,23	,	123181	,	-22517	,	-24851	,	22.522787	,	28
39,23	,	123197	,	-22514	,	-24866	,	18.00024	,	20
39,23	,	123213	,	-22514	,	-24831	,	14.234753	,	12
39,23	,	123245	,	-22520	,	-24849	,	11.290717	,	6
39,23	,	123261	,	-22516	,	-24846	,	9.014436	,	2
39,23	,	123276	,	-22516	,	-24860	,	7.209401	,	0
39,23	,	123308	,	-22516	,	-24852	,	5.75266	,	0
39,23	,	123325	,	-22527	,	-24859	,	4.517028	,	0
39,23	,	123356	,	-22517	,	-24855	,	3.3455555	,	0
39,23	,	123373	,	-22537	,	-24863	,	2.1254973	,	0
39,23	,	123389	,	-22535	,	-24858	,	0.7303717	,	0
39,23	,	123420	,	-22529	,	-24860	,	-0.8995904	,	0
39,23	,	123436	,	-22538	,	-24882	,	-2.5937228	,	0
39,23	,	123452	,	-22544	,	-24848	,	-4.162662	,	0
39,23	,	123485	,	-22564	,	-24875	,	-5.676368	,	0
39,23	,	123501	,	-22557	,	-24870	,	-7.3676367	,	0
39,23	,	123516	,	-22555	,	-24879	,	-9.249119	,	0
39,23	,	123548	,	-22574	,	-24878	,	-11.069567	,	0
39,23	,	123565	,	-22567	,	-24867	,	-12.661644	,	0
39,23	,	123596	,	-22566	,	-24884	,	-13.908237	,	0
39,23	,	123612	,	-22576	,	-24882	,	-14.622492	,	0
39,23	,	123629	,	-22574	,	-24875	,	-14.751588	,	0
39,23	,	123660	,	-22566	,	-24882	,	-14.33753	,	0
39,23	,	123676	,	-22550	,	-24873	,	-13.255999	,	0
39,23	,	123692	,	-22526	,	-24840	,	-11.142153	,	1
39,23	,	123724	,	-22489	,	-24836	,	-7.437288	,	3
39,23	,	123740	,	-22488	,	-24828	,	-1.6781459	,	6
39,23	,	123772	,	-22487	,	-24816	,	5.9111857	,	11
39,23	,	123788	,	-22472	,	-24820	,	14.327372	,	18
39,23	,	123804	,	-22461	,	-24814	,	22.445236	,	26
39,23	,	123836	,	-22465	,	-24811	,	29.42504	,	34
39,23	,	123852	,	-22449	,	-24811	,	34.666065	,	40
39,23	,	123868	,	-22462	,	-24807	,	37.809776	,	45
39,23	,	123900	,	-22464	,	-24812	,	38.664845	,	47
39,23	,	123916	,	-22463	,	-24837	,	37.17869	,	45
39,23	,	123948	,	-22466	,	-24798	,	33.608753	,	42
39,23	,	123964	,	-22454	,	-24806	,	28.558353	,	37
39,23	,	123980	,	-22452	,	-24812	,	22.864017	,	30
39,24	,	124013	,	-22453	,	-24807	,	17.354511	,	22
39,24	,	124028	,	-22446	,	-24802	,	12.599303	,	14
39,24	,	124044	,	-22448	,	-24794	,	8.890549	,	8
39,24	,	124076	,	-22446	,	-24797	,	6.288726	,	3
39,24	,	124092	,	-22446	,	-24805	,	4.664455	,	0
39,24	,	124108	,	-22462	,	-24797	,	3.722815	,	0
39,24	,	124140	,	-22453	,	-24796	,	3.0434678	,	0
39,24	,	124156	,	-22461	,	-24813	,	2.3029184	,	0
39,24	,	124188	,	-22461	,	-24793	,	1.3836441	,	0
39,24	,	124204	,	-22470	,	-24821	,	0.25024748	,	0
39,24	,	124220	,	-22471	,	-24818	,	-1.118194	,	0
39,24	,	124252	,	-22474	,	-24817	,	-2.6942225	,	0
39,24	,	124268	,	-22482	,	-24819	,	-4.3966827	,	0
39,24	,	124284	,	-22487	,	-24830	,	-6.1619935	,	0
39,24	,	124316	,	-22502	,	-24835	,	-8.001472	,	0
39,24	,	124332	,	-22500	,	-24837	,	-9.960954	,	0
39,24	,	124364	,	-22508	,	-24841	,	-11.994516	,	0
39,24	,	124380	,	-22508	,	-24843	,	-13.9234295	,	0
39,24	,	124396	,	-22515	,	-24864	,	-15.537853	,	0
39,24	,	124428	,	-22527	,	-24838	,	-16.739944	,	0
39,24	,	124444	,	-22537	,	-24859	,	-17.641102	,	0
39,24	,	124460	,	-22509	,	-24848	,	-18.302877	,	0
39,24	,	124492	,	-22496	,	-24840	,	-18.300087	,	0
39,24	,	124508	,	-22490	,	-24822	,	-16.924381	,	0
39,24	,	124524	,	-22465	,	-24818	,	-13.74151	,	1
39,24	,	124556	,	-22455	,	-24811	,	-8.679819	,	4
39,24	,	124572	,	-22436	,	-24799	,	-1.9408588	,	9
39,24	,	124604	,	-22425	,	-24802	,	5.999558	,	15
39,24	,	124620	,	-22413	,	-24798	,	14.46227	,	22
39,24	,	124636	,	-22429	,	-24800	,	22.560326	,	30
39,24	,	124668	,	-22411	,	-24794	,	29.274448	,	38
39,24	,	124684	,	-22408	,	-24798	,	33.892555	,	44
39,24	,	124700	,	-22418	,	-24797	,	36.1961	,	48
39,24	,	124732	,	-22431	,	-24793	,	36.097683	,	49
39,24	,	124748	,	-22423	,	-24794	,	33.573654	,	46
39,24	,	124780	,	-22426	,	-24797	,	28.99754	,	41
39,24	,	124796	,	-22416	,	-24784	,	23.17834	,	35
39,24	,	124812	,	-22413	,	-24793	,	17.092949	,	28
39,24	,	124844	,	-22404	,	-24790	,	11.640251	,	20
39,24	,	124860	,	-22410	,	-24789	,	7.4248924	,	12
39,24	,	124876	,	-22410	,	-24798	,	4.5957403	,	6
39,24	,	124908	,	-22415	,	-24798	,	2.9134235	,	2
39,24	,	124924	,	-22426	,	-24796	,	1.9365127	,	0
39,24	,	124956	,	-22432	,	-24801	,	1.1345952	,	0
39,24	,	124972	,	-22432	,	-24794	,	0.07231784	,	0
39,24	,	124988	,	-22442	,	-24804	,	-1.4199116	,	0
39,25	,	125020	,	-22441	,	-24810	,	-3.3015308	,	0
39,25	,	125036	,	-22445	,	-24807	,	-5.4021754	,	0
39,25	,	125052	,	-22456	,	-24806	,	-7.5089707	,	0
39,25	,	125084	,	-22454	,	-24810	,	-9.488261	,	0
39,25	,	125100	,	-22463	,	-24821	,	-11.254018	,	0
39,25	,	125116	,	-22457	,	-24820	,	-12.689533	,	0
39,25	,	125148	,	-22473	,	-24814	,	-13.692912	,	0
39,25	,	125164	,	-22488	,	-24836	,	-14.371082	,	0
39,25	,	125196	,	-22497	,	-24830	,	-15.09255	,	0
39,25	,	125211	,	-22498	,	-24832	,	-16.156967	,	0
39,25	,	125228	,	-22507	,	-24839	,	-17.545612	,	0
39,25	,	125260	,	-22515	,	-24849	,	-19.067024	,	0
39,25	,	125275	,	-22499	,	-24839	,	-20.443905	,	0
39,25	,	125292	,	-22488	,	-24833	,	-21.152817	,	0
39,25	,	125324	,	-22454	,	-24820	,	-20.407066	,	0
39,25	,	125340	,	-22437	,	-24815	,	-17.398516	,	0
39,25	,	125371	,	-22441	,	-24804	,	-11.799091	,	3
39,25	,	125387	,	-22425	,	-24800	,	-4.1383114	,	8
39,25	,	125403	,	-22423	,	-24787	,	4.5062857	,	15
39,25	,	125435	,	-22417	,	-24794	,	13.004509	,	23
39,25	,	125452	,	-22409	,	-24798	,	20.411633	,	31
39,25	,	125468	,	-22415	,	-24796	,	26.075686	,	38
39,25	,	125500	,	-22412	,	-24798	,	29.594719	,	43
39,25	,	125515	,	-22425	,	-24801	,	30.761105	,	46
39,25	,	125531	,	-22426	,	-24809	,	29.56604	,	47
39,25	,	125563	,	-22421	,	-24806	,	26.285847	,	44
39,25	,	125579	,	-22425	,	-24823	,	21.544918	,	39
39,25	,	125611	,	-22422	,	-24790	,	16.126831	,	32
39,25	,	125628	,	-22413	,	-24801	,	10.788846	,	24
39,25	,	125644	,	-22425	,	-24793	,	6.1497	,	16
39,25	,	125675	,	-22418	,	-24789	,	2.5165048	,	9
39,25	,	125691	,	-22423	,	-24793	,	-0.08152962	,	4
39,25	,	125707	,	-22427	,	-24789	,	-1.7572341	,	1
39,25	,	125740	,	-22424	,	-24800	,	-2.7227743	,	0
39,25	,	125756	,	-22438	,	-24794	,	-3.2408884	,	0
39,25	,	125787	,	-22438	,	-24816	,	-3.6194544	,	0
39,25	,	125803	,	-22454	,	-24805	,	-4.1853123	,	0
39,25	,	125819	,	-22448	,	-24823	,	-5.1649694	,	0
39,25	,	125851	,	-22455	,	-24823	,	-6.552706	,	0
39,25	,	125867	,	-22460	,	-24836	,	-8.153272	,	0
39,25	,	125884	,	-22475	,	-24832	,	-9.823659	,	0
39,25	,	125915	,	-22467	,	-24828	,	-11.52054	,	0
39,25	,	125931	,	-22467	,	-24834	,	-13.068469	,	0
39,25	,	125948	,	-22492	,	-24841	,	-14.244804	,	0
39,25	,	125979	,	-22490	,	-24835	,	-15.123945	,	0
39,26	,	125995	,	-22498	,	-24846	,	-15.932478	,	0
39,26	,	126027	,	-22507	,	-24847	,	-16.76411	,	0
39,26	,	126043	,	-22508	,	-24849	,	-17.616863	,	0
39,26	,	126060	,	-22510	,	-24874	,	-18.3964	,	0
39,26	,	126091	,	-22512	,	-24838	,	-18.913414	,	0
39,26	,	126107	,	-22495	,	-24844	,	-18.910614	,	0
39,26	,	126139	,	-22467	,	-24828	,	-17.912285	,	0
39,26	,	126155	,	-22447	,	-24818	,	-15.211881	,	0
39,26	,	126171	,	-22441	,	-24807	,	-10.324955	,	2
39,26	,	126203	,	-22431	,	-24807	,	-3.4462547	,	6
39,26	,	126219	,	-22427	,	-24807	,	4.612709	,	12
39,26	,	126235	,	-22426	,	-24815	,	12.771381	,	20
39,26	,	126267	,	-22426	,	-24798	,	19.957142	,	28
39,26	,	126283	,	-22416	,	-24798	,	25.36494	,	35
39,26	,	126299	,	-22423	,	-24811	,	28.622368	,	40
39,26	,	126331	,	-22415	,	-24787	,	29.713842	,	43
39,26	,	126347	,	-22428	,	-24807	,	28.83279	,	44
39,26	,	126379	,	-22427	,	-24796	,	26.262917	,	42
39,26	,	126395	,	-22427	,	-24799	,	22.367664	,	38
39,26	,	126411	,	-22424	,	-24810	,	17.670288	,	32
39,26	,	126443	,	-22422	,	-24798	,	12.796174	,	24
39,26	,	126459	,	-22423	,	-24804	,	8.302853	,	16
39,26	,	126475	,	-22416	,	-24804	,	4.587242	,	9
39,26	,	126507	,	-22412	,	-24802	,	1.9173722	,	4
39,26	,	126523	,	-22421	,	-24815	,	0.38377333	,	1
39,26	,	126539	,	-22431	,	-24825	,	-0.27023864	,	0
39,26	,	126571	,	-22422	,	-24794	,	-0.52691793	,	0
39,26	,	126587	,	-22435	,	-24816	,	-0.7557499	,	0
39,26	,	126619	,	-22443	,	-24813	,	-1.2027869	,	0
39,26	,	126635	,	-22447	,	-24818	,	-2.0981472	,	0
39,26	,	126651	,	-22450	,	-24820	,	-3.5256834	,	0
39,26	,	126683	,	-22458	,	-24819	,	-5.3700194	,	0
39,26	,	126699	,	-22454	,	-24826	,	-7.412533	,	0
39,26	,	126715	,	-22471	,	-24828	,	-9.4236145	,	0
39,26	,	126747	,	-22483	,	-24837	,	-11.344482	,	0
39,26	,	126763	,	-22468	,	-24835	,	-13.218472	,	0
39,26	,	126795	,	-22484	,	-24859	,	-14.884911	,	0
39,26	,	126811	,	-22481	,	-24839	,	-16.099533	,	0
39,26	,	126827	,	-22502	,	-24857	,	-16.840212	,	0
39,26	,	126859	,	-22512	,	-24874	,	-17.359343	,	0
39,26	,	126875	,	-22508	,	-24868	,	-17.961416	,	0
39,26	,	126891	,	-22519	,	-24872	,	-18.694805	,	0
39,26	,	126923	,	-22524	,	-24869	,	-19.425724	,	0
39,26	,	126939	,	-22531	,	-24873	,	-20.063793	,	0
39,26	,	126971	,	-22525	,	-24868	,	-20.516073	,	0
39,26	,	126987	,	-22506	,	-24857	,	-20.487635	,	0
39,27	,	127003	,	-22493	,	-24848	,	-19.417767	,	0
39,27	,	127035	,	-22470	,	-24842	,	-16.70401	,	1
39,27	,	127051	,	-22458	,	-24820	,	-11.990985	,	3
39,27	,	127067	,	-22443	,	-24826	,	-5.3461304	,	7
39,27	,	127099	,	-22445	,	-24823	,	2.6651511	,	13
39,27	,	127115	,	-22439	,	-24823	,	11.060521	,	21
39,27	,	127131	,	-22443	,	-24828	,	18.710213	,	29
39,27	,	127163	,	-22444	,	-24825	,	24.632637	,	36
39,27	,	127179	,	-22444	,	-24823	,	28.19202	,	41
39,27	,	127211	,	-22459	,	-24831	,	29.146694	,	44
39,27	,	127227	,	-22442	,	-24825	,	27.626377	,	43
39,27	,	127243	,	-22444	,	-24843	,	24.20488	,	41
39,27	,	127275	,	-22458	,	-24836	,	19.679728	,	37
39,27	,	127291	,	-22447	,	-24828	,	14.677137	,	31
39,27	,	127307	,	-22449	,	-24833	,	9.7138	,	23
39,27	,	127339	,	-22459	,	-24839	,	5.2458153	,	15
39,27	,	127355	,	-22449	,	-24830	,	1.5156918	,	8
39,27	,	127387	,	-22458	,	-24822	,	-1.3689189	,	3
39,27	,	127403	,	-22451	,	-24831	,	-3.3622494	,	0
39,27	,	127419	,	-22458	,	-24828	,	-4.5180297	,	0
39,27	,	127450	,	-22454	,	-24835	,	-4.9733286	,	0
39,27	,	127466	,	-22462	,	-24841	,	-4.9250603	,	0
39,27	,	127482	,	-22466	,	-24849	,	-4.629817	,	0
39,27	,	127515	,	-22477	,	-24846	,	-4.4065857	,	0
39,27	,	127531	,	-22490	,	-24853	,	-4.6152544	,	0
39,27	,	127547	,	-22494	,	-24862	,	-5.5578003	,	0
39,27	,	127579	,	-22501	,	-24867	,	-7.3079777	,	0
39,27	,	127595	,	-22513	,	-24864	,	-9.707783	,	0
39,27	,	127626	,	-22523	,	-24866	,	-12.551168	,	0
39,27	,	127642	,	-22529	,	-24865	,	-15.64416	,	0
39,27	,	127659	,	-22530	,	-24876	,	-18.709507	,	0
39,27	,	127691	,	-22533	,	-24874	,	-21.358068	,	0
39,27	,	127707	,	-22541	,	-24870	,	-23.23907	,	0
39,27	,	127723	,	-22543	,	-24888	,	-24.202282	,	0
39,27	,	127755	,	-22549	,	-24871	,	-24.287033	,	0
39,27	,	127771	,	-22560	,	-24897	,	-23.67662	,	0
39,27	,	127802	,	-22568	,	-24903	,	-22.695845	,	0
39,27	,	127818	,	-22579	,	-24900	,	-21.724918	,	0
39,27	,	127834	,	-22576	,	-24903	,	-21.019718	,	0
39,27	,	127866	,	-22563	,	-24890	,	-20.492584	,	0
39,27	,	127883	,	-22536	,	-24868	,	-19.57481	,	0
39,27	,	127899	,	-22523	,	-24866	,	-17.404135	,	0
39,27	,	127931	,	-22512	,	-24859	,	-13.355326	,	2
39,27	,	127947	,	-22509	,	-24855	,	-7.4603786	,	6
39,27	,	127962	,	-22503	,	-24872	,	-0.36715794	,	11
39,28	,	127994	,	-22500	,	-24844	,	6.9923677	,	18
39,28	,	128010	,	-22496	,	-24861	,	13.725108	,	25
39,28	,	128042	,	-22497	,	-24858	,	19.140928	,	31
39,28	,	128059	,	-22498	,	-24858	,	22.781048	,	36
39,28	,	128075	,	-22503	,	-24854	,	24.411774	,	39
39,28	,	128107	,	-22500	,	-24855	,	24.047297	,	40
39,28	,	128123	,	-22510	,	-24855	,	21.943245	,	38
39,28	,	128139	,	-22497	,	-24867	,	18.546253	,	34
39,28	,	128170	,	-22501	,	-24859	,	14.470357	,	29
39,28	,	128186	,	-22501	,	-24864	,	10.341932	,	22
39,28	,	128218	,	-22504	,	-24877	,	6.5781546	,	15
39,28	,	128234	,	-22506	,	-24850	,	3.3752031	,	9
39,28	,	128250	,	-22503	,	-24865	,	0.81230164	,	4
39,28	,	128283	,	-22513	,	-24855	,	-1.115597	,	1
39,28	,	128298	,	-22522	,	-24871	,	-2.5714238	,	0
39,28	,	128314	,	-22523	,	-24863	,	-3.8469245	,	0
39,28	,	128346	,	-22523	,	-24868	,	-5.1296506	,	0
39,28	,	128362	,	-22524	,	-24870	,	-6.3764853	,	0
39,28	,	128378	,	-22527	,	-24865	,	-7.4309254	,	0
39,28	,	128410	,	-22525	,	-24887	,	-8.161581	,	0
39,28	,	128426	,	-22532	,	-24879	,	-8.513803	,	0
39,28	,	128458	,	-22543	,	-24904	,	-8.588608	,	0
39,28	,	128474	,	-22536	,	-24879	,	-8.603851	,	0
39,28	,	128490	,	-22551	,	-24899	,	-8.705709	,	0
39,28	,	128522	,	-22557	,	-24899	,	-9.000657	,	0
39,28	,	128538	,	-22576	,	-24908	,	-9.697554	,	0
39,28	,	128554	,	-22571	,	-24905	,	-10.985895	,	0
39,28	,	128586	,	-22584	,	-24908	,	-12.813486	,	0
39,28	,	128602	,	-22585	,	-24915	,	-14.917961	,	0
39,28	,	128634	,	-22600	,	-24914	,	-17.036888	,	0
39,28	,	128650	,	-22602	,	-24925	,	-19.011951	,	0
39,28	,	128666	,	-22608	,	-24924	,	-20.729183	,	0
39,28	,	128698	,	-22601	,	-24926	,	-21.99712	,	0
39,28	,	128714	,	-22595	,	-24901	,	-22.491478	,	0
39,28	,	128730	,	-22547	,	-24891	,	-21.650307	,	0
39,28	,	128762	,	-22535	,	-24884	,	-18.643768	,	0
39,28	,	128778	,	-22521	,	-24879	,	-12.905799	,	3
39,28	,	128810	,	-22527	,	-24869	,	-4.7757616	,	8
39,28	,	128826	,	-22532	,	-24879	,	4.498927	,	16
39,28	,	128842	,	-22520	,	-24872	,	13.346698	,	25
39,28	,	128874	,	-22530	,	-24864	,	20.523197	,	33
39,28	,	128890	,	-22521	,	-24885	,	25.321453	,	40
39,28	,	128906	,	-22525	,	-24869	,	27.527916	,	44
39,28	,	128938	,	-22531	,	-24882	,	27.31537	,	46
39,28	,	128954	,	-22530	,	-24861	,	25.056515	,	46
39,28	,	128970	,	-22536	,	-24875	,	21.25607	,	43
39,29	,	129002	,	-22526	,	-24872	,	16.539404	,	38
39,29	,	129018	,	-22526	,	-24877	,	11.615218	,	30
39,29	,	129050	,	-22520	,	-24883	,	7.1638107	,	21
39,29	,	129066	,	-22516	,	-24877	,	3.6930237	,	13
39,29	,	129082	,	-22526	,	-24873	,	1.4287629	,	6
39,29	,	129114	,	-22535	,	-24875	,	0.18324494	,	2
39,29	,	129130	,	-22528	,	-24879	,	-0.50561666	,	0
39,29	,	129146	,	-22538	,	-24871	,	-1.0053498	,	0
39,29	,	129178	,	-22539	,	-24900	,	-1.5224587	,	0
39,29	,	129194	,	-22542	,	-24862	,	-2.1924682	,	0
39,29	,	129226	,	-22554	,	-24881	,	-3.0932317	,	0
39,29	,	129242	,	-22549	,	-24873	,	-4.2659965	,	0
39,29	,	129258	,	-22547	,	-24882	,	-5.602999	,	0
39,29	,	129290	,	-22554	,	-24890	,	-6.8356733	,	0
39,29	,	129306	,	-22573	,	-24901	,	-7.8628073	,	0
39,29	,	129322	,	-22566	,	-24903	,	-8.85841	,	0
39,29	,	129354	,	-22581	,	-24900	,	-9.972517	,	0
39,29	,	129370	,	-22580	,	-24904	,	-11.207201	,	0
39,29	,	129386	,	-22583	,	-24913	,	-12.475187	,	0
39,29	,	129418	,	-22603	,	-24927	,	-13.687119	,	0
39,29	,	129434	,	-22602	,	-24901	,	-14.893299	,	0
39,29	,	129465	,	-22611	,	-24924	,	-16.167887	,	0
39,29	,	129482	,	-22609	,	-24921	,	-17.418346	,	0
39,29	,	129498	,	-22600	,	-24914	,	-18.361977	,	0
39,29	,	129530	,	-22571	,	-24901	,	-18.451218	,	0
39,29	,	129546	,	-22560	,	-24874	,	-16.94112	,	0
39,29	,	129562	,	-22537	,	-24875	,	-13.269809	,	1
39,29	,	129594	,	-22522	,	-24869	,	-7.3303165	,	4
39,29	,	129610	,	-22509	,	-24861	,	0.5266218	,	9
39,29	,	129642	,	-22505	,	-24864	,	9.526168	,	16
39,29	,	129658	,	-22506	,	-24879	,	18.557083	,	24
39,29	,	129674	,	-22501	,	-24836	,	26.430645	,	33
39,29	,	129706	,	-22508	,	-24851	,	32.188934	,	40
39,29	,	129722	,	-22506	,	-24848	,	35.25931	,	45
39,29	,	129738	,	-22506	,	-24855	,	35.517105	,	48
39,29	,	129770	,	-22498	,	-24849	,	33.324463	,	47
39,29	,	129786	,	-22504	,	-24850	,	29.385063	,	44
39,29	,	129802	,	-22506	,	-24848	,	24.430805	,	39
39,29	,	129833	,	-22498	,	-24849	,	19.080677	,	32
39,29	,	129849	,	-22502	,	-24847	,	13.898686	,	24
39,29	,	129881	,	-22483	,	-24848	,	9.406679	,	15
39,29	,	129898	,	-22482	,	-24865	,	6.0765963	,	8
39,29	,	129914	,	-22480	,	-24825	,	4.1941133	,	3
39,29	,	129946	,	-22485	,	-24832	,	3.6467881	,	0
39,29	,	129961	,	-22490	,	-24841	,	3.9568682	,	0
39,29	,	129978	,	-22486	,	-24836	,	4.5437336	,	0
39,30	,	130010	,	-22495	,	-24841	,	4.962601	,	0
39,30	,	130025	,	-22497	,	-24861	,	4.924036	,	0
39,30	,	130057	,	-22506	,	-24848	,	4.2332907	,	0
39,30	,	130074	,	-22511	,	-24850	,	2.7996361	,	0
39,30	,	130090	,	-22521	,	-24845	,	0.6400349	,	0
39,30	,	130122	,	-22514	,	-24857	,	-2.0816884	,	0
39,30	,	130137	,	-22516	,	-24870	,	-4.9839945	,	0
39,30	,	130154	,	-22523	,	-24855	,	-7.607479	,	0
39,30	,	130185	,	-22518	,	-24866	,	-9.643955	,	0
39,30	,	130202	,	-22533	,	-24874	,	-10.987491	,	0
39,30	,	130233	,	-22535	,	-24869	,	-11.752892	,	0
39,30	,	130249	,	-22541	,	-24881	,	-12.192717	,	0
39,30	,	130265	,	-22539	,	-24879	,	-12.476993	,	0
39,30	,	130297	,	-22550	,	-24881	,	-12.655073	,	0
39,30	,	130313	,	-22540	,	-24869	,	-12.72384	,	0
39,30	,	130329	,	-22527	,	-24864	,	-12.507616	,	0
39,30	,	130361	,	-22506	,	-24851	,	-11.535303	,	0
39,30	,	130377	,	-22489	,	-24848	,	-9.205782	,	0
39,30	,	130393	,	-22479	,	-24830	,	-5.141239	,	2
39,30	,	130425	,	-22438	,	-24821	,	0.6986499	,	6
39,30	,	130441	,	-22448	,	-24824	,	8.100037	,	11
39,30	,	130473	,	-22445	,	-24811	,	16.356941	,	18
39,30	,	130490	,	-22438	,	-24801	,	24.261826	,	26
39,30	,	130506	,	-22429	,	-24810	,	30.730045	,	33
39,30	,	130538	,	-22427	,	-24809	,	35.185257	,	39
39,30	,	130553	,	-22422	,	-24802	,	37.465107	,	43
39,30	,	130568	,	-22423	,	-24811	,	37.670025	,	45
39,30	,	130601	,	-22432	,	-24801	,	36.00757	,	43
39,30	,	130617	,	-22420	,	-24817	,	32.741405	,	39
39,30	,	130649	,	-22410	,	-24805	,	28.389008	,	34
39,30	,	130665	,	-22415	,	-24794	,	23.69604	,	27
39,30	,	130681	,	-22397	,	-24803	,	19.314304	,	19
39,30	,	130713	,	-22402	,	-24805	,	15.702162	,	12
39,30	,	130729	,	-22416	,	-24807	,	13.0004425	,	6
39,30	,	130745	,	-22418	,	-24800	,	10.885307	,	2
39,30	,	130777	,	-22414	,	-24807	,	8.907875	,	0
39,30	,	130793	,	-22423	,	-24806	,	6.8597636	,	0
39,30	,	130809	,	-22421	,	-24799	,	4.710251	,	0
39,30	,	130841	,	-22419	,	-24812	,	2.5309043	,	0
39,30	,	130857	,	-22420	,	-24810	,	0.5146301	,	0
39,30	,	130889	,	-22427	,	-24814	,	-1.1677003	,	0
39,30	,	130905	,	-22437	,	-24817	,	-2.5516162	,	0
39,30	,	130921	,	-22445	,	-24815	,	-3.8743408	,	0
39,30	,	130953	,	-22451	,	-24828	,	-5.3986297	,	0
39,30	,	130969	,	-22459	,	-24828	,	-7.253686	,	0
39,30	,	130985	,	-22455	,	-24831	,	-9.369719	,	0
39,31	,	131017	,	-22468	,	-24832	,	-11.515407	,	0
39,31	,	131033	,	-22472	,	-24835	,	-13.481242	,	0
39,31	,	131065	,	-22474	,	-24840	,	-15.15972	,	0
39,31	,	131081	,	-22476	,	-24842	,	-16.436295	,	0
39,31	,	131097	,	-22485	,	-24847	,	-17.209835	,	0
39,31	,	131129	,	-22498	,	-24848	,	-17.556335	,	0
39,31	,	131145	,	-22515	,	-24858	,	-17.794672	,	0
39,31	,	131161	,	-22490	,	-24851	,	-18.18851	,	0
39,31	,	131193	,	-22472	,	-24836	,	-18.412836	,	0
39,31	,	131209	,	-22441	,	-24832	,	-17.517067	,	0
39,31	,	131225	,	-22413	,	-24816	,	-14.441825	,	0
39,31	,	131257	,	-22408	,	-24803	,	-8.599805	,	3
39,31	,	131273	,	-22393	,	-24789	,	-0.26883984	,	8
39,31	,	131305	,	-22386	,	-24788	,	9.536974	,	16
39,31	,	131321	,	-22385	,	-24790	,	19.508146	,	25
39,31	,	131337	,	-22371	,	-24785	,	28.39414	,	34
39,31	,	131369	,	-22367	,	-24789	,	35.319008	,	42
39,31	,	131385	,	-22375	,	-24777	,	39.814095	,	48
39,31	,	131401	,	-22363	,	-24780	,	41.665268	,	52
39,31	,	131433	,	-22377	,	-24781	,	40.939133	,	53
39,31	,	131449	,	-22372	,	-24780	,	37.944008	,	50
39,31	,	131481	,	-22380	,	-24776	,	33.13246	,	45
39,31	,	131497	,	-22365	,	-24776	,	27.145391	,	37
39,31	,	131513	,	-22356	,	-24767	,	20.860867	,	28
39,31	,	131545	,	-22342	,	-24766	,	15.282801	,	19
39,31	,	131561	,	-22351	,	-24777	,	11.170889	,	11
39,31	,	131577	,	-22359	,	-24762	,	8.639349	,	5
39,31	,	131609	,	-22348	,	-24765	,	7.2581854	,	1
39,31	,	131626	,	-22353	,	-24775	,	6.5512166	,	0
39,31	,	131657	,	-22358	,	-24764	,	6.1622224	,	0
39,31	,	131673	,	-22367	,	-24767	,	5.719867	,	0
39,31	,	131689	,	-22363	,	-24779	,	4.900281	,	0
39,31	,	131721	,	-22371	,	-24787	,	3.5886164	,	0
39,31	,	131737	,	-22371	,	-24796	,	1.8599055	,	0
39,31	,	131753	,	-22376	,	-24790	,	-0.13357067	,	0
39,31	,	131785	,	-22382	,	-24792	,	-2.2402363	,	0
39,31	,	131801	,	-22390	,	-24801	,	-4.379258	,	0
39,31	,	131817	,	-22394	,	-24785	,	-6.535368	,	0
39,31	,	131849	,	-22400	,	-24798	,	-8.678504	,	0
39,31	,	131865	,	-22405	,	-24791	,	-10.734686	,	0
39,31	,	131897	,	-22412	,	-24806	,	-12.621105	,	0
39,31	,	131913	,	-22415	,	-24802	,	-14.267389	,	0
39,31	,	131929	,	-22417	,	-24808	,	-15.592594	,	0
39,31	,	131961	,	-22426	,	-24820	,	-16.523619	,	0
39,31	,	131977	,	-22439	,	-24819	,	-17.11448	,	0
39,32	,	131993	,	-22444	,	-24825	,	-17.576918	,	0
39,32	,	132025	,	-22432	,	-24814	,	-18.019958	,	0
39,32	,	132041	,	-22418	,	-24827	,	-18.14262	,	0
39,32	,	132072	,	-22392	,	-24782	,	-17.255623	,	0
39,32	,	132089	,	-22336	,	-24781	,	-14.410722	,	0
39,32	,	132105	,	-22334	,	-24768	,	-8.685978	,	2
39,32	,	132137	,	-22321	,	-24767	,	0.04346466	,	7
39,32	,	132153	,	-22318	,	-24760	,	10.749512	,	15
39,32	,	132169	,	-22309	,	-24757	,	21.824589	,	25
39,32	,	132201	,	-22310	,	-24761	,	31.722921	,	36
39,32	,	132217	,	-22301	,	-24756	,	39.284435	,	45
39,32	,	132232	,	-22302	,	-24748	,	43.884724	,	52
39,32	,	132265	,	-22310	,	-24754	,	45.355766	,	56
39,32	,	132280	,	-22310	,	-24781	,	43.812286	,	57
39,32	,	132312	,	-22312	,	-24734	,	39.652077	,	55
39,32	,	132328	,	-22300	,	-24745	,	33.629036	,	50
39,32	,	132345	,	-22300	,	-24751	,	26.765486	,	42
39,32	,	132377	,	-22289	,	-24738	,	20.090847	,	32
39,32	,	132393	,	-22296	,	-24746	,	14.363991	,	21
39,32	,	132409	,	-22303	,	-24748	,	9.8771305	,	12
39,32	,	132440	,	-22301	,	-24741	,	6.495263	,	5
39,32	,	132456	,	-22305	,	-24756	,	3.9505558	,	1
39,32	,	132488	,	-22308	,	-24743	,	2.0059247	,	0
39,32	,	132504	,	-22299	,	-24748	,	0.49270678	,	0
39,32	,	132521	,	-22315	,	-24764	,	-0.6699213	,	0
39,32	,	132553	,	-22312	,	-24744	,	-1.6006054	,	0
39,32	,	132569	,	-22322	,	-24760	,	-2.4852378	,	0
39,32	,	132585	,	-22324	,	-24766	,	-3.4765544	,	0
39,32	,	132616	,	-22335	,	-24770	,	-4.6797867	,	0
39,32	,	132632	,	-22348	,	-24764	,	-6.2086043	,	0
39,32	,	132648	,	-22341	,	-24781	,	-8.127574	,	0
39,32	,	132680	,	-22350	,	-24775	,	-10.2765045	,	0
39,32	,	132696	,	-22352	,	-24781	,	-12.342981	,	0
39,32	,	132729	,	-22364	,	-24792	,	-14.112032	,	0
39,32	,	132745	,	-22371	,	-24783	,	-15.560154	,	0
39,32	,	132760	,	-22365	,	-24810	,	-16.726248	,	0
39,32	,	132792	,	-22369	,	-24787	,	-17.506636	,	0
39,32	,	132808	,	-22345	,	-24784	,	-17.601017	,	0
39,32	,	132824	,	-22325	,	-24774	,	-16.496895	,	0
39,32	,	132857	,	-22305	,	-24753	,	-13.577895	,	1
39,32	,	132872	,	-22284	,	-24752	,	-8.458331	,	3
39,32	,	132904	,	-22269	,	-24745	,	-1.2049713	,	8
39,32	,	132920	,	-22261	,	-24729	,	7.6243777	,	15
39,32	,	132936	,	-22248	,	-24736	,	17.087286	,	23
39,32	,	132968	,	-22255	,	-24730	,	26.072557	,	32
39,32	,	132984	,	-22243	,	-24727	,	33.508846	,	40
39,33	,	133000	,	-22240	,	-24746	,	38.64769	,	47
39,33	,	133032	,	-22241	,	-24719	,	41.208607	,	52
39,33	,	133048	,	-22245	,	-24731	,	41.212875	,	53
39,33	,	133064	,	-22256	,	-24723	,	38.8158	,	51
39,33	,	133096	,	-22231	,	-24721	,	34.41432	,	46
39,33	,	133112	,	-22230	,	-24725	,	28.860582	,	39
39,33	,	133144	,	-22234	,	-24720	,	23.17182	,	31
39,33	,	133160	,	-22228	,	-24730	,	18.00871	,	22
39,33	,	133176	,	-22228	,	-24727	,	13.672226	,	14
39,33	,	133208	,	-22218	,	-24728	,	10.328639	,	7
39,33	,	133224	,	-22228	,	-24726	,	8.022652	,	2
39,33	,	133240	,	-22239	,	-24744	,	6.513349	,	0
39,33	,	133272	,	-22232	,	-24717	,	5.3306026	,	0
39,33	,	133288	,	-22248	,	-24745	,	4.09155	,	0
39,33	,	133320	,	-22234	,	-24735	,	2.6267262	,	0
39,33	,	133336	,	-22257	,	-24739	,	0.91931915	,	0
39,33	,	133352	,	-22249	,	-24744	,	-1.006249	,	0
39,33	,	133384	,	-22261	,	-24749	,	-3.102057	,	0
39,33	,	133400	,	-22274	,	-24747	,	-5.3126454	,	0
39,33	,	133416	,	-22264	,	-24752	,	-7.611157	,	0
39,33	,	133448	,	-22268	,	-24753	,	-9.810726	,	0
39,33	,	133464	,	-22279	,	-24758	,	-11.62039	,	0
39,33	,	133496	,	-22283	,	-24771	,	-12.961983	,	0
39,33	,	133512	,	-22291	,	-24760	,	-13.956367	,	0
39,33	,	133528	,	-22313	,	-24764	,	-14.828723	,	0
39,33	,	133560	,	-22303	,	-24770	,	-15.839441	,	0
39,33	,	133576	,	-22308	,	-24769	,	-16.994822	,	0
39,33	,	133592	,	-22315	,	-24770	,	-18.028244	,	0
39,33	,	133624	,	-22308	,	-24752	,	-18.682056	,	0
39,33	,	133640	,	-22290	,	-24752	,	-18.64976	,	0
39,33	,	133656	,	-22260	,	-24741	,	-17.358986	,	0
39,33	,	133688	,	-22223	,	-24727	,	-14.010724	,	1
39,33	,	133704	,	-22222	,	-24720	,	-8.008987	,	4
39,33	,	133736	,	-22203	,	-24737	,	0.46319962	,	10
39,33	,	133752	,	-22210	,	-24701	,	10.381508	,	18
39,33	,	133768	,	-22197	,	-24707	,	20.318459	,	27
39,33	,	133800	,	-22190	,	-24700	,	28.976797	,	36
39,33	,	133816	,	-22186	,	-24711	,	35.535114	,	44
39,33	,	133832	,	-22189	,	-24711	,	39.589943	,	50
39,33	,	133864	,	-22185	,	-24712	,	41.006187	,	54
39,33	,	133880	,	-22185	,	-24706	,	39.93694	,	54
39,33	,	133912	,	-22188	,	-24713	,	36.794106	,	51
39,33	,	133928	,	-22183	,	-24708	,	32.135067	,	45
39,33	,	133944	,	-22178	,	-24703	,	26.632912	,	37
39,33	,	133976	,	-22176	,	-24714	,	21.02086	,	28
39,34	,	133992	,	-22176	,	-24698	,	15.903943	,	19
39,34	,	134008	,	-22181	,	-24703	,	11.599115	,	11
39,34	,	134040	,	-22188	,	-24711	,	8.104953	,	5
39,34	,	134056	,	-22178	,	-24705	,	5.259985	,	1
39,34	,	134072	,	-22181	,	-24724	,	2.9889174	,	0
39,34	,	134104	,	-22185	,	-24715	,	1.2914746	,	0
39,34	,	134120	,	-22202	,	-24708	,	0.0045633316	,	0
39,34	,	134152	,	-22197	,	-24710	,	-1.2113677	,	0
39,34	,	134168	,	-22206	,	-24717	,	-2.6014159	,	0
39,34	,	134184	,	-22210	,	-24718	,	-4.2109623	,	0
39,34	,	134216	,	-22224	,	-24726	,	-6.0415435	,	0
39,34	,	134232	,	-22228	,	-24741	,	-8.127585	,	0
39,34	,	134248	,	-22235	,	-24741	,	-10.445705	,	0
39,34	,	134280	,	-22240	,	-24742	,	-12.855347	,	0
39,34	,	134296	,	-22243	,	-24753	,	-15.149027	,	0
39,34	,	134327	,	-22251	,	-24753	,	-17.120516	,	0
39,34	,	134344	,	-22258	,	-24754	,	-18.642076	,	0
39,34	,	134359	,	-22260	,	-24745	,	-19.686447	,	0
39,34	,	134392	,	-22270	,	-24770	,	-20.277868	,	0
39,34	,	134408	,	-22284	,	-24770	,	-20.544338	,	0
39,34	,	134424	,	-22292	,	-24779	,	-20.756132	,	0
39,34	,	134456	,	-22286	,	-24775	,	-21.093718	,	0
39,34	,	134472	,	-22283	,	-24772	,	-21.382114	,	0
39,34	,	134488	,	-22236	,	-24740	,	-20.987484	,	0
39,34	,	134520	,	-22216	,	-24733	,	-18.858978	,	0
39,34	,	134536	,	-22210	,	-24725	,	-14.120914	,	2
39,34	,	134568	,	-22188	,	-24726	,	-6.7636976	,	6
39,34	,	134584	,	-22187	,	-24719	,	2.4463177	,	13
39,34	,	134600	,	-22185	,	-24717	,	12.322795	,	22
39,34	,	134632	,	-22170	,	-24716	,	21.567467	,	31
39,34	,	134648	,	-22178	,	-24723	,	29.147907	,	40
39,34	,	134664	,	-22171	,	-24719	,	34.392067	,	47
39,34	,	134695	,	-22169	,	-24734	,	36.99255	,	52
39,34	,	134712	,	-22168	,	-24724	,	37.063065	,	54
39,34	,	134743	,	-22182	,	-24727	,	34.942787	,	52
39,34	,	134759	,	-22180	,	-24722	,	30.979908	,	48
39,34	,	134775	,	-22183	,	-24733	,	25.610205	,	41
39,34	,	134807	,	-22176	,	-24733	,	19.475918	,	32
39,34	,	134823	,	-22189	,	-24718	,	13.276992	,	23
39,34	,	134839	,	-22186	,	-24724	,	7.5218163	,	14
39,34	,	134872	,	-22176	,	-24727	,	2.5735016	,	7
39,34	,	134888	,	-22183	,	-24727	,	-1.2177668	,	2
39,34	,	134904	,	-22185	,	-24728	,	-3.6998281	,	0
39,34	,	134936	,	-22195	,	-24733	,	-5.0764265	,	0
39,34	,	134952	,	-22197	,	-24741	,	-5.7664695	,	0
39,34	,	134983	,	-22211	,	-24736	,	-6.221326	,	0
39,35	,	134999	,	-22217	,	-24752	,	-6.849368	,	0
39,35	,	135015	,	-22222	,	-24757	,	-7.924863	,	0
39,35	,	135047	,	-22231	,	-24760	,	-9.493351	,	0
39,35	,	135063	,	-22233	,	-24768	,	-11.418018	,	0
39,35	,	135079	,	-22241	,	-24761	,	-13.473674	,	0
39,35	,	135112	,	-22253	,	-24767	,	-15.467741	,	0
39,35	,	135128	,	-22259	,	-24773	,	-17.340458	,	0
39,35	,	135159	,	-22272	,	-24785	,	-19.114944	,	0
39,35	,	135175	,	-22276	,	-24766	,	-20.814299	,	0
39,35	,	135191	,	-22290	,	-24794	,	-22.431797	,	0
39,35	,	135223	,	-22295	,	-24799	,	-23.94148	,	0
39,35	,	135239	,	-22317	,	-24808	,	-25.360252	,	0
39,35	,	135255	,	-22322	,	-24809	,	-26.782398	,	0
39,35	,	135287	,	-22328	,	-24813	,	-28.24482	,	0
39,35	,	135304	,	-22332	,	-24822	,	-29.583069	,	0
39,35	,	135335	,	-22333	,	-24813	,	-30.500557	,	0
39,35	,	135351	,	-22309	,	-24800	,	-30.583649	,	0
39,35	,	135367	,	-22295	,	-24788	,	-29.213337	,	0
39,35	,	135399	,	-22270	,	-24780	,	-25.736013	,	1
39,35	,	135415	,	-22257	,	-24763	,	-19.798717	,	4
39,35	,	135431	,	-22251	,	-24761	,	-11.604667	,	9
39,35	,	135463	,	-22227	,	-24765	,	-1.8944683	,	17
39,35	,	135479	,	-22238	,	-24762	,	8.322954	,	26
39,35	,	135495	,	-22229	,	-24753	,	17.904657	,	36
39,35	,	135527	,	-22233	,	-24760	,	25.746553	,	45
39,35	,	135543	,	-22241	,	-24772	,	31.036016	,	52
39,35	,	135575	,	-22245	,	-24760	,	33.308243	,	57
39,35	,	135591	,	-22254	,	-24774	,	32.487633	,	58
39,35	,	135607	,	-22251	,	-24779	,	28.931686	,	55
39,35	,	135639	,	-22238	,	-24777	,	23.455254	,	50
39,35	,	135655	,	-22250	,	-24772	,	17.169712	,	42
39,35	,	135671	,	-22250	,	-24758	,	11.00907	,	33
39,35	,	135703	,	-22247	,	-24773	,	5.527522	,	23
39,35	,	135719	,	-22251	,	-24768	,	1.0604229	,	14
39,35	,	135751	,	-22249	,	-24763	,	-2.224235	,	7
39,35	,	135767	,	-22244	,	-24778	,	-4.302439	,	2
39,35	,	135783	,	-22259	,	-24780	,	-5.2876754	,	0
39,35	,	135815	,	-22268	,	-24777	,	-5.5643024	,	0
39,35	,	135831	,	-22274	,	-24785	,	-5.715395	,	0
39,35	,	135847	,	-22265	,	-24786	,	-6.130987	,	0
39,35	,	135879	,	-22271	,	-24794	,	-6.7828765	,	0
39,35	,	135895	,	-22275	,	-24776	,	-7.457103	,	0
39,35	,	135911	,	-22281	,	-24791	,	-8.052023	,	0
39,35	,	135943	,	-22297	,	-24804	,	-8.655321	,	0
39,35	,	135959	,	-22310	,	-24806	,	-9.541227	,	0
39,35	,	135991	,	-22311	,	-24810	,	-10.98697	,	0
39,36	,	136007	,	-22312	,	-24812	,	-12.957256	,	0
39,36	,	136023	,	-22321	,	-24820	,	-15.109163	,	0
39,36	,	136055	,	-22331	,	-24829	,	-17.1198	,	0
39,36	,	136071	,	-22327	,	-24828	,	-18.819809	,	0
39,36	,	136087	,	-22336	,	-24825	,	-20.064354	,	0
39,36	,	136119	,	-22346	,	-24837	,	-20.772995	,	0
39,36	,	136135	,	-22344	,	-24822	,	-21.010399	,	0
39,36	,	136167	,	-22346	,	-24832	,	-20.82565	,	0
39,36	,	136183	,	-22300	,	-24814	,	-19.956318	,	0
39,36	,	136199	,	-22278	,	-24806	,	-17.62491	,	0
39,36	,	136231	,	-22286	,	-24806	,	-13.076486	,	2
39,36	,	136247	,	-22263	,	-24786	,	-6.39425	,	6
39,36	,	136263	,	-22274	,	-24793	,	1.581892	,	12
39,36	,	136294	,	-22268	,	-24791	,	9.702357	,	19
39,36	,	136311	,	-22268	,	-24791	,	16.813313	,	27
39,36	,	136327	,	-22270	,	-24782	,	22.075417	,	34
39,36	,	136359	,	-22266	,	-24798	,	25.081104	,	39
39,36	,	136375	,	-22267	,	-24780	,	25.831503	,	42
39,36	,	136407	,	-22276	,	-24796	,	24.604427	,	42
39,36	,	136423	,	-22290	,	-24798	,	21.694246	,	40
39,36	,	136439	,	-22275	,	-24795	,	17.414898	,	36
39,36	,	136471	,	-22269	,	-24794	,	12.398841	,	30
39,36	,	136486	,	-22276	,	-24781	,	7.5128193	,	23
39,36	,	136502	,	-22271	,	-24785	,	3.3924675	,	15
39,36	,	136535	,	-22269	,	-24800	,	0.3256526	,	8
39,36	,	136551	,	-22264	,	-24794	,	-1.5738258	,	3
39,36	,	136582	,	-22275	,	-24802	,	-2.3625488	,	0
39,36	,	136599	,	-22278	,	-24818	,	-2.3659003	,	0
39,36	,	136614	,	-22286	,	-24794	,	-2.0874536	,	0
39,36	,	136647	,	-22303	,	-24812	,	-2.0492938	,	0
39,36	,	136663	,	-22306	,	-24805	,	-2.711363	,	0
39,36	,	136679	,	-22302	,	-24805	,	-4.2424126	,	0
39,36	,	136711	,	-22313	,	-24809	,	-6.392998	,	0
39,36	,	136726	,	-22324	,	-24823	,	-8.814842	,	0
39,36	,	136742	,	-22330	,	-24831	,	-11.332237	,	0
39,36	,	136774	,	-22332	,	-24817	,	-13.82162	,	0
39,36	,	136790	,	-22334	,	-24833	,	-16.059374	,	0
39,36	,	136822	,	-22345	,	-24833	,	-17.81549	,	0
39,36	,	136839	,	-22355	,	-24851	,	-19.049915	,	0
39,36	,	136854	,	-22359	,	-24827	,	-19.90519	,	0
39,36	,	136887	,	-22369	,	-24849	,	-20.53189	,	0
39,36	,	136903	,	-22375	,	-24859	,	-21.027506	,	0
39,36	,	136919	,	-22372	,	-24849	,	-21.408676	,	0
39,36	,	136951	,	-22353	,	-24833	,	-21.440834	,	0
39,36	,	136967	,	-22331	,	-24823	,	-20.5222	,	0
39,37	,	136998	,	-22323	,	-24814	,	-17.942902	,	0
39,37	,	137014	,	-22299	,	-24802	,	-13.318472	,	2
39,37	,	137031	,	-22283	,	-24799	,	-6.6930256	,	6
39,37	,	137063	,	-22295	,	-24797	,	1.4330273	,	12
39,37	,	137078	,	-22282	,	-24804	,	10.022843	,	20
39,37	,	137094	,	-22282	,	-24786	,	17.885185	,	28
39,37	,	137126	,	-22266	,	-24799	,	24.20342	,	35
39,37	,	137142	,	-22264	,	-24793	,	28.661873	,	41
39,37	,	137175	,	-22273	,	-24790	,	31.206123	,	45
39,37	,	137191	,	-22272	,	-24802	,	31.773243	,	47
39,37	,	137207	,	-22282	,	-24802	,	30.343792	,	45
39,37	,	137239	,	-22274	,	-24796	,	27.127068	,	41
39,37	,	137254	,	-22273	,	-24785	,	22.631985	,	35
39,37	,	137270	,	-22268	,	-24776	,	17.583645	,	27
39,37	,	137302	,	-22266	,	-24785	,	12.708749	,	19
39,37	,	137318	,	-22262	,	-24807	,	8.568399	,	12
39,37	,	137334	,	-22275	,	-24769	,	5.4261303	,	6
39,37	,	137366	,	-22275	,	-24789	,	3.1686053	,	2
39,37	,	137382	,	-22276	,	-24790	,	1.4928045	,	0
39,37	,	137415	,	-22277	,	-24791	,	0.17707801	,	0
39,37	,	137430	,	-22277	,	-24798	,	-0.8685608	,	0
39,37	,	137446	,	-22296	,	-24802	,	-1.7529881	,	0
39,37	,	137478	,	-22288	,	-24800	,	-2.6937327	,	0
39,37	,	137494	,	-22296	,	-24807	,	-3.8279667	,	0
39,37	,	137510	,	-22298	,	-24808	,	-5.1043587	,	0
39,37	,	137542	,	-22307	,	-24808	,	-6.443552	,	0
39,37	,	137558	,	-22311	,	-24835	,	-7.8273764	,	0
39,37	,	137590	,	-22313	,	-24805	,	-9.234197	,	0
39,37	,	137606	,	-22328	,	-24819	,	-10.625476	,	0
39,37	,	137622	,	-22331	,	-24824	,	-12.033	,	0
39,37	,	137654	,	-22345	,	-24834	,	-13.53934	,	0
39,37	,	137670	,	-22340	,	-24844	,	-15.146215	,	0
39,37	,	137686	,	-22367	,	-24839	,	-16.790154	,	0
39,37	,	137718	,	-22372	,	-24850	,	-18.524885	,	0
39,37	,	137734	,	-22357	,	-24840	,	-20.353992	,	0
39,37	,	137750	,	-22349	,	-24840	,	-21.816534	,	0
39,37	,	137782	,	-22322	,	-24821	,	-22.067337	,	0
39,37	,	137798	,	-22308	,	-24825	,	-20.274927	,	0
39,37	,	137830	,	-22286	,	-24781	,	-15.942124	,	1
39,37	,	137846	,	-22272	,	-24792	,	-9.090623	,	5
39,37	,	137862	,	-22251	,	-24790	,	-0.2156105	,	11
39,37	,	137894	,	-22248	,	-24776	,	9.844428	,	19
39,37	,	137910	,	-22251	,	-24786	,	19.943205	,	29
39,37	,	137926	,	-22238	,	-24782	,	28.810379	,	39
39,37	,	137958	,	-22239	,	-24783	,	35.482635	,	47
39,37	,	137974	,	-22242	,	-24786	,	39.464134	,	53
39,38	,	138006	,	-22248	,	-24778	,	40.560543	,	56
39,38	,	138022	,	-22251	,	-24783	,	38.82979	,	56
39,38	,	138038	,	-22250	,	-24793	,	34.664223	,	52
39,38	,	138070	,	-22244	,	-24774	,	28.806332	,	46
39,38	,	138086	,	-22241	,	-24777	,	22.217178	,	38
39,38	,	138102	,	-22244	,	-24775	,	15.805086	,	28
39,38	,	138134	,	-22244	,	-24788	,	10.173977	,	18
39,38	,	138150	,	-22241	,	-24785	,	5.6133137	,	10
39,38	,	138182	,	-22240	,	-24784	,	2.2388644	,	4
39,38	,	138198	,	-22252	,	-24784	,	-0.0096821785	,	1
39,38	,	138214	,	-22259	,	-24796	,	-1.4592125	,	0
39,38	,	138246	,	-22254	,	-24788	,	-2.5373082	,	0
39,38	,	138262	,	-22259	,	-24797	,	-3.4754703	,	0
39,38	,	138278	,	-22266	,	-24798	,	-4.3385763	,	0
39,38	,	138310	,	-22278	,	-24783	,	-5.2473354	,	0
39,38	,	138326	,	-22273	,	-24806	,	-6.3535156	,	0
39,38	,	138358	,	-22288	,	-24806	,	-7.6844807	,	0
39,38	,	138374	,	-22284	,	-24813	,	-9.166662	,	0
39,38	,	138390	,	-22298	,	-24818	,	-10.705836	,	0
39,38	,	138422	,	-22300	,	-24823	,	-12.227518	,	0
39,38	,	138438	,	-22298	,	-24825	,	-13.646355	,	0
39,38	,	138454	,	-22314	,	-24833	,	-14.840093	,	0
39,38	,	138486	,	-22322	,	-24830	,	-15.818081	,	0
39,38	,	138502	,	-22325	,	-24834	,	-16.729012	,	0
39,38	,	138518	,	-22338	,	-24832	,	-17.658789	,	0
39,38	,	138550	,	-22344	,	-24850	,	-18.632713	,	0
39,38	,	138566	,	-22354	,	-24838	,	-19.679564	,	0
39,38	,	138598	,	-22320	,	-24823	,	-20.610996	,	0
39,38	,	138614	,	-22294	,	-24811	,	-20.665615	,	0
39,38	,	138630	,	-22277	,	-24799	,	-18.727486	,	0
39,38	,	138662	,	-22278	,	-24792	,	-14.176758	,	1
39,38	,	138678	,	-22256	,	-24785	,	-7.3084736	,	5
39,38	,	138693	,	-22250	,	-24797	,	1.0557795	,	11
39,38	,	138726	,	-22243	,	-24792	,	9.957536	,	19
39,38	,	138742	,	-22257	,	-24797	,	18.31232	,	27
39,38	,	138774	,	-22241	,	-24777	,	25.036057	,	35
39,38	,	138790	,	-22249	,	-24789	,	29.430082	,	41
39,38	,	138805	,	-22249	,	-24791	,	31.285759	,	45
39,38	,	138837	,	-22242	,	-24793	,	30.749863	,	46
39,38	,	138853	,	-22253	,	-24787	,	28.255768	,	45
39,38	,	138870	,	-22245	,	-24794	,	24.368464	,	41
39,38	,	138902	,	-22248	,	-24782	,	19.67981	,	35
39,38	,	138918	,	-22237	,	-24783	,	14.8228445	,	27
39,38	,	138934	,	-22232	,	-24784	,	10.442716	,	19
39,38	,	138965	,	-22236	,	-24783	,	7.0455666	,	11
39,38	,	138982	,	-22245	,	-24797	,	4.7393823	,	5
39,39	,	139013	,	-22242	,	-24774	,	3.2419744	,	1
39,39	,	139029	,	-22248	,	-24790	,	2.1936536	,	0
39,39	,	139046	,	-22246	,	-24794	,	1.3417888	,	0
39,39	,	139078	,	-22260	,	-24795	,	0.49804235	,	0
39,39	,	139094	,	-22262	,	-24796	,	-0.54308486	,	0
39,39	,	139110	,	-22270	,	-24807	,	-1.9599973	,	0
39,39	,	139141	,	-22276	,	-24809	,	-3.8104823	,	0
39,39	,	139157	,	-22279	,	-24818	,	-6.0206537	,	0
39,39	,	139189	,	-22295	,	-24816	,	-8.450508	,	0
39,39	,	139205	,	-22303	,	-24814	,	-11.021761	,	0
39,39	,	139221	,	-22299	,	-24830	,	-13.659863	,	0
39,39	,	139253	,	-22312	,	-24816	,	-16.142008	,	0
39,39	,	139270	,	-22322	,	-24836	,	-18.269138	,	0
39,39	,	139285	,	-22326	,	-24837	,	-20.025982	,	0
39,39	,	139317	,	-22325	,	-24836	,	-21.395847	,	0
39,39	,	139333	,	-22332	,	-24848	,	-22.2458	,	0
39,39	,	139349	,	-22352	,	-24846	,	-22.55627	,	0
39,39	,	139381	,	-22348	,	-24849	,	-22.555317	,	0
39,39	,	139397	,	-22347	,	-24851	,	-22.400993	,	0
39,39	,	139429	,	-22353	,	-24855	,	-21.98692	,	0
39,39	,	139445	,	-22348	,	-24849	,	-21.158218	,	0
39,39	,	139462	,	-22320	,	-24861	,	-19.689966	,	0
39,39	,	139494	,	-22310	,	-24809	,	-17.10447	,	1
39,39	,	139509	,	-22263	,	-24806	,	-12.794399	,	3
39,39	,	139525	,	-22254	,	-24806	,	-6.2724	,	7
39,39	,	139557	,	-22254	,	-24799	,	2.3765326	,	13
39,39	,	139573	,	-22243	,	-24792	,	12.196962	,	21
39,39	,	139605	,	-22253	,	-24799	,	21.760477	,	30
39,39	,	139621	,	-22256	,	-24799	,	29.646431	,	39
39,39	,	139637	,	-22238	,	-24791	,	34.839966	,	46
39,39	,	139669	,	-22249	,	-24794	,	37.071243	,	51
39,39	,	139685	,	-22248	,	-24802	,	36.581604	,	52
39,39	,	139701	,	-22247	,	-24809	,	33.793285	,	50
39,39	,	139733	,	-22255	,	-24797	,	29.280302	,	46
39,39	,	139749	,	-22240	,	-24807	,	23.737043	,	40
39,39	,	139781	,	-22252	,	-24796	,	17.913092	,	32
39,39	,	139797	,	-22245	,	-24797	,	12.440866	,	23
39,39	,	139813	,	-22235	,	-24795	,	7.7761946	,	14
39,39	,	139845	,	-22236	,	-24790	,	4.301879	,	7
39,39	,	139861	,	-22241	,	-24795	,	2.167107	,	2
39,39	,	139877	,	-22244	,	-24801	,	1.1291795	,	0
39,39	,	139909	,	-22248	,	-24799	,	0.7348299	,	0
39,39	,	139925	,	-22253	,	-24798	,	0.5417062	,	0
39,39	,	139941	,	-22254	,	-24812	,	0.21363258	,	0
39,39	,	139973	,	-22257	,	-24800	,	-0.41783726	,	0
39,40	,	139989	,	-22272	,	-24814	,	-1.4154187	,	0
39,40	,	140021	,	-22278	,	-24814	,	-2.8809	,	0
39,40	,	140037	,	-22281	,	-24829	,	-4.883944	,	0
39,40	,	140053	,	-22287	,	-24834	,	-7.30369	,	0
39,40	,	140085	,	-22296	,	-24838	,	-9.902299	,	0
39,40	,	140101	,	-22302	,	-24835	,	-12.480213	,	0
39,40	,	140117	,	-22308	,	-24838	,	-14.892649	,	0
39,40	,	140149	,	-22311	,	-24856	,	-16.99565	,	0
39,40	,	140165	,	-22317	,	-24849	,	-18.645247	,	0
39,40	,	140197	,	-22330	,	-24852	,	-19.793236	,	0
39,40	,	140213	,	-22325	,	-24842	,	-20.506208	,	0
39,40	,	140229	,	-22342	,	-24851	,	-20.862349	,	0
39,40	,	140261	,	-22334	,	-24853	,	-20.920135	,	0
39,40	,	140277	,	-22304	,	-24847	,	-20.504425	,	0
39,40	,	140293	,	-22298	,	-24838	,	-19.01512	,	0
39,40	,	140325	,	-22279	,	-24823	,	-15.838747	,	1
39,40	,	140341	,	-22249	,	-24816	,	-10.691532	,	4
39,40	,	140357	,	-22247	,	-24797	,	-3.596219	,	9
39,40	,	140389	,	-22234	,	-24806	,	4.9545693	,	16
39,40	,	140405	,	-22237	,	-24797	,	13.966731	,	24
39,40	,	140437	,	-22231	,	-24796	,	22.267326	,	33
39,40	,	140453	,	-22227	,	-24795	,	28.867168	,	41
39,40	,	140469	,	-22213	,	-24785	,	33.253597	,	47
39,40	,	140501	,	-22231	,	-24788	,	35.351006	,	51
39,40	,	140517	,	-22228	,	-24786	,	35.185074	,	52
39,40	,	140533	,	-22220	,	-24793	,	32.91078	,	49
39,40	,	140565	,	-22229	,	-24792	,	29.022856	,	44
39,40	,	140581	,	-22220	,	-24786	,	24.177595	,	37
39,40	,	140613	,	-22215	,	-24799	,	19.039284	,	29
39,40	,	140629	,	-22215	,	-24780	,	14.252369	,	20
39,40	,	140645	,	-22211	,	-24793	,	10.2757225	,	12
39,40	,	140677	,	-22216	,	-24789	,	7.2862406	,	6
39,40	,	140693	,	-22213	,	-24788	,	5.216676	,	2
39,40	,	140709	,	-22223	,	-24791	,	3.8337111	,	0
39,40	,	140741	,	-22233	,	-24812	,	2.7657099	,	0
39,40	,	140757	,	-22230	,	-24798	,	1.6035631	,	0
39,40	,	140773	,	-22242	,	-24807	,	0.11601138	,	0
39,40	,	140805	,	-22236	,	-24810	,	-1.7042787	,	0
39,40	,	140821	,	-22252	,	-24810	,	-3.7461112	,	0
39,40	,	140853	,	-22250	,	-24815	,	-5.8924007	,	0
39,40	,	140869	,	-22256	,	-24823	,	-8.030535	,	0
39,40	,	140885	,	-22252	,	-24823	,	-9.970996	,	0
39,40	,	140917	,	-22272	,	-24821	,	-11.549118	,	0
39,40	,	140933	,	-22269	,	-24827	,	-12.797711	,	0
39,40	,	140949	,	-22279	,	-24827	,	-13.844077	,	0
39,40	,	140981	,	-22291	,	-24845	,	-14.788209	,	0
39,41	,	140997	,	-22299	,	-24843	,	-15.773581	,	0
39,41	,	141029	,	-22299	,	-24850	,	-16.9082	,	0
39,41	,	141045	,	-22316	,	-24852	,	-18.15414	,	0
39,41	,	141061	,	-22318	,	-24858	,	-19.440336	,	0
39,41	,	141093	,	-22320	,	-24858	,	-20.672176	,	0
39,41	,	141109	,	-22318	,	-24859	,	-21.615936	,	0
39,41	,	141125	,	-22321	,	-24861	,	-21.973015	,	0
39,41	,	141157	,	-22309	,	-24849	,	-21.50443	,	0
39,41	,	141173	,	-22290	,	-24833	,	-19.944658	,	0
39,41	,	141189	,	-22244	,	-24816	,	-16.780453	,	1
39,41	,	141221	,	-22230	,	-24804	,	-11.317725	,	4
39,41	,	141237	,	-22224	,	-24797	,	-3.3239098	,	9
39,41	,	141268	,	-22218	,	-24801	,	6.474837	,	16
39,41	,	141284	,	-22216	,	-24800	,	16.701954	,	25
39,41	,	141300	,	-22207	,	-24793	,	25.951077	,	35
39,41	,	141332	,	-22203	,	-24799	,	33.20207	,	44
39,41	,	141349	,	-22197	,	-24793	,	37.951725	,	51
39,41	,	141364	,	-22204	,	-24794	,	40.08645	,	55
39,41	,	141396	,	-22205	,	-24787	,	39.68544	,	56
39,41	,	141412	,	-22210	,	-24799	,	36.96696	,	53
39,41	,	141445	,	-22204	,	-24782	,	32.372726	,	48
39,41	,	141461	,	-22209	,	-24800	,	26.574186	,	41
39,41	,	141477	,	-22203	,	-24791	,	20.323149	,	32
39,41	,	141508	,	-22191	,	-24786	,	14.367561	,	22
39,41	,	141524	,	-22193	,	-24791	,	9.397161	,	13
39,41	,	141540	,	-22195	,	-24796	,	5.7987986	,	6
39,41	,	141573	,	-22198	,	-24798	,	3.5146327	,	2
39,41	,	141589	,	-22204	,	-24791	,	2.1907554	,	0
39,41	,	141620	,	-22205	,	-24799	,	1.381295	,	0
39,41	,	141637	,	-22217	,	-24776	,	0.6768116	,	0
39,41	,	141652	,	-22218	,	-24799	,	-0.24488199	,	0
39,41	,	141684	,	-22225	,	-24808	,	-1.5607	,	0
39,41	,	141700	,	-22225	,	-24803	,	-3.2564695	,	0
39,41	,	141716	,	-22225	,	-24813	,	-5.144747	,	0
39,41	,	141748	,	-22236	,	-24816	,	-6.9793067	,	0
39,41	,	141764	,	-22253	,	-24817	,	-8.704208	,	0
39,41	,	141780	,	-22258	,	-24827	,	-10.51417	,	0
39,41	,	141813	,	-22262	,	-24833	,	-12.55947	,	0
39,41	,	141829	,	-22270	,	-24830	,	-14.752657	,	0
39,41	,	141860	,	-22273	,	-24860	,	-16.880583	,	0
39,41	,	141876	,	-22287	,	-24829	,	-18.769732	,	0
39,41	,	141892	,	-22289	,	-24856	,	-20.357586	,	0
39,41	,	141924	,	-22311	,	-24858	,	-21.695026	,	0
39,41	,	141940	,	-22306	,	-24856	,	-22.890474	,	0
39,41	,	141956	,	-22313	,	-24872	,	-23.93657	,	0
39,41	,	141989	,	-22327	,	-24866	,	-24.712925	,	0
39,42	,	142004	,	-22324	,	-24879	,	-25.176567	,	0
39,42	,	142036	,	-22327	,	-24876	,	-25.284107	,	0
39,42	,	142052	,	-22316	,	-24865	,	-24.841507	,	0
39,42	,	142068	,	-22293	,	-24849	,	-23.462757	,	0
39,42	,	142100	,	-22278	,	-24861	,	-20.596773	,	1
39,42	,	142116	,	-22250	,	-24818	,	-15.760689	,	3
39,42	,	142132	,	-22240	,	-24826	,	-8.808964	,	7
39,42	,	142164	,	-22230	,	-24815	,	-0.108942986	,	13
39,42	,	142180	,	-22226	,	-24816	,	9.4553	,	21
39,42	,	142196	,	-22219	,	-24811	,	18.754879	,	30
39,42	,	142228	,	-22225	,	-24824	,	26.711744	,	39
39,42	,	142244	,	-22233	,	-24820	,	32.40244	,	46
39,42	,	142276	,	-22222	,	-24815	,	35.219826	,	51
39,42	,	142292	,	-22218	,	-24818	,	35.175392	,	52
39,42	,	142308	,	-22231	,	-24817	,	32.800514	,	50
39,42	,	142340	,	-22235	,	-24836	,	28.673323	,	46
39,42	,	142356	,	-22234	,	-24811	,	23.294147	,	40
39,42	,	142372	,	-22223	,	-24823	,	17.308117	,	32
39,42	,	142404	,	-22230	,	-24818	,	11.496767	,	23
39,42	,	142420	,	-22216	,	-24820	,	6.525646	,	14
39,42	,	142452	,	-22222	,	-24812	,	2.8202267	,	7
39,42	,	142468	,	-22222	,	-24805	,	0.50168324	,	2
39,42	,	142484	,	-22225	,	-24830	,	-0.6395483	,	0
39,42	,	142516	,	-22231	,	-24826	,	-0.9995917	,	0
39,42	,	142532	,	-22236	,	-24799	,	-1.0246403	,	0
39,42	,	142548	,	-22239	,	-24830	,	-1.1118609	,	0
39,42	,	142580	,	-22258	,	-24848	,	-1.5764284	,	0
39,42	,	142596	,	-22256	,	-24827	,	-2.6802886	,	0
39,42	,	142612	,	-22269	,	-24837	,	-4.527463	,	0
39,42	,	142644	,	-22267	,	-24852	,	-6.981827	,	0
39,42	,	142660	,	-22273	,	-24855	,	-9.724252	,	0
39,42	,	142692	,	-22284	,	-24865	,	-12.401968	,	0
39,42	,	142708	,	-22288	,	-24865	,	-14.80218	,	0
39,42	,	142724	,	-22309	,	-24856	,	-16.903738	,	0
39,42	,	142756	,	-22317	,	-24874	,	-18.861494	,	0
39,42	,	142772	,	-22314	,	-24866	,	-20.808584	,	0
39,42	,	142788	,	-22317	,	-24888	,	-22.578386	,	0
39,42	,	142820	,	-22336	,	-24891	,	-23.886362	,	0
39,42	,	142836	,	-22340	,	-24873	,	-24.703682	,	0
39,42	,	142868	,	-22354	,	-24890	,	-25.217304	,	0
39,42	,	142884	,	-22356	,	-24886	,	-25.597895	,	0
39,42	,	142900	,	-22361	,	-24901	,	-25.886982	,	0
39,42	,	142932	,	-22374	,	-24898	,	-26.038418	,	0
39,42	,	142948	,	-22371	,	-24888	,	-26.015644	,	0
39,42	,	142964	,	-22368	,	-24899	,	-25.7	,	0
39,43	,	142996	,	-22341	,	-24881	,	-24.70908	,	0
39,43	,	143012	,	-22327	,	-24871	,	-22.412344	,	0
39,43	,	143028	,	-22301	,	-24853	,	-18.197493	,	2
39,43	,	143060	,	-22289	,	-24867	,	-11.786999	,	6
39,43	,	143076	,	-22279	,	-24841	,	-3.44215	,	12
39,43	,	143108	,	-22273	,	-24847	,	6.020817	,	20
39,43	,	143124	,	-22283	,	-24849	,	15.409981	,	29
39,43	,	143140	,	-22282	,	-24850	,	23.413473	,	38
39,43	,	143172	,	-22271	,	-24845	,	29.028915	,	46
39,43	,	143188	,	-22285	,	-24857	,	31.87863	,	51
39,43	,	143203	,	-22291	,	-24858	,	31.984852	,	53
39,43	,	143236	,	-22283	,	-24857	,	29.586727	,	51
