Data recorded on Mon Jul 24 08-12-54 CAT 2017
Time: 8:12:57
Time		Millis		IR PPG		Red PPG		Filtered		SSF
13,6	,	227381	,	-25389	,	-25428	,	-1.9672992	,	1
13,6	,	227396	,	-25383	,	-25445	,	-0.028887749	,	2
13,6	,	227412	,	-25388	,	-25402	,	2.1106274	,	3
13,6	,	227445	,	-25389	,	-25433	,	4.179275	,	5
13,6	,	227460	,	-25380	,	-25433	,	5.879353	,	7
13,6	,	227493	,	-25396	,	-25434	,	7.02946	,	8
13,6	,	227509	,	-25397	,	-25432	,	7.4522457	,	9
13,6	,	227525	,	-25392	,	-25429	,	7.008555	,	9
13,6	,	227556	,	-25391	,	-25431	,	5.83902	,	9
13,6	,	227572	,	-25396	,	-25439	,	4.279939	,	8
13,6	,	227589	,	-25388	,	-25441	,	2.6378431	,	7
13,6	,	227620	,	-25388	,	-25433	,	1.1860385	,	6
13,6	,	227636	,	-25400	,	-25437	,	0.09189296	,	4
13,6	,	227669	,	-25399	,	-25423	,	-0.7268877	,	2
13,6	,	227685	,	-25404	,	-25428	,	-1.4657488	,	1
13,6	,	227701	,	-25393	,	-25439	,	-2.1882422	,	0
13,6	,	227732	,	-25384	,	-25437	,	-2.713324	,	0
13,6	,	227748	,	-25397	,	-25432	,	-2.7770321	,	0
13,6	,	227764	,	-25399	,	-25437	,	-2.398071	,	0
13,6	,	227796	,	-25399	,	-25432	,	-1.8744695	,	0
13,6	,	227812	,	-25401	,	-25441	,	-1.4590564	,	0
13,6	,	227828	,	-25399	,	-25437	,	-1.2426211	,	0
13,6	,	227860	,	-25406	,	-25438	,	-1.2306488	,	0
13,6	,	227876	,	-25412	,	-25447	,	-1.456219	,	0
13,6	,	227908	,	-25425	,	-25427	,	-2.060046	,	0
13,6	,	227924	,	-25416	,	-25445	,	-3.1691191	,	0
13,6	,	227940	,	-25436	,	-25445	,	-4.7343173	,	0
13,6	,	227972	,	-25420	,	-25447	,	-6.5666656	,	0
13,6	,	227989	,	-25418	,	-25439	,	-8.306797	,	0
13,6	,	228004	,	-25400	,	-25437	,	-9.384214	,	0
13,6	,	228037	,	-25401	,	-25433	,	-9.256931	,	0
13,6	,	228052	,	-25399	,	-25432	,	-7.7405596	,	0
13,6	,	228084	,	-25392	,	-25436	,	-5.0797853	,	1
13,6	,	228100	,	-25380	,	-25422	,	-1.663126	,	3
13,6	,	228116	,	-25384	,	-25439	,	2.1706314	,	6
13,6	,	228148	,	-25387	,	-25405	,	5.9894886	,	9
13,6	,	228164	,	-25376	,	-25431	,	9.287209	,	12
13,6	,	228180	,	-25374	,	-25430	,	11.775814	,	15
13,6	,	228212	,	-25382	,	-25422	,	13.385381	,	17
13,6	,	228228	,	-25386	,	-25426	,	14.009003	,	18
13,6	,	228244	,	-25389	,	-25435	,	13.516888	,	18
13,6	,	228276	,	-25379	,	-25424	,	11.991709	,	17
13,6	,	228292	,	-25384	,	-25435	,	9.801797	,	15
13,6	,	228324	,	-25374	,	-25430	,	7.427743	,	12
13,6	,	228340	,	-25371	,	-25424	,	5.313706	,	9
13,6	,	228356	,	-25372	,	-25442	,	3.7818637	,	6
13,7	,	228388	,	-25374	,	-25420	,	2.907991	,	3
13,7	,	228404	,	-25381	,	-25426	,	2.5085135	,	1
13,7	,	228420	,	-25376	,	-25420	,	2.2937572	,	0
13,7	,	228452	,	-25388	,	-25427	,	2.016642	,	0
13,7	,	228468	,	-25391	,	-25432	,	1.4686278	,	0
13,7	,	228500	,	-25389	,	-25426	,	0.5171957	,	0
13,7	,	228516	,	-25387	,	-25429	,	-0.7434623	,	0
13,7	,	228532	,	-25388	,	-25425	,	-2.0369086	,	0
13,7	,	228564	,	-25391	,	-25428	,	-3.1213279	,	0
13,7	,	228580	,	-25402	,	-25427	,	-3.951637	,	0
13,7	,	228596	,	-25398	,	-25432	,	-4.6541624	,	0
13,7	,	228628	,	-25417	,	-25426	,	-5.3946934	,	0
13,7	,	228644	,	-25411	,	-25423	,	-6.33018	,	0
13,7	,	228660	,	-25410	,	-25425	,	-7.472543	,	0
13,7	,	228692	,	-25415	,	-25435	,	-8.604374	,	0
13,7	,	228708	,	-25419	,	-25439	,	-9.510849	,	0
13,7	,	228740	,	-25412	,	-25431	,	-10.08753	,	0
13,7	,	228756	,	-25418	,	-25437	,	-10.237524	,	0
13,7	,	228772	,	-25424	,	-25438	,	-9.953446	,	0
13,7	,	228804	,	-25409	,	-25447	,	-9.33425	,	0
13,7	,	228820	,	-25398	,	-25440	,	-8.309896	,	0
13,7	,	228836	,	-25389	,	-25425	,	-6.5877185	,	1
13,7	,	228868	,	-25386	,	-25444	,	-3.9687524	,	2
13,7	,	228884	,	-25388	,	-25430	,	-0.5970452	,	4
13,7	,	228916	,	-25387	,	-25415	,	3.0627766	,	7
13,7	,	228932	,	-25376	,	-25429	,	6.497437	,	10
13,7	,	228948	,	-25379	,	-25433	,	9.390425	,	13
13,7	,	228980	,	-25382	,	-25435	,	11.547595	,	15
13,7	,	228996	,	-25380	,	-25423	,	12.78595	,	17
13,7	,	229012	,	-25388	,	-25421	,	12.999504	,	18
13,7	,	229044	,	-25379	,	-25416	,	12.22478	,	17
13,7	,	229060	,	-25379	,	-25421	,	10.695909	,	16
13,7	,	229076	,	-25382	,	-25426	,	8.773327	,	14
13,7	,	229108	,	-25376	,	-25438	,	6.770334	,	11
13,7	,	229124	,	-25372	,	-25407	,	4.95765	,	8
13,7	,	229156	,	-25382	,	-25413	,	3.5390444	,	5
13,7	,	229172	,	-25371	,	-25414	,	2.5409346	,	3
13,7	,	229188	,	-25379	,	-25421	,	1.8947468	,	1
13,7	,	229220	,	-25373	,	-25408	,	1.5293067	,	0
13,7	,	229236	,	-25376	,	-25410	,	1.3652792	,	0
13,7	,	229252	,	-25375	,	-25416	,	1.3256505	,	0
13,7	,	229284	,	-25370	,	-25413	,	1.3585439	,	0
13,7	,	229300	,	-25373	,	-25419	,	1.4536471	,	0
13,7	,	229332	,	-25378	,	-25413	,	1.562607	,	0
13,7	,	229348	,	-25391	,	-25426	,	1.4890425	,	0
13,7	,	229364	,	-25393	,	-25402	,	0.93827415	,	0
13,8	,	229396	,	-25392	,	-25421	,	-0.24467486	,	0
13,8	,	229412	,	-25392	,	-25419	,	-1.902309	,	0
13,8	,	229428	,	-25387	,	-25422	,	-3.6595442	,	0
13,8	,	229460	,	-25388	,	-25415	,	-5.117606	,	0
13,8	,	229475	,	-25396	,	-25415	,	-6.0407534	,	0
13,8	,	229491	,	-25397	,	-25423	,	-6.4606996	,	0
13,8	,	229523	,	-25398	,	-25415	,	-6.5480156	,	0
13,8	,	229540	,	-25411	,	-25422	,	-6.492302	,	0
13,8	,	229572	,	-25391	,	-25415	,	-6.437939	,	0
13,8	,	229588	,	-25408	,	-25436	,	-6.354862	,	0
13,8	,	229604	,	-25395	,	-25401	,	-6.132324	,	0
13,8	,	229635	,	-25394	,	-25413	,	-5.6797485	,	0
13,8	,	229652	,	-25382	,	-25409	,	-4.83727	,	0
13,8	,	229668	,	-25386	,	-25407	,	-3.4556975	,	0
13,8	,	229700	,	-25375	,	-25400	,	-1.5478106	,	1
13,8	,	229715	,	-25365	,	-25400	,	0.789865	,	2
13,8	,	229747	,	-25371	,	-25403	,	3.4452467	,	4
13,8	,	229763	,	-25364	,	-25402	,	6.174791	,	6
13,8	,	229780	,	-25371	,	-25399	,	8.618459	,	8
13,8	,	229812	,	-25369	,	-25397	,	10.427699	,	10
13,8	,	229828	,	-25364	,	-25414	,	11.385059	,	11
13,8	,	229844	,	-25376	,	-25378	,	11.462135	,	11
13,8	,	229875	,	-25380	,	-25408	,	10.667822	,	11
13,8	,	229891	,	-25363	,	-25409	,	9.084593	,	10
13,8	,	229907	,	-25378	,	-25402	,	7.038199	,	9
13,8	,	229940	,	-25377	,	-25384	,	4.8615136	,	7
13,8	,	229956	,	-25373	,	-25407	,	2.7268138	,	5
13,8	,	229988	,	-25377	,	-25393	,	0.80192995	,	3
13,8	,	230004	,	-25376	,	-25381	,	-0.76090646	,	1
13,8	,	230020	,	-25378	,	-25396	,	-1.9056584	,	0
13,8	,	230051	,	-25362	,	-25402	,	-2.5708222	,	0
13,8	,	230067	,	-25373	,	-25403	,	-2.6461413	,	0
13,8	,	230084	,	-25379	,	-25378	,	-2.1979094	,	0
13,8	,	230116	,	-25377	,	-25401	,	-1.5490489	,	0
13,8	,	230132	,	-25386	,	-25405	,	-1.0314949	,	0
13,8	,	230163	,	-25394	,	-25405	,	-0.90189826	,	0
13,8	,	230179	,	-25396	,	-25384	,	-1.3677634	,	0
13,8	,	230195	,	-25396	,	-25398	,	-2.4538593	,	0
13,8	,	230227	,	-25394	,	-25415	,	-3.9329479	,	0
13,8	,	230243	,	-25397	,	-25406	,	-5.45239	,	0
13,8	,	230259	,	-25395	,	-25405	,	-6.7055354	,	0
13,8	,	230291	,	-25402	,	-25404	,	-7.525346	,	0
13,8	,	230307	,	-25407	,	-25416	,	-7.9283323	,	0
13,8	,	230323	,	-25406	,	-25405	,	-8.058025	,	0
13,8	,	230355	,	-25400	,	-25410	,	-7.9925594	,	0
13,8	,	230371	,	-25401	,	-25419	,	-7.6632786	,	0
13,9	,	230403	,	-25410	,	-25407	,	-7.036284	,	0
13,9	,	230420	,	-25401	,	-25403	,	-6.229775	,	0
13,9	,	230435	,	-25400	,	-25401	,	-5.3383007	,	0
13,9	,	230467	,	-25392	,	-25409	,	-4.302825	,	0
13,9	,	230483	,	-25397	,	-25407	,	-3.0321984	,	1
13,9	,	230499	,	-25397	,	-25405	,	-1.5791938	,	2
13,9	,	230531	,	-25389	,	-25398	,	-0.11330342	,	3
13,9	,	230547	,	-25388	,	-25404	,	1.2706733	,	4
13,9	,	230579	,	-25393	,	-25396	,	2.5379114	,	5
13,9	,	230595	,	-25390	,	-25408	,	3.5785837	,	6
13,9	,	230611	,	-25393	,	-25407	,	4.266139	,	7
13,9	,	230644	,	-25388	,	-25408	,	4.5644197	,	7
13,9	,	230659	,	-25389	,	-25402	,	4.534404	,	7
13,9	,	230691	,	-25401	,	-25402	,	4.221548	,	6
13,9	,	230707	,	-25398	,	-25401	,	3.5577965	,	5
13,9	,	230723	,	-25396	,	-25393	,	2.5187318	,	4
13,9	,	230755	,	-25396	,	-25388	,	1.2759355	,	3
13,9	,	230771	,	-25389	,	-25403	,	0.10849798	,	2
13,9	,	230787	,	-25392	,	-25403	,	-0.7315997	,	1
13,9	,	230819	,	-25398	,	-25384	,	-1.1583176	,	0
13,9	,	230835	,	-25398	,	-25402	,	-1.2990389	,	0
13,9	,	230851	,	-25392	,	-25395	,	-1.3120065	,	0
13,9	,	230883	,	-25397	,	-25392	,	-1.2417538	,	0
13,9	,	230899	,	-25392	,	-25382	,	-1.083702	,	0
13,9	,	230931	,	-25401	,	-25402	,	-0.8719338	,	0
13,9	,	230947	,	-25401	,	-25411	,	-0.71173745	,	0
13,9	,	230963	,	-25405	,	-25410	,	-0.73971343	,	0
13,9	,	230995	,	-25403	,	-25399	,	-1.0231601	,	0
13,9	,	231011	,	-25415	,	-25420	,	-1.5656865	,	0
13,9	,	231027	,	-25419	,	-25392	,	-2.4113805	,	0
13,9	,	231059	,	-25425	,	-25411	,	-3.627521	,	0
13,9	,	231075	,	-25429	,	-25408	,	-5.1997476	,	0
13,9	,	231107	,	-25414	,	-25415	,	-6.930023	,	0
13,9	,	231123	,	-25427	,	-25421	,	-8.431677	,	0
13,9	,	231139	,	-25426	,	-25409	,	-9.402763	,	0
13,9	,	231171	,	-25417	,	-25412	,	-9.7548895	,	0
13,9	,	231187	,	-25406	,	-25407	,	-9.373318	,	0
13,9	,	231203	,	-25413	,	-25408	,	-8.1129265	,	0
13,9	,	231235	,	-25399	,	-25405	,	-6.0207143	,	1
13,9	,	231251	,	-25400	,	-25405	,	-3.3002896	,	3
13,9	,	231283	,	-25395	,	-25387	,	-0.20668268	,	5
13,9	,	231299	,	-25407	,	-25406	,	2.8890712	,	8
13,9	,	231315	,	-25409	,	-25410	,	5.475691	,	11
13,9	,	231347	,	-25415	,	-25413	,	7.0639973	,	13
13,9	,	231363	,	-25411	,	-25412	,	7.420248	,	14
13,9	,	231379	,	-25416	,	-25409	,	6.648061	,	14
13,10	,	231411	,	-25416	,	-25411	,	5.057148	,	14
13,10	,	231427	,	-25417	,	-25402	,	3.005537	,	13
13,10	,	231443	,	-25410	,	-25415	,	0.86967087	,	11
13,10	,	231475	,	-25399	,	-25399	,	-0.91061664	,	9
13,10	,	231491	,	-25399	,	-25408	,	-1.9018751	,	6
13,10	,	231523	,	-25400	,	-25401	,	-1.9149349	,	3
13,10	,	231539	,	-25417	,	-25408	,	-1.1897835	,	1
13,10	,	231555	,	-25426	,	-25416	,	-0.3476882	,	0
13,10	,	231587	,	-25433	,	-25412	,	-0.085561514	,	0
13,10	,	231603	,	-25435	,	-25419	,	-0.797718	,	0
13,10	,	231619	,	-25423	,	-25420	,	-2.3800874	,	0
13,10	,	231651	,	-25432	,	-25423	,	-4.3384914	,	0
13,10	,	231667	,	-25440	,	-25416	,	-6.2040253	,	0
13,10	,	231699	,	-25440	,	-25417	,	-7.7976456	,	0
13,10	,	231715	,	-25438	,	-25424	,	-9.052647	,	0
13,10	,	231731	,	-25435	,	-25417	,	-9.827221	,	0
13,10	,	231763	,	-25444	,	-25415	,	-10.007399	,	0
13,10	,	231779	,	-25440	,	-25424	,	-9.653971	,	0
13,10	,	231795	,	-25445	,	-25427	,	-8.933592	,	0
13,10	,	231827	,	-25444	,	-25430	,	-8.003706	,	0
13,10	,	231843	,	-25439	,	-25426	,	-6.967832	,	0
13,10	,	231859	,	-25438	,	-25427	,	-5.8377104	,	1
13,10	,	231891	,	-25420	,	-25424	,	-4.5112667	,	2
13,10	,	231907	,	-25427	,	-25413	,	-2.821782	,	3
13,10	,	231939	,	-25420	,	-25422	,	-0.73960304	,	4
13,10	,	231955	,	-25426	,	-25419	,	1.5232711	,	6
13,10	,	231971	,	-25410	,	-25419	,	3.7014103	,	8
13,10	,	232003	,	-25422	,	-25421	,	5.6312137	,	10
13,10	,	232019	,	-25421	,	-25417	,	7.1404843	,	11
13,10	,	232035	,	-25419	,	-25419	,	8.01501	,	12
13,10	,	232067	,	-25420	,	-25419	,	8.177824	,	11
13,10	,	232083	,	-25419	,	-25408	,	7.7197466	,	10
13,10	,	232114	,	-25419	,	-25424	,	6.8030996	,	9
13,10	,	232131	,	-25419	,	-25417	,	5.6117654	,	8
13,10	,	232146	,	-25404	,	-25415	,	4.384325	,	6
13,10	,	232179	,	-25396	,	-25401	,	3.500257	,	4
13,10	,	232194	,	-25397	,	-25403	,	3.3327894	,	2
13,10	,	232210	,	-25397	,	-25403	,	3.9438374	,	1
13,10	,	232243	,	-25394	,	-25410	,	5.0750875	,	0
13,10	,	232259	,	-25402	,	-25394	,	6.349143	,	1
13,10	,	232275	,	-25415	,	-25407	,	7.304821	,	2
13,10	,	232306	,	-25413	,	-25395	,	7.4567046	,	2
13,10	,	232322	,	-25415	,	-25412	,	6.5827465	,	2
13,10	,	232355	,	-25411	,	-25398	,	4.863529	,	2
13,10	,	232371	,	-25409	,	-25399	,	2.7302656	,	2
13,11	,	232387	,	-25414	,	-25386	,	0.63096714	,	2
13,11	,	232419	,	-25424	,	-25398	,	-1.2034082	,	2
13,11	,	232435	,	-25419	,	-25407	,	-2.7806358	,	2
13,11	,	232451	,	-25417	,	-25405	,	-4.095561	,	1
13,11	,	232483	,	-25426	,	-25430	,	-5.053069	,	0
13,11	,	232498	,	-25414	,	-25410	,	-5.602539	,	0
13,11	,	232530	,	-25438	,	-25426	,	-5.8022137	,	0
13,11	,	232547	,	-25424	,	-25416	,	-5.8393126	,	0
13,11	,	232562	,	-25413	,	-25410	,	-5.7856975	,	0
13,11	,	232594	,	-25401	,	-25412	,	-5.3412056	,	0
13,11	,	232610	,	-25402	,	-25412	,	-4.118498	,	0
13,11	,	232627	,	-25393	,	-25405	,	-2.0222807	,	1
13,11	,	232658	,	-25399	,	-25410	,	0.71680903	,	3
13,11	,	232674	,	-25396	,	-25402	,	3.656233	,	5
13,11	,	232690	,	-25369	,	-25406	,	6.4419518	,	7
13,11	,	232723	,	-25394	,	-25430	,	8.985809	,	9
13,11	,	232739	,	-25384	,	-25393	,	11.117538	,	11
13,11	,	232770	,	-25391	,	-25420	,	12.484262	,	13
13,11	,	232786	,	-25400	,	-25420	,	12.819348	,	14
13,11	,	232802	,	-25398	,	-25422	,	11.999999	,	14
13,11	,	232834	,	-25399	,	-25428	,	10.121773	,	13
13,11	,	232850	,	-25398	,	-25424	,	7.534303	,	11
13,11	,	232866	,	-25386	,	-25416	,	4.7376533	,	9
13,11	,	232898	,	-25390	,	-25426	,	2.2765703	,	7
13,11	,	232914	,	-25394	,	-25417	,	0.50111127	,	5
13,11	,	232946	,	-25400	,	-25423	,	-0.6093745	,	3
13,11	,	232963	,	-25401	,	-25434	,	-1.3139876	,	1
13,11	,	232978	,	-25391	,	-25399	,	-1.8183277	,	0
13,11	,	233010	,	-25396	,	-25416	,	-2.1168013	,	0
13,11	,	233026	,	-25402	,	-25425	,	-2.1707442	,	0
13,11	,	233042	,	-25404	,	-25430	,	-2.1085646	,	0
13,11	,	233074	,	-25410	,	-25415	,	-2.1426845	,	0
13,11	,	233090	,	-25401	,	-25423	,	-2.3871307	,	0
13,11	,	233106	,	-25407	,	-25425	,	-2.7720125	,	0
13,11	,	233138	,	-25408	,	-25418	,	-3.158068	,	0
13,11	,	233154	,	-25411	,	-25428	,	-3.4934993	,	0
13,11	,	233186	,	-25412	,	-25426	,	-3.7982254	,	0
13,11	,	233202	,	-25419	,	-25432	,	-4.1138277	,	0
13,11	,	233218	,	-25417	,	-25404	,	-4.4886255	,	0
13,11	,	233250	,	-25400	,	-25415	,	-4.8291373	,	0
13,11	,	233266	,	-25393	,	-25410	,	-4.765525	,	0
13,11	,	233282	,	-25396	,	-25407	,	-3.913934	,	0
13,11	,	233314	,	-25379	,	-25402	,	-2.18686	,	0
13,11	,	233330	,	-25377	,	-25397	,	0.30948424	,	1
13,11	,	233362	,	-25385	,	-25392	,	3.3197765	,	3
13,11	,	233378	,	-25377	,	-25394	,	6.360844	,	6
13,12	,	233394	,	-25377	,	-25380	,	8.956311	,	9
13,12	,	233426	,	-25360	,	-25379	,	10.91726	,	11
13,12	,	233442	,	-25375	,	-25402	,	12.280346	,	12
13,12	,	233458	,	-25379	,	-25380	,	12.98497	,	13
13,12	,	233490	,	-25377	,	-25395	,	12.823534	,	13
13,12	,	233506	,	-25373	,	-25384	,	11.769818	,	13
13,12	,	233522	,	-25374	,	-25394	,	10.074175	,	12
13,12	,	233554	,	-25377	,	-25384	,	8.053053	,	10
13,12	,	233570	,	-25375	,	-25386	,	5.9521003	,	7
13,12	,	233602	,	-25382	,	-25383	,	3.9278746	,	4
13,12	,	233618	,	-25370	,	-25376	,	2.098086	,	2
13,12	,	233634	,	-25376	,	-25387	,	0.6236532	,	1
13,12	,	233666	,	-25381	,	-25374	,	-0.39507282	,	0
13,12	,	233682	,	-25383	,	-25382	,	-1.0637043	,	0
13,12	,	233698	,	-25384	,	-25367	,	-1.5744781	,	0
13,12	,	233730	,	-25376	,	-25363	,	-2.0072556	,	0
13,12	,	233746	,	-25392	,	-25375	,	-2.345145	,	0
13,12	,	233778	,	-25395	,	-25383	,	-2.684595	,	0
13,12	,	233794	,	-25399	,	-25373	,	-3.2431917	,	0
13,12	,	233810	,	-25399	,	-25377	,	-4.119714	,	0
13,12	,	233842	,	-25401	,	-25379	,	-5.2126217	,	0
13,12	,	233858	,	-25397	,	-25390	,	-6.3030415	,	0
13,12	,	233874	,	-25396	,	-25371	,	-7.1233864	,	0
13,12	,	233906	,	-25396	,	-25352	,	-7.451441	,	0
13,12	,	233922	,	-25399	,	-25381	,	-7.2258854	,	0
13,12	,	233938	,	-25395	,	-25366	,	-6.5452356	,	0
13,12	,	233970	,	-25389	,	-25385	,	-5.520398	,	0
13,12	,	233986	,	-25383	,	-25381	,	-4.156479	,	1
13,12	,	234018	,	-25374	,	-25369	,	-2.3825998	,	2
13,12	,	234034	,	-25378	,	-25361	,	-0.1925509	,	3
13,12	,	234050	,	-25376	,	-25367	,	2.2203605	,	5
13,12	,	234082	,	-25360	,	-25358	,	4.596258	,	7
13,12	,	234098	,	-25366	,	-25352	,	6.8244267	,	9
13,12	,	234114	,	-25368	,	-25365	,	8.790069	,	11
13,12	,	234146	,	-25359	,	-25367	,	10.269736	,	12
13,12	,	234162	,	-25350	,	-25357	,	11.199435	,	13
13,12	,	234194	,	-25370	,	-25363	,	11.664472	,	12
13,12	,	234210	,	-25372	,	-25362	,	11.547057	,	11
13,12	,	234226	,	-25366	,	-25353	,	10.620649	,	10
13,12	,	234258	,	-25374	,	-25352	,	8.911444	,	8
13,12	,	234273	,	-25365	,	-25369	,	6.6857157	,	6
13,12	,	234290	,	-25365	,	-25346	,	4.3175197	,	4
13,12	,	234322	,	-25357	,	-25368	,	2.226389	,	2
13,12	,	234338	,	-25372	,	-25360	,	0.69052625	,	1
13,12	,	234354	,	-25378	,	-25363	,	-0.36368203	,	0
13,13	,	234386	,	-25387	,	-25374	,	-1.2986435	,	0
13,13	,	234402	,	-25368	,	-25358	,	-2.3699331	,	0
13,13	,	234434	,	-25365	,	-25366	,	-3.398461	,	0
13,13	,	234450	,	-25378	,	-25350	,	-4.021781	,	0
13,13	,	234466	,	-25384	,	-25367	,	-4.2141914	,	0
13,13	,	234498	,	-25379	,	-25373	,	-4.243395	,	0
13,13	,	234514	,	-25377	,	-25364	,	-4.249156	,	0
13,13	,	234529	,	-25381	,	-25372	,	-4.182033	,	0
13,13	,	234562	,	-25382	,	-25370	,	-4.015156	,	0
13,13	,	234578	,	-25396	,	-25366	,	-3.8559592	,	0
13,13	,	234610	,	-25383	,	-25362	,	-3.8686204	,	0
13,13	,	234626	,	-25396	,	-25369	,	-4.0989733	,	0
13,13	,	234642	,	-25390	,	-25358	,	-4.4777007	,	0
13,13	,	234674	,	-25402	,	-25391	,	-4.945312	,	0
13,13	,	234690	,	-25389	,	-25359	,	-5.4400616	,	0
13,13	,	234706	,	-25375	,	-25370	,	-5.7274437	,	0
13,13	,	234737	,	-25358	,	-25354	,	-5.3045855	,	0
13,13	,	234753	,	-25367	,	-25353	,	-3.7321465	,	0
13,13	,	234785	,	-25363	,	-25361	,	-1.0898907	,	1
13,13	,	234802	,	-25358	,	-25358	,	2.1157413	,	3
13,13	,	234818	,	-25361	,	-25355	,	5.3471494	,	6
13,13	,	234849	,	-25360	,	-25356	,	8.153636	,	9
13,13	,	234866	,	-25364	,	-25360	,	10.165263	,	11
13,13	,	234881	,	-25351	,	-25352	,	11.213782	,	13
13,13	,	234913	,	-25375	,	-25373	,	11.319809	,	14
13,13	,	234930	,	-25368	,	-25339	,	10.477907	,	14
13,13	,	234946	,	-25374	,	-25354	,	8.70744	,	14
13,13	,	234977	,	-25375	,	-25362	,	6.232181	,	13
13,13	,	234993	,	-25380	,	-25366	,	3.3782864	,	11
13,13	,	235025	,	-25372	,	-25365	,	0.4848733	,	8
13,13	,	235041	,	-25370	,	-25357	,	-2.0576787	,	5
13,13	,	235057	,	-25373	,	-25362	,	-3.9046624	,	3
13,13	,	235089	,	-25361	,	-25365	,	-4.8728065	,	1
13,13	,	235106	,	-25371	,	-25357	,	-4.9267635	,	0
13,13	,	235121	,	-25372	,	-25372	,	-4.2413664	,	0
13,13	,	235154	,	-25368	,	-25386	,	-3.166866	,	0
13,13	,	235170	,	-25380	,	-25350	,	-2.0410326	,	1
13,13	,	235201	,	-25368	,	-25368	,	-1.1212755	,	2
13,13	,	235217	,	-25366	,	-25365	,	-0.47335577	,	2
13,13	,	235233	,	-25382	,	-25353	,	-0.028404951	,	2
13,13	,	235265	,	-25376	,	-25365	,	0.15189475	,	2
13,13	,	235281	,	-25393	,	-25361	,	-0.0926037	,	2
13,13	,	235297	,	-25381	,	-25368	,	-0.83685756	,	2
13,13	,	235329	,	-25387	,	-25353	,	-1.9593316	,	2
13,13	,	235345	,	-25388	,	-25379	,	-3.1927018	,	2
13,13	,	235361	,	-25387	,	-25374	,	-4.3109283	,	1
13,14	,	235393	,	-25383	,	-25390	,	-5.1483135	,	0
13,14	,	235409	,	-25381	,	-25338	,	-5.5458484	,	0
13,14	,	235441	,	-25361	,	-25347	,	-5.306623	,	0
13,14	,	235457	,	-25359	,	-25338	,	-4.1667585	,	0
13,14	,	235473	,	-25352	,	-25330	,	-1.9888902	,	1
13,14	,	235505	,	-25352	,	-25284	,	1.0410016	,	3
13,14	,	235521	,	-25333	,	-25280	,	4.557951	,	6
13,14	,	235537	,	-25324	,	-25266	,	8.307933	,	9
13,14	,	235570	,	-25310	,	-25210	,	12.201996	,	12
13,14	,	235585	,	-25305	,	-25200	,	16.153543	,	15
13,14	,	235617	,	-25284	,	-25191	,	20.023907	,	18
13,14	,	235633	,	-25292	,	-25193	,	23.6438	,	21
13,14	,	235649	,	-25290	,	-25168	,	26.679127	,	24
13,14	,	235681	,	-25296	,	-25203	,	28.615522	,	26
13,14	,	235697	,	-25300	,	-25211	,	28.997261	,	25
13,14	,	235713	,	-25309	,	-25224	,	27.58537	,	22
13,14	,	235746	,	-25314	,	-25230	,	24.382195	,	19
13,14	,	235761	,	-25325	,	-25231	,	19.61845	,	16
13,14	,	235777	,	-25332	,	-25248	,	13.682916	,	13
13,14	,	235809	,	-25335	,	-25245	,	7.070467	,	10
13,14	,	235825	,	-25339	,	-25277	,	0.37160492	,	7
13,14	,	235857	,	-25354	,	-25286	,	-5.867411	,	4
13,14	,	235873	,	-25366	,	-25303	,	-11.3700485	,	1
13,14	,	235889	,	-25379	,	-25295	,	-16.145002	,	0
13,14	,	235921	,	-25386	,	-25329	,	-20.289228	,	0
13,14	,	235937	,	-25403	,	-25375	,	-23.861902	,	0
13,14	,	235953	,	-25419	,	-25399	,	-26.958368	,	0
13,14	,	235985	,	-25438	,	-25425	,	-29.786922	,	0
13,14	,	236001	,	-25450	,	-25441	,	-32.567207	,	0
13,14	,	236033	,	-25468	,	-25452	,	-35.391228	,	0
13,14	,	236049	,	-25474	,	-25473	,	-38.18677	,	0
13,14	,	236065	,	-25479	,	-25485	,	-40.694626	,	0
13,14	,	236097	,	-25477	,	-25505	,	-42.468445	,	0
13,14	,	236113	,	-25499	,	-25537	,	-43.111664	,	0
13,14	,	236129	,	-25496	,	-25528	,	-42.56946	,	0
13,14	,	236161	,	-25509	,	-25571	,	-41.05019	,	0
13,14	,	236177	,	-25526	,	-25609	,	-38.886017	,	1
13,14	,	236193	,	-25533	,	-25615	,	-36.544746	,	3
13,14	,	236225	,	-25533	,	-25621	,	-34.40434	,	5
13,14	,	236241	,	-25543	,	-25633	,	-32.539528	,	7
13,14	,	236273	,	-25558	,	-25643	,	-30.920813	,	8
13,14	,	236289	,	-25569	,	-25655	,	-29.651348	,	9
13,14	,	236305	,	-25570	,	-25663	,	-28.85035	,	10
13,14	,	236337	,	-25569	,	-25663	,	-28.39566	,	10
13,14	,	236353	,	-25576	,	-25663	,	-27.941948	,	10
13,14	,	236369	,	-25566	,	-25661	,	-27.129257	,	9
13,15	,	236401	,	-25569	,	-25675	,	-25.665089	,	7
13,15	,	236417	,	-25577	,	-25671	,	-23.438002	,	6
13,15	,	236449	,	-25567	,	-25675	,	-20.602715	,	6
13,15	,	236465	,	-25569	,	-25675	,	-17.377623	,	7
13,15	,	236481	,	-25578	,	-25682	,	-13.972495	,	9
13,15	,	236513	,	-25580	,	-25681	,	-10.728005	,	11
13,15	,	236529	,	-25574	,	-25689	,	-7.978834	,	14
13,15	,	236545	,	-25574	,	-25681	,	-5.811426	,	16
13,15	,	236577	,	-25593	,	-25679	,	-4.2157903	,	18
13,15	,	236593	,	-25588	,	-25685	,	-3.3253486	,	19
13,15	,	236624	,	-25590	,	-25678	,	-3.2189436	,	18
13,15	,	236641	,	-25587	,	-25687	,	-3.6918569	,	16
13,15	,	236657	,	-25593	,	-25687	,	-4.411255	,	14
13,15	,	236689	,	-25587	,	-25689	,	-5.1111183	,	11
13,15	,	236705	,	-25576	,	-25687	,	-5.538395	,	8
13,15	,	236721	,	-25575	,	-25669	,	-5.3884645	,	5
13,15	,	236753	,	-25572	,	-25675	,	-4.475583	,	3
13,15	,	236769	,	-25540	,	-25656	,	-2.72154	,	1
13,15	,	236785	,	-25538	,	-25657	,	0.058659554	,	1
13,15	,	236817	,	-25539	,	-25636	,	3.894387	,	3
13,15	,	236833	,	-25530	,	-25628	,	8.345334	,	6
13,15	,	236865	,	-25524	,	-25622	,	12.786706	,	10
13,15	,	236881	,	-25515	,	-25621	,	16.758663	,	14
13,15	,	236897	,	-25513	,	-25621	,	19.993717	,	17
13,15	,	236929	,	-25515	,	-25609	,	22.29516	,	20
13,15	,	236945	,	-25525	,	-25620	,	23.417753	,	22
13,15	,	236961	,	-25527	,	-25618	,	23.096823	,	23
13,15	,	236992	,	-25528	,	-25617	,	21.246937	,	22
13,15	,	237009	,	-25530	,	-25602	,	18.092403	,	20
13,15	,	237040	,	-25522	,	-25615	,	14.112541	,	17
13,15	,	237057	,	-25526	,	-25620	,	9.912671	,	13
13,15	,	237072	,	-25529	,	-25621	,	6.013505	,	9
13,15	,	237105	,	-25520	,	-25632	,	2.7343745	,	6
13,15	,	237121	,	-25530	,	-25625	,	0.25149965	,	3
13,15	,	237137	,	-25541	,	-25646	,	-1.4879313	,	1
13,15	,	237168	,	-25543	,	-25626	,	-2.80972	,	0
13,15	,	237184	,	-25533	,	-25633	,	-3.9819708	,	0
13,15	,	237200	,	-25538	,	-25631	,	-4.965338	,	0
13,15	,	237233	,	-25552	,	-25619	,	-5.671666	,	0
13,15	,	237248	,	-25535	,	-25628	,	-6.1626525	,	0
13,15	,	237280	,	-25544	,	-25629	,	-6.4306364	,	0
13,15	,	237297	,	-25534	,	-25621	,	-6.349533	,	0
13,15	,	237312	,	-25539	,	-25621	,	-5.839985	,	0
13,15	,	237344	,	-25530	,	-25623	,	-4.899497	,	0
13,15	,	237361	,	-25546	,	-25605	,	-3.6452956	,	0
13,15	,	237377	,	-25543	,	-25601	,	-2.3794677	,	1
13,16	,	237408	,	-25541	,	-25596	,	-1.4076777	,	2
13,16	,	237424	,	-25501	,	-25590	,	-0.61321044	,	2
13,16	,	237456	,	-25515	,	-25583	,	0.57925546	,	2
13,16	,	237472	,	-25502	,	-25575	,	2.57041	,	3
13,16	,	237489	,	-25501	,	-25586	,	5.2436085	,	4
13,16	,	237520	,	-25504	,	-25590	,	8.199441	,	6
13,16	,	237537	,	-25500	,	-25599	,	10.94021	,	8
13,16	,	237552	,	-25502	,	-25603	,	13.02885	,	10
13,16	,	237584	,	-25511	,	-25627	,	14.169527	,	11
13,16	,	237600	,	-25519	,	-25626	,	14.117479	,	11
13,16	,	237616	,	-25553	,	-25711	,	12.573391	,	11
13,16	,	237649	,	-25568	,	-25737	,	9.137936	,	11
13,16	,	237665	,	-25571	,	-25761	,	3.6427784	,	10
13,16	,	237696	,	-25584	,	-25753	,	-3.4549346	,	9
13,16	,	237712	,	-25577	,	-25743	,	-11.191429	,	7
13,16	,	237728	,	-25558	,	-25743	,	-18.319073	,	5
13,16	,	237760	,	-25560	,	-25721	,	-23.53016	,	3
13,16	,	237776	,	-25548	,	-25702	,	-25.934439	,	1
13,16	,	237792	,	-25547	,	-25695	,	-25.31903	,	0
13,16	,	237824	,	-25550	,	-25697	,	-22.080576	,	0
13,16	,	237840	,	-25536	,	-25652	,	-17.014055	,	3
13,16	,	237872	,	-25508	,	-25618	,	-10.822406	,	8
13,16	,	237888	,	-25500	,	-25607	,	-3.820341	,	14
13,16	,	237904	,	-25490	,	-25593	,	3.7524428	,	21
13,16	,	237937	,	-25497	,	-25579	,	11.355085	,	28
13,16	,	237952	,	-25474	,	-25569	,	18.249817	,	35
13,16	,	237968	,	-25480	,	-25562	,	23.875109	,	41
13,16	,	238000	,	-25475	,	-25543	,	27.910887	,	46
13,16	,	238016	,	-25478	,	-25546	,	30.140434	,	50
13,16	,	238032	,	-25470	,	-25536	,	30.51672	,	49
13,16	,	238064	,	-25474	,	-25553	,	29.241772	,	44
13,16	,	238080	,	-25484	,	-25517	,	26.617302	,	38
13,16	,	238112	,	-25472	,	-25534	,	22.942223	,	31
13,16	,	238128	,	-25463	,	-25527	,	18.704485	,	24
13,16	,	238144	,	-25439	,	-25524	,	14.709924	,	17
13,16	,	238176	,	-25449	,	-25520	,	11.777283	,	11
13,16	,	238192	,	-25444	,	-25527	,	10.229363	,	6
13,16	,	238208	,	-25446	,	-25525	,	9.807828	,	2
13,16	,	238240	,	-25447	,	-25524	,	10.01324	,	0
13,16	,	238256	,	-25434	,	-25522	,	10.410332	,	0
13,16	,	238288	,	-25421	,	-25508	,	10.869638	,	0
13,16	,	238304	,	-25423	,	-25507	,	11.525468	,	0
13,16	,	238320	,	-25415	,	-25467	,	12.43808	,	0
13,16	,	238352	,	-25416	,	-25492	,	13.47854	,	0
13,16	,	238368	,	-25405	,	-25484	,	14.4713955	,	1
13,17	,	238384	,	-25409	,	-25472	,	15.286028	,	1
13,17	,	238416	,	-25408	,	-25471	,	15.78113	,	1
13,17	,	238432	,	-25407	,	-25462	,	15.786493	,	1
13,17	,	238464	,	-25400	,	-25460	,	15.243557	,	1
13,17	,	238480	,	-25403	,	-25461	,	14.263134	,	1
13,17	,	238496	,	-25398	,	-25460	,	13.008509	,	1
13,17	,	238528	,	-25386	,	-25463	,	11.677532	,	1
13,17	,	238544	,	-25406	,	-25475	,	10.454796	,	1
13,17	,	238560	,	-25401	,	-25436	,	9.287203	,	0
13,17	,	238592	,	-25408	,	-25457	,	7.9508214	,	0
13,17	,	238608	,	-25405	,	-25472	,	6.330782	,	0
13,17	,	238624	,	-25425	,	-25488	,	4.399767	,	0
13,17	,	238656	,	-25410	,	-25480	,	2.1413987	,	0
13,17	,	238672	,	-25418	,	-25471	,	-0.28818488	,	0
13,17	,	238704	,	-25432	,	-25477	,	-2.6412864	,	0
13,17	,	238720	,	-25437	,	-25490	,	-4.892373	,	0
13,17	,	238736	,	-25437	,	-25486	,	-7.12923	,	0
13,17	,	238768	,	-25427	,	-25497	,	-9.21993	,	0
13,17	,	238784	,	-25437	,	-25502	,	-10.830584	,	0
13,17	,	238800	,	-25429	,	-25479	,	-11.700931	,	0
13,17	,	238832	,	-25423	,	-25487	,	-11.708719	,	0
13,17	,	238848	,	-25422	,	-25496	,	-10.785336	,	0
13,17	,	238880	,	-25412	,	-25504	,	-8.953133	,	0
13,17	,	238896	,	-25406	,	-25498	,	-6.3127737	,	1
13,17	,	238912	,	-25409	,	-25488	,	-3.052762	,	3
13,17	,	238944	,	-25399	,	-25492	,	0.4940834	,	6
13,17	,	238960	,	-25411	,	-25500	,	3.913436	,	9
13,17	,	238976	,	-25413	,	-25492	,	6.7372055	,	12
13,17	,	239008	,	-25401	,	-25501	,	8.594306	,	14
13,17	,	239024	,	-25408	,	-25520	,	9.447081	,	15
13,17	,	239040	,	-25422	,	-25483	,	9.387869	,	15
13,17	,	239072	,	-25409	,	-25508	,	8.432003	,	15
13,17	,	239088	,	-25413	,	-25500	,	6.760263	,	14
13,17	,	239119	,	-25405	,	-25503	,	4.7926364	,	12
13,17	,	239136	,	-25403	,	-25510	,	2.9735923	,	9
13,17	,	239152	,	-25410	,	-25505	,	1.5961244	,	6
13,17	,	239184	,	-25408	,	-25501	,	0.6990137	,	3
13,17	,	239200	,	-25404	,	-25500	,	0.18135107	,	1
13,17	,	239216	,	-25400	,	-25499	,	0.008975446	,	0
13,17	,	239248	,	-25404	,	-25504	,	0.18631877	,	0
13,17	,	239264	,	-25406	,	-25511	,	0.6028981	,	0
13,17	,	239295	,	-25406	,	-25480	,	1.0528339	,	0
13,17	,	239312	,	-25409	,	-25499	,	1.3686043	,	0
13,17	,	239328	,	-25415	,	-25500	,	1.426536	,	0
13,17	,	239360	,	-25402	,	-25506	,	1.1753739	,	0
13,17	,	239376	,	-25407	,	-25504	,	0.75135815	,	0
13,18	,	239391	,	-25410	,	-25498	,	0.34155107	,	0
13,18	,	239423	,	-25420	,	-25507	,	-0.06763387	,	0
13,18	,	239439	,	-25404	,	-25490	,	-0.5811223	,	0
13,18	,	239455	,	-25409	,	-25493	,	-1.1147426	,	0
13,18	,	239488	,	-25423	,	-25499	,	-1.539172	,	0
13,18	,	239504	,	-25389	,	-25500	,	-1.8145967	,	0
13,18	,	239535	,	-25385	,	-25490	,	-1.6435556	,	0
13,18	,	239551	,	-25388	,	-25484	,	-0.597901	,	0
13,18	,	239567	,	-25376	,	-25476	,	1.3604286	,	1
13,18	,	239600	,	-25364	,	-25478	,	4.010476	,	2
13,18	,	239616	,	-25373	,	-25478	,	7.1083183	,	4
13,18	,	239632	,	-25379	,	-25472	,	10.184015	,	7
13,18	,	239664	,	-25368	,	-25472	,	12.614408	,	10
13,18	,	239680	,	-25372	,	-25463	,	14.040195	,	12
13,18	,	239711	,	-25364	,	-25468	,	14.453272	,	13
13,18	,	239728	,	-25360	,	-25465	,	14.059935	,	13
13,18	,	239744	,	-25360	,	-25470	,	13.178654	,	13
13,18	,	239776	,	-25354	,	-25465	,	12.099386	,	12
13,18	,	239792	,	-25375	,	-25459	,	10.929006	,	11
13,18	,	239809	,	-25363	,	-25454	,	9.550056	,	9
13,18	,	239839	,	-25364	,	-25464	,	7.887918	,	6
13,18	,	239855	,	-25363	,	-25452	,	6.0973377	,	3
13,18	,	239871	,	-25360	,	-25454	,	4.399771	,	1
13,18	,	239903	,	-25358	,	-25452	,	2.9799733	,	0
13,18	,	239919	,	-25363	,	-25447	,	1.9472632	,	0
13,18	,	239951	,	-25355	,	-25451	,	1.2988248	,	0
13,18	,	239967	,	-25353	,	-25441	,	1.0173339	,	0
13,18	,	239984	,	-25360	,	-25448	,	1.0769503	,	0
13,18	,	240016	,	-25369	,	-25456	,	1.2826402	,	0
13,18	,	240031	,	-25374	,	-25447	,	1.2705303	,	0
13,18	,	240047	,	-25380	,	-25449	,	0.7189266	,	0
13,18	,	240080	,	-25377	,	-25454	,	-0.46664238	,	0
13,18	,	240095	,	-25385	,	-25454	,	-2.1380253	,	0
13,18	,	240128	,	-25371	,	-25453	,	-3.9884868	,	0
13,18	,	240143	,	-25388	,	-25454	,	-5.662495	,	0
13,18	,	240159	,	-25393	,	-25457	,	-6.9953384	,	0
13,18	,	240191	,	-25380	,	-25452	,	-8.019713	,	0
13,18	,	240207	,	-25362	,	-25444	,	-8.55309	,	0
13,18	,	240224	,	-25360	,	-25442	,	-8.1303005	,	0
13,18	,	240256	,	-25358	,	-25449	,	-6.4687734	,	0
13,18	,	240272	,	-25347	,	-25423	,	-3.693139	,	1
13,18	,	240287	,	-25338	,	-25438	,	-0.101297855	,	3
13,18	,	240319	,	-25348	,	-25432	,	3.9354722	,	6
13,18	,	240335	,	-25340	,	-25432	,	7.871928	,	10
13,18	,	240367	,	-25325	,	-25425	,	11.231125	,	13
13,19	,	240383	,	-25336	,	-25425	,	13.84118	,	16
13,19	,	240399	,	-25337	,	-25430	,	15.571714	,	18
13,19	,	240431	,	-25346	,	-25427	,	16.168503	,	19
13,19	,	240447	,	-25343	,	-25440	,	15.474413	,	19
13,19	,	240463	,	-25336	,	-25431	,	13.646349	,	18
13,19	,	240495	,	-25342	,	-25437	,	11.116901	,	16
13,19	,	240511	,	-25330	,	-25402	,	8.37846	,	13
13,19	,	240543	,	-25329	,	-25410	,	5.89403	,	9
13,19	,	240559	,	-25335	,	-25410	,	4.0000744	,	6
13,19	,	240575	,	-25322	,	-25412	,	2.7919266	,	3
13,19	,	240607	,	-25329	,	-25417	,	2.236158	,	1
13,19	,	240623	,	-25324	,	-25414	,	2.2300735	,	0
13,19	,	240639	,	-25331	,	-25418	,	2.5601597	,	0
13,19	,	240671	,	-25330	,	-25413	,	2.957707	,	0
13,19	,	240687	,	-25336	,	-25407	,	3.1742148	,	0
13,19	,	240703	,	-25342	,	-25410	,	3.002907	,	0
13,19	,	240735	,	-25328	,	-25436	,	2.366744	,	0
13,19	,	240751	,	-25337	,	-25387	,	1.4323896	,	0
13,19	,	240783	,	-25340	,	-25413	,	0.42413235	,	0
13,19	,	240799	,	-25343	,	-25427	,	-0.60096276	,	0
13,19	,	240815	,	-25351	,	-25411	,	-1.6938841	,	0
13,19	,	240847	,	-25355	,	-25422	,	-2.9344563	,	0
13,19	,	240863	,	-25355	,	-25417	,	-4.3577123	,	0
13,19	,	240879	,	-25365	,	-25418	,	-5.8982553	,	0
13,19	,	240911	,	-25368	,	-25426	,	-7.4790835	,	0
13,19	,	240927	,	-25356	,	-25427	,	-8.977106	,	0
13,19	,	240959	,	-25371	,	-25423	,	-10.150375	,	0
13,19	,	240975	,	-25367	,	-25441	,	-10.837225	,	0
13,19	,	240991	,	-25363	,	-25395	,	-11.013298	,	0
13,19	,	241023	,	-25340	,	-25407	,	-10.52344	,	0
13,19	,	241039	,	-25337	,	-25401	,	-9.014011	,	0
13,19	,	241055	,	-25335	,	-25398	,	-6.2839847	,	1
13,19	,	241087	,	-25325	,	-25397	,	-2.5429106	,	3
13,19	,	241103	,	-25319	,	-25382	,	1.7818265	,	6
13,19	,	241135	,	-25322	,	-25395	,	6.2296667	,	10
13,19	,	241151	,	-25325	,	-25394	,	10.255426	,	14
13,19	,	241167	,	-25330	,	-25391	,	13.274076	,	18
13,19	,	241199	,	-25316	,	-25379	,	14.92602	,	21
13,19	,	241215	,	-25317	,	-25405	,	15.287966	,	22
13,19	,	241231	,	-25319	,	-25373	,	14.695239	,	22
13,19	,	241263	,	-25323	,	-25391	,	13.413927	,	21
13,19	,	241279	,	-25332	,	-25387	,	11.550312	,	19
13,19	,	241295	,	-25328	,	-25387	,	9.153614	,	16
13,19	,	241327	,	-25316	,	-25387	,	6.443821	,	12
13,19	,	241343	,	-25311	,	-25389	,	3.9214444	,	8
13,19	,	241375	,	-25323	,	-25388	,	2.0495524	,	4
13,20	,	241391	,	-25325	,	-25385	,	0.88011456	,	1
13,20	,	241407	,	-25324	,	-25384	,	0.16002417	,	0
13,20	,	241439	,	-25331	,	-25363	,	-0.36455745	,	0
13,20	,	241455	,	-25331	,	-25400	,	-0.8753995	,	0
13,20	,	241471	,	-25332	,	-25366	,	-1.4739882	,	0
13,20	,	241503	,	-25338	,	-25388	,	-2.1743913	,	0
13,20	,	241519	,	-25336	,	-25388	,	-2.9570346	,	0
13,20	,	241551	,	-25344	,	-25369	,	-3.787491	,	0
13,20	,	241567	,	-25338	,	-25391	,	-4.609265	,	0
13,20	,	241583	,	-25346	,	-25392	,	-5.3377366	,	0
13,20	,	241615	,	-25352	,	-25402	,	-5.94181	,	0
13,20	,	241631	,	-25342	,	-25398	,	-6.4532843	,	0
13,20	,	241647	,	-25361	,	-25402	,	-6.870901	,	0
13,20	,	241679	,	-25362	,	-25399	,	-7.2713156	,	0
13,20	,	241695	,	-25354	,	-25412	,	-7.7585096	,	0
13,20	,	241711	,	-25364	,	-25387	,	-8.243126	,	0
13,20	,	241743	,	-25360	,	-25413	,	-8.574368	,	0
13,20	,	241759	,	-25357	,	-25410	,	-8.653268	,	0
13,20	,	241791	,	-25350	,	-25404	,	-8.333053	,	0
13,20	,	241807	,	-25349	,	-25396	,	-7.452477	,	0
13,20	,	241823	,	-25335	,	-25397	,	-5.912669	,	0
13,20	,	241855	,	-25345	,	-25393	,	-3.7305338	,	1
13,20	,	241871	,	-25332	,	-25397	,	-1.1170568	,	3
13,20	,	241887	,	-25334	,	-25390	,	1.6235168	,	5
13,20	,	241919	,	-25322	,	-25391	,	4.2738647	,	7
13,20	,	241935	,	-25332	,	-25403	,	6.676261	,	9
13,20	,	241967	,	-25326	,	-25373	,	8.619631	,	11
13,20	,	241983	,	-25344	,	-25381	,	9.822998	,	12
13,20	,	241999	,	-25345	,	-25393	,	9.984599	,	13
13,20	,	242030	,	-25345	,	-25392	,	8.954306	,	13
13,20	,	242046	,	-25330	,	-25380	,	6.9871435	,	12
13,20	,	242063	,	-25333	,	-25383	,	4.703417	,	10
13,20	,	242095	,	-25342	,	-25391	,	2.6468406	,	8
13,20	,	242111	,	-25338	,	-25381	,	0.98605347	,	6
13,20	,	242127	,	-25333	,	-25387	,	-0.2749815	,	4
13,20	,	242159	,	-25343	,	-25380	,	-1.1115247	,	2
13,20	,	242175	,	-25332	,	-25387	,	-1.5560954	,	1
13,20	,	242206	,	-25337	,	-25392	,	-1.6586617	,	0
13,20	,	242222	,	-25337	,	-25386	,	-1.4625558	,	0
13,20	,	242238	,	-25349	,	-25396	,	-1.1351428	,	0
13,20	,	242271	,	-25338	,	-25396	,	-0.924103	,	0
13,20	,	242287	,	-25346	,	-25390	,	-0.94227403	,	0
13,20	,	242303	,	-25349	,	-25391	,	-1.1771035	,	0
13,20	,	242335	,	-25348	,	-25387	,	-1.6218479	,	0
13,20	,	242351	,	-25358	,	-25389	,	-2.266822	,	0
13,20	,	242383	,	-25356	,	-25396	,	-3.0992005	,	0
13,21	,	242399	,	-25358	,	-25385	,	-4.0712757	,	0
13,21	,	242415	,	-25355	,	-25391	,	-5.027194	,	0
13,21	,	242446	,	-25360	,	-25400	,	-5.7747555	,	0
13,21	,	242463	,	-25358	,	-25388	,	-6.2090917	,	0
13,21	,	242479	,	-25363	,	-25395	,	-6.330531	,	0
13,21	,	242511	,	-25349	,	-25389	,	-6.1429977	,	0
13,21	,	242527	,	-25342	,	-25389	,	-5.5154305	,	0
13,21	,	242543	,	-25339	,	-25389	,	-4.2418966	,	0
13,21	,	242575	,	-25338	,	-25382	,	-2.2902553	,	1
13,21	,	242591	,	-25336	,	-25376	,	0.11538792	,	2
13,21	,	242622	,	-25342	,	-25376	,	2.5964584	,	4
13,21	,	242638	,	-25317	,	-25380	,	4.844697	,	6
13,21	,	242655	,	-25319	,	-25383	,	6.8625693	,	8
13,21	,	242687	,	-25337	,	-25393	,	8.686562	,	10
13,21	,	242702	,	-25338	,	-25369	,	9.971386	,	11
13,21	,	242734	,	-25352	,	-25383	,	10.207279	,	12
13,21	,	242750	,	-25342	,	-25394	,	9.149471	,	12
13,21	,	242766	,	-25332	,	-25384	,	7.05716	,	11
13,21	,	242798	,	-25341	,	-25386	,	4.5742517	,	10
13,21	,	242815	,	-25335	,	-25380	,	2.2583246	,	8
13,21	,	242830	,	-25338	,	-25383	,	0.3905084	,	6
13,21	,	242862	,	-25340	,	-25355	,	-0.9268162	,	4
13,21	,	242878	,	-25335	,	-25389	,	-1.7135447	,	2
13,21	,	242894	,	-25339	,	-25380	,	-2.0354118	,	1
13,21	,	242926	,	-25353	,	-25408	,	-2.0572379	,	0
13,21	,	242942	,	-25352	,	-25359	,	-2.114046	,	0
13,21	,	242974	,	-25356	,	-25383	,	-2.4926658	,	0
13,21	,	242990	,	-25346	,	-25386	,	-3.1931415	,	0
13,21	,	243006	,	-25352	,	-25393	,	-3.9735775	,	0
13,21	,	243038	,	-25364	,	-25390	,	-4.643628	,	0
13,21	,	243054	,	-25362	,	-25383	,	-5.250984	,	0
13,21	,	243070	,	-25368	,	-25394	,	-5.906596	,	0
13,21	,	243102	,	-25376	,	-25397	,	-6.657913	,	0
13,21	,	243118	,	-25371	,	-25392	,	-7.518959	,	0
13,21	,	243150	,	-25383	,	-25417	,	-8.4347105	,	0
13,21	,	243167	,	-25368	,	-25362	,	-9.267543	,	0
13,21	,	243182	,	-25362	,	-25396	,	-9.7356	,	0
13,21	,	243214	,	-25356	,	-25385	,	-9.445237	,	0
13,21	,	243230	,	-25345	,	-25372	,	-8.1158085	,	0
13,21	,	243246	,	-25343	,	-25369	,	-5.691546	,	1
13,21	,	243278	,	-25342	,	-25371	,	-2.383346	,	3
13,21	,	243294	,	-25331	,	-25377	,	1.3874319	,	6
13,21	,	243310	,	-25342	,	-25340	,	5.1532183	,	9
13,21	,	243343	,	-25337	,	-25367	,	8.424149	,	12
13,21	,	243358	,	-25327	,	-25363	,	10.826598	,	15
13,22	,	243390	,	-25339	,	-25382	,	12.2688055	,	17
13,22	,	243406	,	-25345	,	-25353	,	12.71633	,	18
13,22	,	243422	,	-25349	,	-25342	,	12.043778	,	18
13,22	,	243454	,	-25351	,	-25362	,	10.238226	,	17
13,22	,	243470	,	-25348	,	-25340	,	7.5520954	,	15
13,22	,	243486	,	-25340	,	-25373	,	4.493251	,	12
13,22	,	243518	,	-25354	,	-25369	,	1.6159239	,	9
13,22	,	243534	,	-25349	,	-25352	,	-0.7766094	,	6
13,22	,	243566	,	-25346	,	-25369	,	-2.590868	,	3
13,22	,	243582	,	-25347	,	-25357	,	-3.7521377	,	1
13,22	,	243598	,	-25348	,	-25342	,	-4.24627	,	0
13,22	,	243630	,	-25342	,	-25375	,	-4.148781	,	0
13,22	,	243646	,	-25352	,	-25338	,	-3.591449	,	0
13,22	,	243662	,	-25363	,	-25365	,	-2.869029	,	0
13,22	,	243694	,	-25362	,	-25363	,	-2.409955	,	0
13,22	,	243710	,	-25351	,	-25363	,	-2.4181523	,	0
13,22	,	243726	,	-25368	,	-25352	,	-2.762506	,	0
13,22	,	243758	,	-25366	,	-25372	,	-3.3170533	,	0
13,22	,	243774	,	-25365	,	-25352	,	-4.0443563	,	0
13,22	,	243806	,	-25362	,	-25374	,	-4.7923145	,	0
13,22	,	243822	,	-25363	,	-25369	,	-5.328655	,	0
13,22	,	243838	,	-25361	,	-25373	,	-5.4954567	,	0
13,22	,	243870	,	-25366	,	-25380	,	-5.269519	,	0
13,22	,	243886	,	-25370	,	-25349	,	-4.7766333	,	0
13,22	,	243902	,	-25349	,	-25358	,	-4.1274424	,	0
13,22	,	243934	,	-25340	,	-25356	,	-3.1453948	,	0
13,22	,	243950	,	-25336	,	-25356	,	-1.4925103	,	0
13,22	,	243982	,	-25336	,	-25358	,	0.91119266	,	1
13,22	,	243998	,	-25330	,	-25339	,	3.7909312	,	3
13,22	,	244014	,	-25326	,	-25351	,	6.7560124	,	5
13,22	,	244046	,	-25329	,	-25351	,	9.461623	,	7
13,22	,	244062	,	-25336	,	-25346	,	11.55653	,	9
13,22	,	244078	,	-25333	,	-25345	,	12.692293	,	11
13,22	,	244110	,	-25341	,	-25351	,	12.682415	,	12
13,22	,	244126	,	-25343	,	-25351	,	11.54598	,	12
13,22	,	244142	,	-25335	,	-25359	,	9.495616	,	12
13,22	,	244174	,	-25340	,	-25356	,	6.9445996	,	11
13,22	,	244190	,	-25338	,	-25353	,	4.340426	,	9
13,22	,	244222	,	-25331	,	-25350	,	2.0350938	,	7
13,22	,	244238	,	-25348	,	-25339	,	0.24069619	,	5
13,22	,	244254	,	-25337	,	-25335	,	-1.0621269	,	3
13,22	,	244286	,	-25325	,	-25350	,	-1.906616	,	1
13,22	,	244302	,	-25341	,	-25336	,	-2.1837387	,	0
13,22	,	244318	,	-25328	,	-25334	,	-1.914144	,	0
13,22	,	244350	,	-25344	,	-25356	,	-1.3213649	,	0
13,22	,	244366	,	-25344	,	-25336	,	-0.7248453	,	0
13,23	,	244397	,	-25340	,	-25348	,	-0.41122258	,	0
13,23	,	244414	,	-25349	,	-25349	,	-0.4622689	,	0
13,23	,	244430	,	-25349	,	-25354	,	-0.848425	,	0
13,23	,	244461	,	-25351	,	-25350	,	-1.5329875	,	0
13,23	,	244478	,	-25355	,	-25356	,	-2.428882	,	0
13,23	,	244494	,	-25354	,	-25360	,	-3.4230046	,	0
13,23	,	244526	,	-25358	,	-25349	,	-4.402212	,	0
13,23	,	244542	,	-25352	,	-25353	,	-5.240698	,	0
13,23	,	244574	,	-25361	,	-25350	,	-5.8255415	,	0
13,23	,	244590	,	-25351	,	-25362	,	-6.093645	,	0
13,23	,	244606	,	-25353	,	-25342	,	-5.9907484	,	0
13,23	,	244637	,	-25340	,	-25345	,	-5.4238057	,	0
13,23	,	244653	,	-25336	,	-25323	,	-4.2681084	,	0
13,23	,	244670	,	-25330	,	-25335	,	-2.4389658	,	1
13,23	,	244702	,	-25332	,	-25324	,	-0.030179262	,	2
13,23	,	244718	,	-25324	,	-25308	,	2.675638	,	4
13,23	,	244734	,	-25321	,	-25321	,	5.3754916	,	6
13,23	,	244766	,	-25316	,	-25330	,	7.8591695	,	8
13,23	,	244782	,	-25324	,	-25326	,	9.939204	,	10
13,23	,	244813	,	-25321	,	-25308	,	11.3689995	,	12
13,23	,	244829	,	-25312	,	-25328	,	12.0009165	,	13
13,23	,	244846	,	-25323	,	-25348	,	11.913282	,	13
13,23	,	244877	,	-25320	,	-25320	,	11.218769	,	12
13,23	,	244893	,	-25325	,	-25333	,	9.96299	,	11
13,23	,	244910	,	-25324	,	-25327	,	8.234768	,	9
13,23	,	244941	,	-25307	,	-25318	,	6.2891064	,	7
13,23	,	244958	,	-25316	,	-25302	,	4.5390396	,	5
13,23	,	244989	,	-25310	,	-25309	,	3.2810473	,	3
13,23	,	245006	,	-25315	,	-25318	,	2.5419035	,	1
13,23	,	245022	,	-25324	,	-25319	,	2.1488376	,	0
13,23	,	245053	,	-25325	,	-25323	,	1.7926147	,	0
13,23	,	245069	,	-25333	,	-25310	,	1.1728172	,	0
13,23	,	245085	,	-25335	,	-25340	,	0.11950827	,	0
13,23	,	245117	,	-25322	,	-25314	,	-1.3043493	,	0
13,23	,	245133	,	-25328	,	-25324	,	-2.75339	,	0
13,23	,	245149	,	-25323	,	-25329	,	-3.843978	,	0
13,23	,	245181	,	-25331	,	-25325	,	-4.4098063	,	0
13,23	,	245197	,	-25334	,	-25339	,	-4.5273547	,	0
13,23	,	245229	,	-25331	,	-25327	,	-4.389452	,	0
13,23	,	245245	,	-25350	,	-25330	,	-4.2100725	,	0
13,23	,	245261	,	-25342	,	-25330	,	-4.2415104	,	0
13,23	,	245293	,	-25342	,	-25311	,	-4.6006308	,	0
13,23	,	245309	,	-25336	,	-25330	,	-5.1030674	,	0
13,23	,	245325	,	-25352	,	-25352	,	-5.507962	,	0
13,23	,	245358	,	-25341	,	-25328	,	-5.756612	,	0
13,23	,	245374	,	-25335	,	-25322	,	-5.801733	,	0
13,24	,	245405	,	-25339	,	-25318	,	-5.4852448	,	0
13,24	,	245422	,	-25329	,	-25310	,	-4.7094064	,	0
13,24	,	245437	,	-25310	,	-25309	,	-3.382702	,	0
13,24	,	245470	,	-25314	,	-25314	,	-1.3265564	,	1
13,24	,	245486	,	-25316	,	-25315	,	1.4094784	,	3
13,24	,	245501	,	-25315	,	-25298	,	4.385512	,	5
13,24	,	245533	,	-25311	,	-25309	,	7.076806	,	7
13,24	,	245549	,	-25305	,	-25307	,	9.177067	,	9
13,24	,	245565	,	-25312	,	-25325	,	10.592949	,	11
13,24	,	245598	,	-25316	,	-25295	,	11.245361	,	12
13,24	,	245613	,	-25297	,	-25312	,	11.115452	,	12
13,24	,	245645	,	-25316	,	-25289	,	10.391603	,	12
13,24	,	245661	,	-25305	,	-25305	,	9.2682705	,	11
13,24	,	245677	,	-25311	,	-25311	,	7.851488	,	9
13,24	,	245709	,	-25308	,	-25305	,	6.2826304	,	7
13,24	,	245725	,	-25308	,	-25296	,	4.7153234	,	5
13,24	,	245741	,	-25310	,	-25308	,	3.2709892	,	3
13,24	,	245773	,	-25315	,	-25298	,	2.0010147	,	1
13,24	,	245789	,	-25315	,	-25298	,	0.8653035	,	0
13,24	,	245821	,	-25323	,	-25323	,	-0.21725845	,	0
13,24	,	245837	,	-25307	,	-25267	,	-1.2573972	,	0
13,24	,	245853	,	-25324	,	-25305	,	-2.1430547	,	0
13,24	,	245885	,	-25313	,	-25304	,	-2.791837	,	0
13,24	,	245901	,	-25322	,	-25306	,	-3.2114904	,	0
13,24	,	245917	,	-25323	,	-25319	,	-3.4458842	,	0
13,24	,	245949	,	-25325	,	-25314	,	-3.5920396	,	0
13,24	,	245965	,	-25339	,	-25307	,	-3.806538	,	0
13,24	,	245981	,	-25342	,	-25318	,	-4.308941	,	0
13,24	,	246013	,	-25345	,	-25320	,	-5.2597957	,	0
13,24	,	246029	,	-25325	,	-25305	,	-6.502544	,	0
13,24	,	246061	,	-25340	,	-25327	,	-7.5737453	,	0
13,24	,	246077	,	-25320	,	-25284	,	-8.040877	,	0
13,24	,	246093	,	-25325	,	-25289	,	-7.663292	,	0
13,24	,	246125	,	-25305	,	-25283	,	-6.3184605	,	0
13,24	,	246141	,	-25302	,	-25299	,	-3.9641047	,	1
13,24	,	246157	,	-25307	,	-25284	,	-0.7476065	,	3
13,24	,	246189	,	-25305	,	-25288	,	2.8563292	,	6
13,24	,	246205	,	-25298	,	-25284	,	6.2613325	,	9
13,24	,	246237	,	-25292	,	-25302	,	9.113263	,	12
13,24	,	246253	,	-25307	,	-25278	,	11.236968	,	14
13,24	,	246269	,	-25306	,	-25289	,	12.400948	,	16
13,24	,	246301	,	-25315	,	-25293	,	12.3679	,	17
13,24	,	246317	,	-25310	,	-25277	,	11.109858	,	17
13,24	,	246333	,	-25297	,	-25292	,	8.954273	,	16
13,24	,	246365	,	-25304	,	-25309	,	6.5072427	,	14
13,24	,	246381	,	-25303	,	-25278	,	4.269907	,	11
13,25	,	246397	,	-25300	,	-25279	,	2.4579825	,	8
13,25	,	246429	,	-25295	,	-25283	,	1.1834836	,	5
13,25	,	246445	,	-25307	,	-25290	,	0.4786532	,	3
13,25	,	246477	,	-25304	,	-25267	,	0.17812026	,	1
13,25	,	246493	,	-25326	,	-25291	,	-0.062592685	,	0
13,25	,	246509	,	-25302	,	-25287	,	-0.56793696	,	0
13,25	,	246541	,	-25307	,	-25288	,	-1.3181634	,	0
13,25	,	246557	,	-25305	,	-25272	,	-1.998487	,	0
13,25	,	246573	,	-25315	,	-25286	,	-2.423738	,	0
13,25	,	246605	,	-25320	,	-25265	,	-2.6946063	,	0
13,25	,	246621	,	-25320	,	-25258	,	-3.0233717	,	0
13,25	,	246653	,	-25319	,	-25276	,	-3.5058184	,	0
13,25	,	246669	,	-25313	,	-25278	,	-4.035776	,	0
13,25	,	246685	,	-25322	,	-25264	,	-4.4301243	,	0
13,25	,	246717	,	-25316	,	-25255	,	-4.59316	,	0
13,25	,	246733	,	-25322	,	-25255	,	-4.529854	,	0
13,25	,	246749	,	-25305	,	-25247	,	-4.223424	,	0
13,25	,	246781	,	-25289	,	-25234	,	-3.458668	,	0
13,25	,	246797	,	-25271	,	-25211	,	-1.7982576	,	0
13,25	,	246813	,	-25275	,	-25188	,	1.0719154	,	1
13,25	,	246845	,	-25248	,	-25161	,	5.068282	,	3
13,25	,	246861	,	-25240	,	-25145	,	9.911505	,	6
13,25	,	246893	,	-25223	,	-25137	,	15.324523	,	10
13,25	,	246909	,	-25227	,	-25139	,	20.912216	,	15
13,25	,	246925	,	-25236	,	-25150	,	25.987642	,	20
13,25	,	246957	,	-25240	,	-25149	,	29.63755	,	25
13,25	,	246973	,	-25241	,	-25146	,	31.118038	,	28
13,25	,	246989	,	-25242	,	-25165	,	30.205112	,	29
13,25	,	247021	,	-25238	,	-25166	,	27.212067	,	28
13,25	,	247037	,	-25249	,	-25159	,	22.754692	,	26
13,25	,	247068	,	-25254	,	-25147	,	17.43061	,	23
13,25	,	247084	,	-25256	,	-25185	,	11.711486	,	19
13,25	,	247101	,	-25259	,	-25162	,	6.039612	,	14
13,25	,	247133	,	-25261	,	-25167	,	0.8386326	,	9
13,25	,	247148	,	-25253	,	-25179	,	-3.5179782	,	4
13,25	,	247165	,	-25261	,	-25179	,	-6.732527	,	1
13,25	,	247197	,	-25263	,	-25173	,	-8.715849	,	0
13,25	,	247213	,	-25264	,	-25189	,	-9.624789	,	0
13,25	,	247245	,	-25282	,	-25200	,	-9.787962	,	0
13,25	,	247261	,	-25277	,	-25212	,	-9.649145	,	0
13,25	,	247277	,	-25297	,	-25232	,	-9.624154	,	0
13,25	,	247308	,	-25327	,	-25239	,	-10.156353	,	0
13,25	,	247324	,	-25340	,	-25295	,	-11.828038	,	0
13,25	,	247340	,	-25350	,	-25281	,	-14.991439	,	0
13,25	,	247373	,	-25346	,	-25295	,	-19.360687	,	0
13,26	,	247389	,	-25359	,	-25300	,	-24.132687	,	0
13,26	,	247405	,	-25358	,	-25309	,	-28.433836	,	0
13,26	,	247437	,	-25368	,	-25307	,	-31.628233	,	0
13,26	,	247453	,	-25364	,	-25321	,	-33.367237	,	0
13,26	,	247484	,	-25370	,	-25336	,	-33.54046	,	0
13,26	,	247500	,	-25377	,	-25335	,	-32.271866	,	0
13,26	,	247516	,	-25368	,	-25364	,	-29.864738	,	1
13,26	,	247549	,	-25373	,	-25344	,	-26.61494	,	3
13,26	,	247565	,	-25354	,	-25341	,	-22.706966	,	6
13,26	,	247581	,	-25356	,	-25326	,	-18.227116	,	9
13,26	,	247612	,	-25341	,	-25324	,	-13.245695	,	13
13,26	,	247628	,	-25331	,	-25315	,	-7.8600025	,	17
13,26	,	247660	,	-25334	,	-25312	,	-2.2316113	,	22
13,26	,	247676	,	-25339	,	-25295	,	3.2253008	,	27
13,26	,	247693	,	-25334	,	-25291	,	7.8927116	,	32
13,26	,	247725	,	-25333	,	-25285	,	11.312207	,	35
13,26	,	247740	,	-25328	,	-25299	,	13.363846	,	36
13,26	,	247757	,	-25330	,	-25315	,	14.169485	,	35
13,26	,	247789	,	-25325	,	-25273	,	13.961103	,	32
13,26	,	247804	,	-25321	,	-25264	,	13.042883	,	28
13,26	,	247820	,	-25336	,	-25283	,	11.685978	,	24
13,26	,	247852	,	-25332	,	-25259	,	9.971983	,	19
13,26	,	247868	,	-25326	,	-25270	,	7.954389	,	14
13,26	,	247900	,	-25327	,	-25260	,	5.870022	,	9
13,26	,	247916	,	-25340	,	-25263	,	3.9351263	,	5
13,26	,	247933	,	-25336	,	-25257	,	2.145461	,	2
13,26	,	247965	,	-25334	,	-25268	,	0.47417736	,	0
13,26	,	247980	,	-25329	,	-25265	,	-0.9350219	,	0
13,26	,	247996	,	-25328	,	-25259	,	-1.8700182	,	0
13,26	,	248028	,	-25344	,	-25243	,	-2.291398	,	0
13,26	,	248044	,	-25347	,	-25267	,	-2.4763453	,	0
13,26	,	248076	,	-25335	,	-25253	,	-2.7470427	,	0
13,26	,	248092	,	-25348	,	-25258	,	-3.143829	,	0
13,26	,	248108	,	-25357	,	-25262	,	-3.6431963	,	0
13,26	,	248140	,	-25348	,	-25251	,	-4.329174	,	0
13,26	,	248156	,	-25343	,	-25279	,	-5.105419	,	0
13,26	,	248172	,	-25344	,	-25256	,	-5.6477513	,	0
13,26	,	248204	,	-25331	,	-25269	,	-5.6581993	,	0
13,26	,	248220	,	-25319	,	-25248	,	-4.887272	,	0
13,26	,	248237	,	-25315	,	-25256	,	-3.1214314	,	0
13,26	,	248268	,	-25321	,	-25233	,	-0.42126298	,	1
13,26	,	248284	,	-25313	,	-25245	,	2.7808888	,	3
13,26	,	248316	,	-25321	,	-25261	,	5.9174175	,	6
13,26	,	248332	,	-25310	,	-25243	,	8.519751	,	9
13,26	,	248348	,	-25318	,	-25249	,	10.313227	,	11
13,26	,	248380	,	-25314	,	-25232	,	11.194126	,	12
13,27	,	248396	,	-25323	,	-25258	,	11.144751	,	12
13,27	,	248412	,	-25329	,	-25267	,	10.168523	,	12
13,27	,	248444	,	-25336	,	-25264	,	8.270961	,	12
13,27	,	248460	,	-25328	,	-25277	,	5.592782	,	11
13,27	,	248492	,	-25338	,	-25314	,	2.5038218	,	9
13,27	,	248508	,	-25343	,	-25264	,	-0.612422	,	6
13,27	,	248524	,	-25358	,	-25316	,	-3.6055233	,	3
13,27	,	248556	,	-25356	,	-25324	,	-6.4993896	,	1
13,27	,	248572	,	-25361	,	-25338	,	-9.251332	,	0
13,27	,	248588	,	-25374	,	-25334	,	-11.729661	,	0
13,27	,	248620	,	-25371	,	-25345	,	-13.860532	,	0
13,27	,	248636	,	-25361	,	-25341	,	-15.504805	,	0
13,27	,	248652	,	-25370	,	-25352	,	-16.370422	,	0
13,27	,	248684	,	-25367	,	-25355	,	-16.284534	,	0
13,27	,	248700	,	-25369	,	-25358	,	-15.32622	,	0
13,27	,	248732	,	-25379	,	-25371	,	-13.745735	,	0
13,27	,	248748	,	-25385	,	-25345	,	-11.951553	,	1
13,27	,	248764	,	-25385	,	-25367	,	-10.379749	,	2
13,27	,	248796	,	-25386	,	-25380	,	-9.254393	,	3
13,27	,	248812	,	-25393	,	-25368	,	-8.576227	,	4
13,27	,	248828	,	-25392	,	-25373	,	-8.276189	,	4
13,27	,	248860	,	-25408	,	-25367	,	-8.317999	,	4
13,27	,	248876	,	-25396	,	-25356	,	-8.682978	,	4
13,27	,	248908	,	-25390	,	-25353	,	-9.1707735	,	4
13,27	,	248924	,	-25398	,	-25348	,	-9.404493	,	4
13,27	,	248940	,	-25385	,	-25342	,	-9.119541	,	3
13,27	,	248972	,	-25364	,	-25346	,	-8.095301	,	2
13,27	,	248988	,	-25360	,	-25304	,	-6.000596	,	2
13,27	,	249004	,	-25350	,	-25318	,	-2.6710358	,	3
13,27	,	249036	,	-25339	,	-25301	,	1.7078199	,	6
13,27	,	249052	,	-25333	,	-25276	,	6.7457933	,	10
13,27	,	249068	,	-25327	,	-25286	,	11.954749	,	15
13,27	,	249100	,	-25324	,	-25273	,	16.801039	,	20
13,27	,	249116	,	-25318	,	-25273	,	20.815748	,	24
13,27	,	249148	,	-25324	,	-25270	,	23.65218	,	28
13,27	,	249164	,	-25322	,	-25260	,	25.056915	,	30
13,27	,	249180	,	-25318	,	-25276	,	24.93959	,	30
13,27	,	249212	,	-25336	,	-25266	,	23.397324	,	28
13,27	,	249228	,	-25313	,	-25245	,	20.648773	,	25
13,27	,	249244	,	-25319	,	-25253	,	17.151257	,	21
13,27	,	249276	,	-25318	,	-25240	,	13.505303	,	16
13,27	,	249292	,	-25316	,	-25257	,	10.134436	,	11
13,27	,	249324	,	-25298	,	-25242	,	7.3491125	,	7
13,27	,	249340	,	-25300	,	-25250	,	5.4997487	,	3
13,27	,	249356	,	-25302	,	-25247	,	4.75196	,	1
13,28	,	249388	,	-25303	,	-25235	,	4.875416	,	0
13,28	,	249404	,	-25302	,	-25222	,	5.419163	,	0
13,28	,	249420	,	-25305	,	-25232	,	5.9752216	,	0
13,28	,	249452	,	-25292	,	-25231	,	6.324684	,	0
13,28	,	249468	,	-25308	,	-25235	,	6.426487	,	0
13,28	,	249484	,	-25314	,	-25232	,	6.1732593	,	0
13,28	,	249516	,	-25317	,	-25236	,	5.3313184	,	0
13,28	,	249531	,	-25322	,	-25259	,	3.7856107	,	0
13,28	,	249564	,	-25327	,	-25262	,	1.6200118	,	0
13,28	,	249580	,	-25338	,	-25258	,	-1.0087016	,	0
13,28	,	249596	,	-25338	,	-25263	,	-3.9389668	,	0
13,28	,	249627	,	-25334	,	-25263	,	-6.9101334	,	0
13,28	,	249643	,	-25336	,	-25272	,	-9.513265	,	0
13,28	,	249660	,	-25318	,	-25253	,	-11.289855	,	0
13,28	,	249692	,	-25323	,	-25259	,	-11.839718	,	0
13,28	,	249708	,	-25318	,	-25272	,	-11.013408	,	0
13,28	,	249740	,	-25323	,	-25260	,	-9.039026	,	0
13,28	,	249756	,	-25314	,	-25278	,	-6.3625045	,	1
13,28	,	249772	,	-25320	,	-25282	,	-3.4306045	,	3
13,28	,	249803	,	-25327	,	-25276	,	-0.6771755	,	5
13,28	,	249820	,	-25319	,	-25265	,	1.4940405	,	7
13,28	,	249836	,	-25320	,	-25275	,	2.9064794	,	9
13,28	,	249868	,	-25337	,	-25265	,	3.550215	,	10
13,28	,	249884	,	-25331	,	-25287	,	3.358957	,	10
13,28	,	249915	,	-25323	,	-25267	,	2.407196	,	10
13,28	,	249931	,	-25328	,	-25273	,	1.083425	,	10
13,28	,	249948	,	-25328	,	-25280	,	-0.20308506	,	9
13,28	,	249980	,	-25332	,	-25281	,	-1.2611996	,	7
13,28	,	249996	,	-25322	,	-25277	,	-2.0212584	,	5
13,28	,	250012	,	-25315	,	-25281	,	-2.351367	,	3
13,28	,	250044	,	-25321	,	-25281	,	-2.0977921	,	1
13,28	,	250060	,	-25321	,	-25278	,	-1.3173563	,	0
13,28	,	250076	,	-25338	,	-25282	,	-0.35706627	,	0
13,28	,	250108	,	-25339	,	-25265	,	0.27977377	,	0
13,28	,	250123	,	-25343	,	-25261	,	0.20085216	,	0
13,28	,	250155	,	-25331	,	-25273	,	-0.60747135	,	0
13,28	,	250171	,	-25333	,	-25277	,	-1.77493	,	0
13,28	,	250187	,	-25346	,	-25300	,	-2.9050484	,	0
13,28	,	250219	,	-25342	,	-25291	,	-3.8800414	,	0
13,28	,	250235	,	-25348	,	-25270	,	-4.731253	,	0
13,28	,	250252	,	-25358	,	-25298	,	-5.5116215	,	0
13,28	,	250283	,	-25356	,	-25284	,	-6.3286495	,	0
13,28	,	250299	,	-25360	,	-25295	,	-7.2238274	,	0
13,28	,	250331	,	-25355	,	-25287	,	-8.077887	,	0
13,28	,	250347	,	-25346	,	-25291	,	-8.633029	,	0
13,28	,	250364	,	-25342	,	-25258	,	-8.553397	,	0
13,29	,	250396	,	-25333	,	-25260	,	-7.5746202	,	0
13,29	,	250412	,	-25329	,	-25244	,	-5.6193123	,	0
13,29	,	250428	,	-25337	,	-25278	,	-2.878008	,	1
13,29	,	250459	,	-25332	,	-25263	,	0.17636037	,	3
13,29	,	250475	,	-25314	,	-25241	,	3.1074376	,	6
13,29	,	250491	,	-25316	,	-25258	,	5.806915	,	8
13,29	,	250523	,	-25310	,	-25248	,	8.292125	,	10
13,29	,	250539	,	-25327	,	-25260	,	10.391256	,	12
13,29	,	250571	,	-25340	,	-25268	,	11.645956	,	14
13,29	,	250587	,	-25356	,	-25312	,	11.445265	,	15
13,29	,	250603	,	-25368	,	-25353	,	9.343157	,	15
13,29	,	250635	,	-25379	,	-25364	,	5.290675	,	14
13,29	,	250651	,	-25379	,	-25378	,	-0.30595493	,	12
13,29	,	250667	,	-25390	,	-25402	,	-6.6847706	,	9
13,29	,	250699	,	-25377	,	-25332	,	-12.928599	,	7
13,29	,	250716	,	-25363	,	-25349	,	-18.031889	,	5
13,29	,	250747	,	-25346	,	-25324	,	-20.972536	,	3
13,29	,	250763	,	-25339	,	-25275	,	-21.034355	,	1
13,29	,	250779	,	-25343	,	-25282	,	-18.178972	,	0
13,29	,	250811	,	-25348	,	-25264	,	-13.1559	,	2
13,29	,	250827	,	-25340	,	-25294	,	-7.150031	,	7
13,29	,	250843	,	-25345	,	-25288	,	-1.2413731	,	13
13,29	,	250875	,	-25347	,	-25281	,	3.790193	,	18
13,29	,	250891	,	-25363	,	-25277	,	7.3601003	,	23
13,29	,	250907	,	-25349	,	-25271	,	9.11293	,	26
13,29	,	250939	,	-25352	,	-25244	,	9.14767	,	27
13,29	,	250955	,	-25350	,	-25284	,	7.966255	,	27
13,29	,	250987	,	-25357	,	-25277	,	6.1062884	,	27
13,29	,	251003	,	-25353	,	-25282	,	3.9553828	,	25
13,29	,	251019	,	-25357	,	-25254	,	1.8053188	,	20
13,29	,	251051	,	-25343	,	-25216	,	-0.05871129	,	14
13,29	,	251067	,	-25348	,	-25231	,	-1.3409624	,	9
13,29	,	251083	,	-25334	,	-25235	,	-1.8300481	,	4
13,29	,	251115	,	-25312	,	-25204	,	-1.3357195	,	1
13,29	,	251131	,	-25292	,	-25194	,	0.4832214	,	0
13,29	,	251163	,	-25302	,	-25231	,	3.8311427	,	1
13,29	,	251179	,	-25292	,	-25185	,	8.320706	,	4
13,29	,	251195	,	-25286	,	-25186	,	13.160893	,	8
13,29	,	251227	,	-25287	,	-25197	,	17.618761	,	12
13,29	,	251243	,	-25299	,	-25200	,	21.064268	,	16
13,29	,	251259	,	-25300	,	-25215	,	22.91056	,	19
13,29	,	251291	,	-25296	,	-25215	,	22.843334	,	20
13,29	,	251307	,	-25301	,	-25210	,	21.004873	,	20
13,29	,	251323	,	-25300	,	-25212	,	17.841343	,	20
13,29	,	251355	,	-25302	,	-25232	,	13.892175	,	19
13,29	,	251371	,	-25320	,	-25223	,	9.60553	,	16
13,30	,	251403	,	-25317	,	-25244	,	5.196088	,	12
13,30	,	251419	,	-25325	,	-25227	,	0.80136967	,	8
13,30	,	251435	,	-25331	,	-25236	,	-3.3743773	,	4
13,30	,	251467	,	-25314	,	-25224	,	-7.0532837	,	1
13,30	,	251483	,	-25322	,	-25219	,	-9.831355	,	0
13,30	,	251499	,	-25322	,	-25243	,	-11.395063	,	0
13,30	,	251531	,	-25327	,	-25228	,	-11.784992	,	0
13,30	,	251547	,	-25332	,	-25227	,	-11.317344	,	0
13,30	,	251579	,	-25333	,	-25231	,	-10.398204	,	0
13,30	,	251595	,	-25335	,	-25240	,	-9.362726	,	0
13,30	,	251611	,	-25329	,	-25244	,	-8.366078	,	1
13,30	,	251643	,	-25337	,	-25232	,	-7.421399	,	1
13,30	,	251659	,	-25342	,	-25221	,	-6.570974	,	1
13,30	,	251675	,	-25346	,	-25235	,	-5.964137	,	1
13,30	,	251707	,	-25339	,	-25249	,	-5.6879864	,	1
13,30	,	251723	,	-25350	,	-25233	,	-5.6584134	,	1
13,30	,	251739	,	-25353	,	-25254	,	-5.797522	,	1
13,30	,	251771	,	-25353	,	-25233	,	-6.11845	,	1
13,30	,	251787	,	-25360	,	-25237	,	-6.601991	,	1
13,30	,	251819	,	-25362	,	-25244	,	-7.196174	,	0
13,30	,	251835	,	-25369	,	-25244	,	-7.877043	,	0
13,30	,	251851	,	-25357	,	-25255	,	-8.572485	,	0
13,30	,	251883	,	-25362	,	-25252	,	-9.0719795	,	0
13,30	,	251899	,	-25355	,	-25232	,	-9.121567	,	0
13,30	,	251915	,	-25345	,	-25223	,	-8.523408	,	0
13,30	,	251947	,	-25337	,	-25229	,	-7.0955076	,	0
13,30	,	251963	,	-25328	,	-25235	,	-4.7177176	,	1
13,30	,	251995	,	-25329	,	-25235	,	-1.4760988	,	3
13,30	,	252011	,	-25336	,	-25242	,	2.2194033	,	6
13,30	,	252027	,	-25335	,	-25233	,	5.7020917	,	9
13,30	,	252059	,	-25329	,	-25240	,	8.394058	,	12
13,30	,	252075	,	-25338	,	-25248	,	10.0355625	,	14
13,30	,	252091	,	-25350	,	-25253	,	10.507584	,	15
13,30	,	252123	,	-25357	,	-25270	,	9.656489	,	15
13,30	,	252139	,	-25358	,	-25245	,	7.456898	,	15
13,30	,	252171	,	-25359	,	-25255	,	4.2089114	,	14
13,30	,	252187	,	-25363	,	-25278	,	0.44630957	,	12
13,30	,	252203	,	-25362	,	-25276	,	-3.2829256	,	9
13,30	,	252235	,	-25367	,	-25279	,	-6.5340757	,	6
13,30	,	252251	,	-25358	,	-25269	,	-8.984886	,	3
13,30	,	252267	,	-25361	,	-25297	,	-10.411535	,	1
13,30	,	252299	,	-25371	,	-25281	,	-10.787548	,	0
13,30	,	252315	,	-25374	,	-25282	,	-10.40386	,	0
13,30	,	252331	,	-25375	,	-25283	,	-9.681699	,	0
13,30	,	252363	,	-25380	,	-25310	,	-8.921459	,	0
13,30	,	252379	,	-25378	,	-25292	,	-8.270765	,	0
13,31	,	252411	,	-25380	,	-25294	,	-7.7512364	,	0
13,31	,	252427	,	-25387	,	-25322	,	-7.3360033	,	0
13,31	,	252443	,	-25391	,	-25289	,	-7.071268	,	0
13,31	,	252475	,	-25402	,	-25313	,	-7.085806	,	0
13,31	,	252490	,	-25386	,	-25294	,	-7.431447	,	0
13,31	,	252506	,	-25395	,	-25299	,	-7.9169645	,	0
13,31	,	252538	,	-25397	,	-25305	,	-8.275951	,	0
13,31	,	252555	,	-25392	,	-25299	,	-8.387107	,	0
13,31	,	252586	,	-25409	,	-25306	,	-8.2539625	,	0
13,31	,	252603	,	-25411	,	-25301	,	-8.041555	,	0
13,31	,	252618	,	-25416	,	-25318	,	-8.006624	,	0
13,31	,	252651	,	-25403	,	-25299	,	-8.210149	,	0
13,31	,	252667	,	-25411	,	-25320	,	-8.439482	,	0
13,31	,	252683	,	-25399	,	-25324	,	-8.409674	,	0
13,31	,	252714	,	-25400	,	-25346	,	-7.901212	,	0
13,31	,	252730	,	-25408	,	-25355	,	-6.8506746	,	0
13,31	,	252746	,	-25413	,	-25377	,	-5.4800634	,	1
13,31	,	252779	,	-25417	,	-25411	,	-4.193903	,	2
13,31	,	252795	,	-25430	,	-25414	,	-3.3731892	,	3
13,31	,	252826	,	-25432	,	-25423	,	-3.3009553	,	3
13,31	,	252843	,	-25430	,	-25416	,	-4.039415	,	3
13,31	,	252858	,	-25428	,	-25413	,	-5.3245544	,	3
13,31	,	252890	,	-25420	,	-25383	,	-6.670489	,	3
13,31	,	252906	,	-25406	,	-25366	,	-7.510477	,	3
13,31	,	252922	,	-25404	,	-25346	,	-7.3284664	,	3
13,31	,	252954	,	-25400	,	-25339	,	-5.89727	,	2
13,31	,	252970	,	-25396	,	-25329	,	-3.3847857	,	2
13,31	,	253003	,	-25390	,	-25324	,	-0.17906141	,	3
13,31	,	253019	,	-25385	,	-25299	,	3.3152397	,	6
13,31	,	253035	,	-25375	,	-25288	,	6.781229	,	9
13,31	,	253066	,	-25375	,	-25278	,	10.005701	,	12
13,31	,	253082	,	-25372	,	-25272	,	12.790702	,	15
13,31	,	253098	,	-25374	,	-25294	,	14.902494	,	17
13,31	,	253131	,	-25376	,	-25264	,	16.119781	,	19
13,31	,	253146	,	-25379	,	-25273	,	16.29166	,	20
13,31	,	253162	,	-25381	,	-25265	,	15.390816	,	19
13,31	,	253194	,	-25382	,	-25266	,	13.541297	,	17
13,31	,	253210	,	-25381	,	-25267	,	11.0090275	,	14
13,31	,	253242	,	-25379	,	-25256	,	8.161598	,	11
13,31	,	253259	,	-25388	,	-25264	,	5.335843	,	8
13,31	,	253274	,	-25399	,	-25298	,	2.649777	,	5
13,31	,	253306	,	-25389	,	-25275	,	0.06926417	,	3
13,31	,	253322	,	-25394	,	-25311	,	-2.309741	,	1
13,31	,	253338	,	-25409	,	-25329	,	-4.346013	,	0
13,31	,	253370	,	-25413	,	-25308	,	-6.133598	,	0
13,32	,	253386	,	-25392	,	-25322	,	-7.754722	,	0
13,32	,	253418	,	-25402	,	-25308	,	-8.945388	,	0
13,32	,	253434	,	-25392	,	-25323	,	-9.356485	,	0
13,32	,	253450	,	-25374	,	-25298	,	-8.766884	,	0
13,32	,	253482	,	-25382	,	-25305	,	-7.028759	,	0
13,32	,	253498	,	-25377	,	-25300	,	-4.2739973	,	1
13,32	,	253514	,	-25381	,	-25304	,	-0.9949398	,	3
13,32	,	253546	,	-25369	,	-25256	,	2.2680666	,	6
13,32	,	253562	,	-25358	,	-25268	,	5.241276	,	9
13,32	,	253578	,	-25363	,	-25263	,	7.9019313	,	11
13,32	,	253610	,	-25374	,	-25227	,	10.113492	,	13
13,32	,	253626	,	-25374	,	-25238	,	11.494605	,	15
13,32	,	253658	,	-25364	,	-25228	,	11.792146	,	16
13,32	,	253674	,	-25363	,	-25235	,	11.161631	,	16
13,32	,	253690	,	-25362	,	-25234	,	9.986282	,	15
13,32	,	253722	,	-25369	,	-25229	,	8.564608	,	13
13,32	,	253738	,	-25351	,	-25240	,	7.0877094	,	10
13,32	,	253754	,	-25374	,	-25236	,	5.7245536	,	7
13,32	,	253786	,	-25369	,	-25243	,	4.4711714	,	5
13,32	,	253802	,	-25367	,	-25244	,	3.1969516	,	3
13,32	,	253834	,	-25382	,	-25267	,	1.853404	,	1
13,32	,	253850	,	-25383	,	-25216	,	0.36736822	,	0
13,32	,	253866	,	-25386	,	-25255	,	-1.3561711	,	0
13,32	,	253898	,	-25404	,	-25277	,	-3.3354173	,	0
13,32	,	253914	,	-25402	,	-25272	,	-5.595404	,	0
13,32	,	253930	,	-25403	,	-25264	,	-8.063686	,	0
13,32	,	253962	,	-25405	,	-25296	,	-10.446709	,	0
13,32	,	253978	,	-25417	,	-25294	,	-12.446007	,	0
13,32	,	254010	,	-25409	,	-25298	,	-13.928684	,	0
13,32	,	254026	,	-25415	,	-25303	,	-14.807359	,	0
13,32	,	254042	,	-25402	,	-25285	,	-14.944759	,	0
13,32	,	254074	,	-25404	,	-25326	,	-14.199659	,	0
13,32	,	254090	,	-25399	,	-25266	,	-12.535961	,	0
13,32	,	254106	,	-25374	,	-25274	,	-9.983114	,	1
13,32	,	254138	,	-25370	,	-25282	,	-6.4692445	,	3
13,32	,	254154	,	-25376	,	-25259	,	-2.0531945	,	6
13,32	,	254170	,	-25366	,	-25253	,	2.788896	,	10
13,32	,	254202	,	-25373	,	-25247	,	7.391578	,	14
13,32	,	254219	,	-25371	,	-25232	,	11.163262	,	18
13,32	,	254250	,	-25367	,	-25256	,	13.704928	,	21
13,32	,	254266	,	-25369	,	-25247	,	14.9160795	,	23
13,32	,	254282	,	-25374	,	-25263	,	14.890787	,	24
13,32	,	254314	,	-25374	,	-25270	,	13.773077	,	23
13,32	,	254330	,	-25378	,	-25217	,	11.769321	,	21
13,32	,	254346	,	-25372	,	-25228	,	9.178673	,	18
13,32	,	254378	,	-25377	,	-25230	,	6.3691273	,	14
13,33	,	254394	,	-25367	,	-25240	,	3.7166266	,	10
13,33	,	254426	,	-25353	,	-25227	,	1.6324191	,	6
13,33	,	254442	,	-25361	,	-25224	,	0.5092852	,	3
13,33	,	254458	,	-25359	,	-25227	,	0.420058	,	1
13,33	,	254490	,	-25360	,	-25229	,	1.063726	,	0
13,33	,	254506	,	-25378	,	-25222	,	1.960598	,	0
13,33	,	254522	,	-25365	,	-25231	,	2.5971267	,	0
13,33	,	254554	,	-25367	,	-25233	,	2.712543	,	0
13,33	,	254570	,	-25371	,	-25219	,	2.3831472	,	0
13,33	,	254586	,	-25372	,	-25219	,	1.7426436	,	0
13,33	,	254618	,	-25367	,	-25224	,	0.900846	,	0
13,33	,	254634	,	-25379	,	-25231	,	-0.013557792	,	0
13,33	,	254666	,	-25380	,	-25213	,	-0.96867234	,	0
13,33	,	254682	,	-25381	,	-25227	,	-2.0105302	,	0
13,33	,	254698	,	-25380	,	-25228	,	-3.091467	,	0
13,33	,	254730	,	-25390	,	-25224	,	-4.1031437	,	0
13,33	,	254746	,	-25394	,	-25217	,	-5.045062	,	0
13,33	,	254777	,	-25380	,	-25215	,	-5.926466	,	0
13,33	,	254794	,	-25367	,	-25226	,	-6.4763956	,	0
13,33	,	254810	,	-25372	,	-25194	,	-6.254396	,	0
13,33	,	254842	,	-25359	,	-25220	,	-5.0530386	,	0
13,33	,	254858	,	-25351	,	-25193	,	-2.9158163	,	1
13,33	,	254874	,	-25345	,	-25204	,	0.039246082	,	3
13,33	,	254906	,	-25341	,	-25189	,	3.5833094	,	5
13,33	,	254922	,	-25342	,	-25210	,	7.3205957	,	8
13,33	,	254938	,	-25338	,	-25203	,	10.765028	,	11
13,33	,	254970	,	-25345	,	-25194	,	13.462658	,	14
13,33	,	254986	,	-25349	,	-25198	,	15.041965	,	16
13,33	,	255018	,	-25355	,	-25196	,	15.246276	,	17
13,33	,	255034	,	-25348	,	-25204	,	14.057102	,	17
13,33	,	255049	,	-25349	,	-25181	,	11.785779	,	16
13,33	,	255081	,	-25346	,	-25190	,	8.954618	,	14
13,33	,	255098	,	-25344	,	-25188	,	6.083786	,	12
13,33	,	255114	,	-25349	,	-25193	,	3.556714	,	9
13,33	,	255146	,	-25340	,	-25189	,	1.5826483	,	6
13,33	,	255161	,	-25333	,	-25189	,	0.31144118	,	3
13,33	,	255194	,	-25347	,	-25191	,	-0.17528045	,	1
13,33	,	255210	,	-25345	,	-25195	,	-0.071359634	,	0
13,33	,	255226	,	-25349	,	-25211	,	0.24094419	,	0
13,33	,	255258	,	-25345	,	-25201	,	0.47560078	,	0
13,33	,	255274	,	-25351	,	-25193	,	0.51323724	,	0
13,33	,	255290	,	-25351	,	-25194	,	0.3176241	,	0
13,33	,	255322	,	-25356	,	-25195	,	-0.12634008	,	0
13,33	,	255338	,	-25355	,	-25209	,	-0.80230385	,	0
13,33	,	255354	,	-25354	,	-25196	,	-1.6207167	,	0
13,34	,	255385	,	-25370	,	-25199	,	-2.4977732	,	0
13,34	,	255402	,	-25370	,	-25200	,	-3.4978316	,	0
13,34	,	255433	,	-25370	,	-25205	,	-4.705064	,	0
13,34	,	255449	,	-25379	,	-25190	,	-6.0525794	,	0
13,34	,	255465	,	-25371	,	-25194	,	-7.3890686	,	0
13,34	,	255498	,	-25368	,	-25202	,	-8.475472	,	0
13,34	,	255513	,	-25386	,	-25202	,	-9.094823	,	0
13,34	,	255529	,	-25374	,	-25189	,	-9.27664	,	0
13,34	,	255561	,	-25356	,	-25181	,	-9.020184	,	0
13,34	,	255578	,	-25352	,	-25176	,	-8.009331	,	0
13,34	,	255609	,	-25336	,	-25186	,	-5.907193	,	1
13,34	,	255625	,	-25330	,	-25185	,	-2.6270375	,	3
13,34	,	255642	,	-25333	,	-25182	,	1.6011271	,	6
13,34	,	255674	,	-25334	,	-25178	,	6.1809864	,	10
13,34	,	255689	,	-25337	,	-25165	,	10.328675	,	14
13,34	,	255705	,	-25330	,	-25165	,	13.416075	,	18
13,34	,	255737	,	-25325	,	-25173	,	15.208378	,	21
13,34	,	255753	,	-25341	,	-25167	,	15.760097	,	22
13,34	,	255770	,	-25345	,	-25165	,	15.089747	,	22
13,34	,	255801	,	-25349	,	-25171	,	13.170488	,	21
13,34	,	255817	,	-25341	,	-25171	,	10.206436	,	19
13,34	,	255849	,	-25346	,	-25181	,	6.6939836	,	16
13,34	,	255865	,	-25351	,	-25189	,	3.159687	,	12
13,34	,	255881	,	-25340	,	-25182	,	-0.015627384	,	8
13,34	,	255914	,	-25333	,	-25167	,	-2.464145	,	4
13,34	,	255930	,	-25322	,	-25133	,	-3.7749434	,	1
13,34	,	255946	,	-25296	,	-25086	,	-3.5664933	,	0
13,34	,	255977	,	-25266	,	-25024	,	-1.4262146	,	0
13,34	,	255993	,	-25240	,	-24941	,	3.0489578	,	2
13,34	,	256025	,	-25170	,	-24852	,	10.193374	,	6
13,34	,	256041	,	-25100	,	-24714	,	20.514023	,	13
13,34	,	256057	,	-25059	,	-24675	,	34.518486	,	23
13,34	,	256089	,	-25050	,	-24655	,	51.74947	,	37
13,34	,	256105	,	-25044	,	-24653	,	70.22302	,	54
13,34	,	256121	,	-25067	,	-24683	,	86.94315	,	72
13,34	,	256153	,	-25114	,	-24744	,	98.67334	,	88
13,34	,	256169	,	-25154	,	-24803	,	102.55705	,	99
13,34	,	256201	,	-25205	,	-24879	,	96.82803	,	100
13,34	,	256218	,	-25229	,	-24913	,	81.37746	,	96
13,34	,	256233	,	-25257	,	-24965	,	57.877216	,	89
13,34	,	256265	,	-25272	,	-24975	,	29.357723	,	79
13,34	,	256281	,	-25290	,	-25023	,	-0.6017647	,	65
13,34	,	256297	,	-25309	,	-25026	,	-28.684032	,	48
13,34	,	256330	,	-25311	,	-25051	,	-52.34838	,	30
13,34	,	256345	,	-25316	,	-25053	,	-69.92475	,	14
13,34	,	256361	,	-25313	,	-25083	,	-80.56392	,	3
13,35	,	256393	,	-25310	,	-25070	,	-84.21248	,	0
13,35	,	256409	,	-25304	,	-25068	,	-81.49869	,	0
13,35	,	256441	,	-25297	,	-25073	,	-73.55568	,	2
13,35	,	256457	,	-25292	,	-25064	,	-61.83365	,	9
13,35	,	256473	,	-25292	,	-25111	,	-47.942432	,	20
13,35	,	256505	,	-25296	,	-25046	,	-33.52596	,	33
13,35	,	256521	,	-25296	,	-25056	,	-20.082272	,	47
13,35	,	256537	,	-25302	,	-25067	,	-8.758366	,	60
13,35	,	256569	,	-25310	,	-25081	,	-0.27830124	,	71
13,35	,	256585	,	-25293	,	-25058	,	5.13346	,	79
13,35	,	256617	,	-25300	,	-25075	,	7.847263	,	84
13,35	,	256633	,	-25295	,	-25058	,	8.572089	,	84
13,35	,	256649	,	-25300	,	-25050	,	7.9808235	,	77
13,35	,	256681	,	-25290	,	-25061	,	6.638706	,	66
13,35	,	256697	,	-25287	,	-25053	,	5.082743	,	53
13,35	,	256713	,	-25288	,	-25069	,	3.7713754	,	39
13,35	,	256745	,	-25286	,	-25034	,	2.9301476	,	26
13,35	,	256761	,	-25268	,	-25040	,	2.6411297	,	15
13,35	,	256777	,	-25282	,	-25038	,	2.9773297	,	7
13,35	,	256809	,	-25290	,	-25044	,	3.7518973	,	2
13,35	,	256825	,	-25288	,	-25048	,	4.459802	,	0
13,35	,	256857	,	-25299	,	-25042	,	4.6531515	,	0
13,35	,	256873	,	-25297	,	-25044	,	4.112172	,	0
13,35	,	256889	,	-25278	,	-25042	,	2.9401278	,	0
13,35	,	256921	,	-25288	,	-25036	,	1.6097336	,	0
13,35	,	256937	,	-25284	,	-25033	,	0.5647509	,	0
13,35	,	256953	,	-25312	,	-25069	,	-0.18962812	,	0
13,35	,	256985	,	-25299	,	-25031	,	-0.9985724	,	0
13,35	,	257001	,	-25305	,	-25038	,	-2.0928519	,	0
13,35	,	257033	,	-25311	,	-25045	,	-3.4075365	,	0
13,35	,	257049	,	-25299	,	-25052	,	-4.764144	,	0
13,35	,	257065	,	-25292	,	-25038	,	-5.8435855	,	0
13,35	,	257097	,	-25303	,	-25061	,	-6.281858	,	0
13,35	,	257113	,	-25298	,	-25058	,	-6.0114822	,	0
13,35	,	257129	,	-25295	,	-25052	,	-5.2100325	,	0
13,35	,	257161	,	-25299	,	-25039	,	-4.0588217	,	0
13,35	,	257177	,	-25291	,	-25025	,	-2.715731	,	1
13,35	,	257193	,	-25292	,	-25043	,	-1.2974098	,	2
13,35	,	257225	,	-25267	,	-25002	,	0.23196208	,	3
13,35	,	257240	,	-25262	,	-25019	,	2.1210318	,	4
13,35	,	257273	,	-25266	,	-25022	,	4.5684385	,	5
13,35	,	257289	,	-25259	,	-25051	,	7.398191	,	7
13,35	,	257305	,	-25268	,	-25034	,	10.155443	,	9
13,35	,	257337	,	-25267	,	-25030	,	12.325377	,	11
13,35	,	257353	,	-25274	,	-25024	,	13.470882	,	13
13,35	,	257369	,	-25276	,	-25025	,	13.3610325	,	13
13,36	,	257401	,	-25271	,	-25032	,	12.046776	,	12
13,36	,	257417	,	-25271	,	-25024	,	9.866346	,	11
13,36	,	257449	,	-25277	,	-25040	,	7.2645783	,	10
13,36	,	257465	,	-25280	,	-25014	,	4.5627813	,	9
13,36	,	257481	,	-25272	,	-25017	,	1.9847183	,	7
13,36	,	257513	,	-25286	,	-25014	,	-0.26595283	,	5
13,36	,	257529	,	-25277	,	-25025	,	-2.0908291	,	3
13,36	,	257545	,	-25272	,	-25022	,	-3.426911	,	1
13,36	,	257577	,	-25254	,	-25025	,	-4.0436053	,	0
13,36	,	257593	,	-25272	,	-25034	,	-3.6964242	,	0
13,36	,	257609	,	-25267	,	-25019	,	-2.5098581	,	0
13,36	,	257641	,	-25278	,	-25022	,	-0.97195196	,	1
13,36	,	257657	,	-25265	,	-25040	,	0.4379902	,	2
13,36	,	257689	,	-25305	,	-25014	,	1.3350914	,	3
13,36	,	257705	,	-25285	,	-24980	,	1.3073378	,	3
13,36	,	257721	,	-25303	,	-24991	,	0.172097	,	3
13,36	,	257752	,	-25286	,	-24984	,	-1.7996494	,	3
13,36	,	257769	,	-25298	,	-24996	,	-4.078336	,	3
13,36	,	257785	,	-25287	,	-24989	,	-6.1359653	,	3
13,36	,	257817	,	-25302	,	-24991	,	-7.6342216	,	3
13,36	,	257833	,	-25305	,	-24985	,	-8.539936	,	2
13,36	,	257864	,	-25291	,	-25002	,	-8.970936	,	1
13,36	,	257880	,	-25297	,	-24989	,	-8.909264	,	0
13,36	,	257897	,	-25302	,	-25004	,	-8.313835	,	0
13,36	,	257929	,	-25288	,	-24986	,	-7.2927175	,	0
13,36	,	257944	,	-25286	,	-24999	,	-5.902632	,	1
13,36	,	257961	,	-25282	,	-24983	,	-4.1036534	,	2
13,36	,	257993	,	-25270	,	-24985	,	-1.889627	,	3
13,36	,	258008	,	-25271	,	-24980	,	0.70230436	,	5
13,36	,	258024	,	-25265	,	-24997	,	3.535955	,	7
13,36	,	258057	,	-25270	,	-24996	,	6.324813	,	9
13,36	,	258072	,	-25243	,	-24995	,	8.823098	,	11
13,36	,	258104	,	-25264	,	-24978	,	10.967538	,	13
13,36	,	258120	,	-25263	,	-24987	,	12.600878	,	15
13,36	,	258136	,	-25276	,	-24979	,	13.322407	,	15
13,36	,	258169	,	-25271	,	-24977	,	12.808964	,	14
13,36	,	258184	,	-25281	,	-24984	,	11.055664	,	13
13,36	,	258200	,	-25275	,	-24987	,	8.335869	,	11
13,36	,	258232	,	-25281	,	-24990	,	5.088608	,	9
13,36	,	258248	,	-25279	,	-24991	,	1.7854238	,	7
13,36	,	258280	,	-25277	,	-24980	,	-1.1691618	,	5
13,36	,	258296	,	-25279	,	-24978	,	-3.4697542	,	3
13,36	,	258312	,	-25273	,	-24981	,	-4.9414635	,	1
13,36	,	258345	,	-25279	,	-24978	,	-5.553029	,	0
13,36	,	258361	,	-25276	,	-24988	,	-5.4215693	,	0
13,36	,	258377	,	-25281	,	-24980	,	-4.78842	,	0
13,37	,	258408	,	-25283	,	-24984	,	-3.9432628	,	0
13,37	,	258425	,	-25281	,	-24981	,	-3.134775	,	0
13,37	,	258440	,	-25286	,	-24981	,	-2.5038276	,	0
13,37	,	258472	,	-25284	,	-24988	,	-2.1082735	,	0
13,37	,	258488	,	-25283	,	-24981	,	-1.9333186	,	0
13,37	,	258520	,	-25283	,	-24988	,	-1.8771313	,	0
13,37	,	258536	,	-25293	,	-24985	,	-1.8729565	,	0
13,37	,	258552	,	-25280	,	-24991	,	-1.9417188	,	0
13,37	,	258584	,	-25293	,	-24982	,	-2.0683613	,	0
13,37	,	258600	,	-25306	,	-24984	,	-2.3027897	,	0
13,37	,	258616	,	-25286	,	-25005	,	-2.791244	,	0
13,37	,	258648	,	-25284	,	-24979	,	-3.400072	,	0
13,37	,	258664	,	-25283	,	-24990	,	-3.7219567	,	0
13,37	,	258696	,	-25275	,	-24963	,	-3.4711268	,	0
13,37	,	258712	,	-25244	,	-24969	,	-2.4205909	,	0
13,37	,	258728	,	-25257	,	-24973	,	-0.28667688	,	1
13,37	,	258760	,	-25239	,	-24965	,	2.9260454	,	3
13,37	,	258776	,	-25261	,	-24960	,	6.7320514	,	6
13,37	,	258792	,	-25252	,	-24957	,	10.346831	,	9
13,37	,	258824	,	-25254	,	-24969	,	13.047797	,	12
13,37	,	258840	,	-25260	,	-24954	,	14.457293	,	14
13,37	,	258856	,	-25259	,	-24968	,	14.487425	,	15
13,37	,	258888	,	-25264	,	-24958	,	13.244046	,	15
13,37	,	258904	,	-25269	,	-24978	,	10.967364	,	15
13,37	,	258936	,	-25263	,	-24955	,	7.980985	,	14
13,37	,	258952	,	-25246	,	-24958	,	4.816422	,	12
13,37	,	258968	,	-25260	,	-24954	,	2.1316452	,	9
13,37	,	259000	,	-25265	,	-24957	,	0.24574709	,	6
13,37	,	259016	,	-25263	,	-24962	,	-0.9827354	,	3
13,37	,	259032	,	-25267	,	-24954	,	-1.7926335	,	1
13,37	,	259064	,	-25259	,	-24954	,	-2.3069446	,	0
13,37	,	259080	,	-25254	,	-24973	,	-2.5070896	,	0
13,37	,	259112	,	-25267	,	-24965	,	-2.3433747	,	0
13,37	,	259128	,	-25261	,	-24959	,	-1.9353169	,	0
13,37	,	259144	,	-25267	,	-24979	,	-1.5033228	,	0
13,37	,	259176	,	-25270	,	-24938	,	-1.2147382	,	0
13,37	,	259192	,	-25279	,	-24960	,	-1.2188551	,	0
13,37	,	259208	,	-25276	,	-24968	,	-1.637486	,	0
13,37	,	259240	,	-25276	,	-24970	,	-2.432272	,	0
13,37	,	259256	,	-25273	,	-24965	,	-3.3729646	,	0
13,37	,	259272	,	-25276	,	-24965	,	-4.1847	,	0
13,37	,	259304	,	-25280	,	-24964	,	-4.721651	,	0
13,37	,	259320	,	-25286	,	-24973	,	-5.0304384	,	0
13,37	,	259352	,	-25284	,	-24962	,	-5.252776	,	0
13,37	,	259368	,	-25279	,	-24971	,	-5.4334583	,	0
13,38	,	259384	,	-25279	,	-25009	,	-5.4608026	,	0
13,38	,	259416	,	-25287	,	-24946	,	-5.2472	,	0
13,38	,	259432	,	-25270	,	-24958	,	-4.8023596	,	0
13,38	,	259448	,	-25262	,	-24955	,	-4.0129013	,	0
13,38	,	259480	,	-25259	,	-24960	,	-2.6321287	,	0
13,38	,	259496	,	-25247	,	-24953	,	-0.5358379	,	1
13,38	,	259528	,	-25249	,	-24941	,	2.1921403	,	3
13,38	,	259544	,	-25250	,	-24947	,	5.247154	,	5
13,38	,	259560	,	-25235	,	-24947	,	8.207314	,	8
13,38	,	259592	,	-25245	,	-24954	,	10.759754	,	10
13,38	,	259608	,	-25244	,	-24948	,	12.65324	,	12
13,38	,	259624	,	-25240	,	-24969	,	13.655308	,	13
13,38	,	259656	,	-25241	,	-24934	,	13.717049	,	14
13,38	,	259672	,	-25249	,	-24946	,	12.929958	,	14
13,38	,	259704	,	-25244	,	-24934	,	11.400854	,	13
13,38	,	259720	,	-25239	,	-24939	,	9.347776	,	11
13,38	,	259736	,	-25236	,	-24946	,	7.1594696	,	9
13,38	,	259768	,	-25239	,	-24946	,	5.216109	,	6
13,38	,	259784	,	-25227	,	-24937	,	3.754538	,	4
13,38	,	259800	,	-25242	,	-24938	,	2.863392	,	2
13,38	,	259832	,	-25239	,	-24933	,	2.4151516	,	1
13,38	,	259848	,	-25227	,	-24941	,	2.2070208	,	0
13,38	,	259864	,	-25237	,	-24943	,	2.1886716	,	0
13,38	,	259896	,	-25217	,	-24930	,	2.394434	,	0
13,38	,	259912	,	-25259	,	-24930	,	2.7194808	,	0
13,38	,	259944	,	-25263	,	-24937	,	2.6563745	,	0
13,38	,	259960	,	-25254	,	-24936	,	1.6120256	,	0
13,38	,	259976	,	-25257	,	-24938	,	-0.40010452	,	0
13,38	,	260008	,	-25258	,	-24941	,	-2.8652565	,	0
13,38	,	260024	,	-25262	,	-24939	,	-5.2807584	,	0
13,38	,	260040	,	-25268	,	-24951	,	-7.347566	,	0
13,38	,	260072	,	-25264	,	-24936	,	-8.938235	,	0
13,38	,	260088	,	-25266	,	-24946	,	-9.970839	,	0
13,38	,	260120	,	-25274	,	-24955	,	-10.416231	,	0
13,38	,	260136	,	-25272	,	-24938	,	-10.387356	,	0
13,38	,	260152	,	-25245	,	-24933	,	-9.908365	,	0
13,38	,	260184	,	-25271	,	-24942	,	-8.80038	,	0
13,38	,	260200	,	-25270	,	-24946	,	-7.1490784	,	1
13,38	,	260216	,	-25266	,	-24936	,	-5.3924403	,	2
13,38	,	260248	,	-25247	,	-24937	,	-3.7455058	,	3
13,38	,	260264	,	-25246	,	-24948	,	-2.0085933	,	4
13,38	,	260280	,	-25248	,	-24936	,	0.024990559	,	5
13,38	,	260312	,	-25239	,	-24933	,	2.284004	,	7
13,38	,	260328	,	-25236	,	-24944	,	4.5846195	,	9
13,38	,	260360	,	-25211	,	-24942	,	6.898831	,	11
13,38	,	260376	,	-25246	,	-24931	,	9.226732	,	13
13,39	,	260392	,	-25238	,	-24938	,	11.182241	,	14
13,39	,	260424	,	-25237	,	-24938	,	12.196751	,	14
13,39	,	260439	,	-25234	,	-24935	,	12.100197	,	14
13,39	,	260455	,	-25247	,	-24936	,	11.050122	,	13
13,39	,	260487	,	-25251	,	-24926	,	9.174732	,	12
13,39	,	260504	,	-25242	,	-24921	,	6.621053	,	10
13,39	,	260536	,	-25236	,	-24931	,	3.7961035	,	8
13,39	,	260552	,	-25236	,	-24930	,	1.2754207	,	6
13,39	,	260568	,	-25236	,	-24921	,	-0.5348129	,	4
13,39	,	260599	,	-25223	,	-24930	,	-1.4649161	,	2
13,39	,	260615	,	-25239	,	-24915	,	-1.5069828	,	1
13,39	,	260631	,	-25226	,	-24918	,	-0.867736	,	0
13,39	,	260664	,	-25210	,	-24919	,	0.24315178	,	0
13,39	,	260680	,	-25228	,	-24923	,	1.7751871	,	1
13,39	,	260696	,	-25231	,	-24911	,	3.4709158	,	2
13,39	,	260727	,	-25210	,	-24883	,	4.907236	,	3
13,39	,	260743	,	-25170	,	-24837	,	6.2026763	,	4
13,39	,	260775	,	-25146	,	-24782	,	8.218502	,	5
13,39	,	260791	,	-25101	,	-24745	,	11.996928	,	7
13,39	,	260807	,	-25104	,	-24711	,	18.094124	,	10
13,39	,	260840	,	-25092	,	-24679	,	26.102003	,	16
13,39	,	260856	,	-25070	,	-24672	,	34.838757	,	24
13,39	,	260871	,	-25089	,	-24657	,	42.97561	,	31
13,39	,	260903	,	-25118	,	-24714	,	49.063385	,	38
13,39	,	260919	,	-25135	,	-24741	,	51.512447	,	43
13,39	,	260951	,	-25179	,	-24776	,	49.109	,	44
13,39	,	260967	,	-25199	,	-24810	,	41.37688	,	43
13,39	,	260983	,	-25190	,	-24825	,	28.890041	,	41
13,39	,	261015	,	-25190	,	-24846	,	13.5146675	,	38
13,39	,	261031	,	-25206	,	-24851	,	-2.260826	,	32
13,39	,	261047	,	-25214	,	-24865	,	-16.426939	,	24
13,39	,	261079	,	-25204	,	-24875	,	-27.74562	,	16
13,39	,	261095	,	-25204	,	-24890	,	-35.43429	,	8
13,39	,	261111	,	-25196	,	-24870	,	-39.10192	,	2
13,39	,	261144	,	-25184	,	-24834	,	-38.815918	,	0
13,39	,	261159	,	-25166	,	-24838	,	-34.949257	,	0
13,39	,	261191	,	-25174	,	-24832	,	-28.140074	,	3
13,39	,	261207	,	-25148	,	-24816	,	-19.346397	,	9
13,39	,	261223	,	-25152	,	-24802	,	-9.622841	,	17
13,39	,	261255	,	-25122	,	-24777	,	0.15246105	,	26
13,39	,	261271	,	-25104	,	-24746	,	9.460092	,	35
13,39	,	261287	,	-25087	,	-24730	,	18.149294	,	44
13,39	,	261319	,	-25087	,	-24700	,	26.083515	,	52
13,39	,	261335	,	-25078	,	-24690	,	32.866657	,	59
13,39	,	261367	,	-25079	,	-24673	,	37.976585	,	65
13,40	,	261383	,	-25098	,	-24717	,	40.893425	,	67
13,40	,	261399	,	-25097	,	-24739	,	41.133774	,	63
13,40	,	261431	,	-25123	,	-24771	,	38.437923	,	55
13,40	,	261447	,	-25156	,	-24780	,	32.746895	,	46
13,40	,	261463	,	-25140	,	-24789	,	24.232468	,	37
13,40	,	261495	,	-25172	,	-24797	,	13.648407	,	28
13,40	,	261511	,	-25168	,	-24797	,	2.1607456	,	20
13,40	,	261527	,	-25168	,	-24801	,	-9.007503	,	13
13,40	,	261559	,	-25159	,	-24796	,	-18.583466	,	7
13,40	,	261575	,	-25140	,	-24812	,	-25.3733	,	2
13,40	,	261607	,	-25165	,	-24773	,	-28.671774	,	0
13,40	,	261623	,	-25141	,	-24739	,	-28.589027	,	0
13,40	,	261639	,	-25095	,	-24707	,	-25.515385	,	0
13,40	,	261671	,	-25090	,	-24679	,	-19.494688	,	3
13,40	,	261687	,	-25082	,	-24636	,	-10.772717	,	9
13,40	,	261703	,	-25044	,	-24607	,	-0.19947529	,	17
13,40	,	261735	,	-25040	,	-24578	,	11.2623	,	27
13,40	,	261751	,	-25025	,	-24548	,	22.694595	,	38
13,40	,	261783	,	-24998	,	-24508	,	33.196785	,	49
13,40	,	261799	,	-24983	,	-24488	,	42.196033	,	59
13,40	,	261815	,	-24956	,	-24486	,	49.524837	,	67
13,40	,	261847	,	-24972	,	-24428	,	55.097874	,	74
13,40	,	261863	,	-24981	,	-24498	,	58.49291	,	76
13,40	,	261879	,	-25006	,	-24554	,	58.912262	,	73
13,40	,	261911	,	-25060	,	-24628	,	55.43206	,	65
13,40	,	261927	,	-25077	,	-24675	,	47.267212	,	55
13,40	,	261959	,	-25103	,	-24706	,	34.364395	,	44
13,40	,	261975	,	-25103	,	-24740	,	17.846315	,	33
13,40	,	261991	,	-25104	,	-24745	,	-0.20509529	,	23
13,40	,	262023	,	-25136	,	-24755	,	-17.500809	,	15
13,40	,	262039	,	-25137	,	-24772	,	-32.38461	,	8
13,40	,	262055	,	-25133	,	-24791	,	-43.882233	,	3
13,40	,	262087	,	-25147	,	-24757	,	-51.387512	,	0
13,40	,	262103	,	-25134	,	-24789	,	-54.734898	,	0
13,40	,	262119	,	-25148	,	-24781	,	-54.22091	,	0
13,40	,	262151	,	-25147	,	-24765	,	-50.542465	,	0
13,40	,	262167	,	-25111	,	-24743	,	-44.509842	,	3
13,40	,	262199	,	-25087	,	-24722	,	-36.47896	,	9
13,40	,	262215	,	-25075	,	-24686	,	-26.466454	,	17
13,40	,	262231	,	-25059	,	-24660	,	-14.796787	,	27
13,40	,	262263	,	-25031	,	-24626	,	-2.1770687	,	38
13,40	,	262279	,	-25027	,	-24602	,	10.596215	,	50
13,40	,	262295	,	-25021	,	-24607	,	22.622608	,	62
13,40	,	262327	,	-25026	,	-24557	,	32.84332	,	74
13,40	,	262343	,	-25033	,	-24625	,	40.226707	,	84
13,40	,	262375	,	-25064	,	-24647	,	43.89937	,	88
13,41	,	262391	,	-25080	,	-24674	,	43.2036	,	85
13,41	,	262407	,	-25099	,	-24709	,	37.953133	,	77
13,41	,	262439	,	-25115	,	-24725	,	28.665108	,	67
13,41	,	262455	,	-25123	,	-24732	,	16.476225	,	56
13,41	,	262471	,	-25142	,	-24740	,	2.8565102	,	44
13,41	,	262503	,	-25159	,	-24756	,	-10.782837	,	32
13,41	,	262519	,	-25153	,	-24750	,	-23.263018	,	20
13,41	,	262535	,	-25173	,	-24781	,	-33.586132	,	10
13,41	,	262567	,	-25177	,	-24742	,	-41.123787	,	3
13,41	,	262583	,	-25148	,	-24764	,	-45.57122	,	0
13,41	,	262615	,	-25146	,	-24748	,	-46.573364	,	0
13,41	,	262630	,	-25132	,	-24748	,	-43.907303	,	0
13,41	,	262647	,	-25136	,	-24732	,	-37.92016	,	2
13,41	,	262679	,	-25099	,	-24715	,	-29.39436	,	7
13,41	,	262695	,	-25094	,	-24697	,	-19.101067	,	15
13,41	,	262711	,	-25073	,	-24675	,	-7.7344666	,	25
13,41	,	262743	,	-25044	,	-24647	,	4.023613	,	36
13,41	,	262759	,	-25017	,	-24622	,	15.708317	,	47
13,41	,	262791	,	-24990	,	-24600	,	27.09116	,	58
13,41	,	262807	,	-24995	,	-24541	,	37.83439	,	69
13,41	,	262823	,	-24988	,	-24547	,	47.186546	,	79
13,41	,	262855	,	-25008	,	-24553	,	54.06572	,	86
13,41	,	262871	,	-25016	,	-24607	,	57.399864	,	87
13,41	,	262887	,	-25036	,	-24642	,	56.468857	,	82
13,41	,	262919	,	-25063	,	-24667	,	51.07032	,	72
13,41	,	262935	,	-25069	,	-24692	,	41.53328	,	61
13,41	,	262966	,	-25069	,	-24709	,	28.881378	,	50
13,41	,	262982	,	-25088	,	-24724	,	14.735064	,	39
13,41	,	262999	,	-25088	,	-24716	,	0.7321472	,	28
13,41	,	263030	,	-25095	,	-24739	,	-11.81081	,	18
13,41	,	263047	,	-25104	,	-24718	,	-21.959316	,	9
13,41	,	263063	,	-25117	,	-24729	,	-29.307083	,	3
13,41	,	263095	,	-25081	,	-24705	,	-33.77342	,	0
13,41	,	263111	,	-25086	,	-24717	,	-35.165154	,	0
13,41	,	263127	,	-25084	,	-24698	,	-33.41168	,	0
13,41	,	263159	,	-25102	,	-24701	,	-29.107727	,	1
13,41	,	263174	,	-25091	,	-24700	,	-23.38356	,	5
13,41	,	263206	,	-25086	,	-24698	,	-17.275124	,	10
13,41	,	263223	,	-25099	,	-24703	,	-11.45562	,	16
13,41	,	263239	,	-25098	,	-24705	,	-6.4611835	,	21
13,41	,	263270	,	-25088	,	-24709	,	-2.6549978	,	25
13,41	,	263286	,	-25088	,	-24686	,	4.5776367E-5	,	28
13,41	,	263302	,	-25089	,	-24697	,	1.7661688	,	30
13,41	,	263335	,	-25088	,	-24694	,	2.85484	,	31
13,41	,	263350	,	-25106	,	-24706	,	3.3211975	,	31
13,41	,	263382	,	-25118	,	-24705	,	2.9848819	,	27
13,42	,	263399	,	-25110	,	-24713	,	1.6333528	,	22
13,42	,	263414	,	-25125	,	-24732	,	-0.62822306	,	16
13,42	,	263446	,	-25116	,	-24726	,	-3.4193652	,	11
13,42	,	263462	,	-25104	,	-24709	,	-6.1831026	,	7
13,42	,	263478	,	-25100	,	-24702	,	-8.210922	,	4
13,42	,	263510	,	-25079	,	-24708	,	-8.867983	,	2
13,42	,	263526	,	-25071	,	-24683	,	-7.744931	,	1
13,42	,	263542	,	-25074	,	-24696	,	-4.804118	,	1
13,42	,	263575	,	-25081	,	-24695	,	-0.59572554	,	3
13,42	,	263591	,	-25076	,	-24681	,	3.9245594	,	7
13,42	,	263622	,	-25063	,	-24699	,	7.962014	,	11
13,42	,	263638	,	-25048	,	-24678	,	11.268653	,	15
13,42	,	263654	,	-25053	,	-24660	,	13.9723835	,	18
13,42	,	263686	,	-25039	,	-24636	,	16.177809	,	20
13,42	,	263702	,	-25016	,	-24619	,	18.002705	,	22
13,42	,	263718	,	-24977	,	-24571	,	19.921349	,	23
13,42	,	263750	,	-24977	,	-24554	,	22.618645	,	23
13,42	,	263766	,	-24933	,	-24498	,	26.48862	,	23
13,42	,	263798	,	-24910	,	-24484	,	31.630024	,	22
13,42	,	263814	,	-24918	,	-24462	,	37.848812	,	23
13,42	,	263830	,	-24915	,	-24471	,	44.276352	,	25
13,42	,	263862	,	-24930	,	-24473	,	49.5129	,	28
13,42	,	263878	,	-24926	,	-24493	,	52.259796	,	31
13,42	,	263894	,	-24977	,	-24530	,	51.593212	,	31
13,42	,	263926	,	-24982	,	-24569	,	46.89096	,	30
13,42	,	263942	,	-25009	,	-24596	,	38.05209	,	29
13,42	,	263958	,	-25027	,	-24608	,	25.727425	,	27
13,42	,	263990	,	-25045	,	-24652	,	11.075325	,	24
13,42	,	264006	,	-25038	,	-24642	,	-4.418667	,	19
13,42	,	264038	,	-25048	,	-24657	,	-19.01819	,	13
13,42	,	264054	,	-25088	,	-24674	,	-31.326906	,	7
13,42	,	264070	,	-25077	,	-24677	,	-40.805782	,	2
13,42	,	264102	,	-25064	,	-24673	,	-47.246525	,	0
13,42	,	264118	,	-25065	,	-24662	,	-50.24512	,	0
13,42	,	264134	,	-25070	,	-24656	,	-49.641094	,	0
13,42	,	264166	,	-25063	,	-24636	,	-45.87784	,	0
13,42	,	264182	,	-25057	,	-24647	,	-39.727295	,	3
13,42	,	264214	,	-25060	,	-24636	,	-32.033974	,	9
13,42	,	264230	,	-25061	,	-24637	,	-23.71571	,	16
13,42	,	264246	,	-25062	,	-24620	,	-15.68334	,	24
13,42	,	264278	,	-25050	,	-24620	,	-8.597816	,	32
13,42	,	264294	,	-25051	,	-24613	,	-2.7339935	,	39
13,42	,	264310	,	-25037	,	-24612	,	1.9296379	,	44
13,42	,	264342	,	-25038	,	-24619	,	5.571106	,	48
13,42	,	264358	,	-25042	,	-24636	,	8.343	,	51
13,42	,	264374	,	-25035	,	-24639	,	10.254343	,	50
13,43	,	264406	,	-25038	,	-24642	,	11.305599	,	45
13,43	,	264422	,	-25046	,	-24643	,	11.530427	,	39
13,43	,	264454	,	-25028	,	-24657	,	10.990467	,	31
13,43	,	264470	,	-25028	,	-24666	,	9.967918	,	23
13,43	,	264486	,	-25025	,	-24649	,	8.892056	,	16
13,43	,	264518	,	-25039	,	-24662	,	7.971598	,	11
13,43	,	264534	,	-25043	,	-24656	,	7.0536594	,	7
13,43	,	264550	,	-25051	,	-24667	,	5.8148727	,	4
13,43	,	264582	,	-25034	,	-24666	,	4.118296	,	2
13,43	,	264598	,	-25050	,	-24674	,	2.1652637	,	1
13,43	,	264630	,	-25039	,	-24667	,	0.2517891	,	0
13,43	,	264646	,	-25055	,	-24685	,	-1.4511204	,	0
13,43	,	264662	,	-25041	,	-24683	,	-2.8700151	,	0
13,43	,	264694	,	-25050	,	-24689	,	-3.92946	,	0
13,43	,	264710	,	-25041	,	-24681	,	-4.5378428	,	0
13,43	,	264726	,	-25057	,	-24691	,	-4.7056246	,	0
13,43	,	264758	,	-25050	,	-24672	,	-4.6012244	,	0
13,43	,	264774	,	-25042	,	-24655	,	-4.351227	,	0
13,43	,	264790	,	-25046	,	-24657	,	-3.8988488	,	0
13,43	,	264822	,	-25043	,	-24653	,	-3.1896584	,	0
13,43	,	264838	,	-25024	,	-24666	,	-2.1942916	,	0
13,43	,	264870	,	-25051	,	-24661	,	-0.8704901	,	0
13,43	,	264886	,	-25067	,	-24661	,	0.44384706	,	1
13,43	,	264902	,	-25055	,	-24665	,	1.0763422	,	2
13,43	,	264934	,	-25042	,	-24664	,	0.81035423	,	2
13,43	,	264950	,	-25059	,	-24673	,	0.034744054	,	2
13,43	,	264966	,	-25054	,	-24673	,	-0.8889774	,	2
13,43	,	264998	,	-25064	,	-24655	,	-1.8630235	,	2
13,43	,	265014	,	-25052	,	-24679	,	-2.8338184	,	2
13,43	,	265046	,	-25056	,	-24669	,	-3.6492684	,	2
13,43	,	265062	,	-25066	,	-24680	,	-4.1785536	,	2
13,43	,	265077	,	-25076	,	-24694	,	-4.5441647	,	1
13,43	,	265110	,	-25082	,	-24690	,	-5.0718656	,	0
13,43	,	265126	,	-25073	,	-24693	,	-5.950549	,	0
13,43	,	265142	,	-25090	,	-24702	,	-7.0822372	,	0
13,43	,	265174	,	-25072	,	-24710	,	-8.241151	,	0
13,43	,	265190	,	-25082	,	-24711	,	-9.153315	,	0
13,43	,	265221	,	-25075	,	-24702	,	-9.562227	,	0
13,43	,	265237	,	-25065	,	-24678	,	-9.297916	,	0
13,43	,	265254	,	-25048	,	-24674	,	-8.140341	,	0
13,43	,	265285	,	-25041	,	-24657	,	-5.82411	,	1
13,43	,	265301	,	-25021	,	-24648	,	-2.23025	,	3
13,43	,	265318	,	-25034	,	-24648	,	2.45376	,	6
13,43	,	265350	,	-25044	,	-24649	,	7.541185	,	10
13,43	,	265366	,	-25042	,	-24665	,	11.98251	,	15
13,43	,	265382	,	-25033	,	-24654	,	14.985501	,	19
13,44	,	265414	,	-25033	,	-24649	,	16.376133	,	22
13,44	,	265430	,	-25014	,	-24662	,	16.468512	,	23
13,44	,	265462	,	-25046	,	-24675	,	15.696366	,	23
13,44	,	265478	,	-25031	,	-24652	,	14.224443	,	22
13,44	,	265493	,	-25056	,	-24669	,	12.001827	,	20
13,44	,	265525	,	-25044	,	-24668	,	9.042606	,	17
13,44	,	265541	,	-25028	,	-24672	,	5.6664643	,	13
13,44	,	265557	,	-25047	,	-24668	,	2.487132	,	8
13,44	,	265590	,	-25040	,	-24676	,	-0.07882929	,	4
13,44	,	265606	,	-25044	,	-24676	,	-1.9728673	,	1
13,44	,	265637	,	-25055	,	-24671	,	-3.2844687	,	0
13,44	,	265653	,	-25032	,	-24678	,	-4.1285543	,	0
13,44	,	265669	,	-25043	,	-24688	,	-4.463913	,	0
13,44	,	265701	,	-25056	,	-24707	,	-4.288975	,	0
13,44	,	265717	,	-25054	,	-24669	,	-3.929307	,	0
13,44	,	265734	,	-25049	,	-24683	,	-3.703729	,	0
13,44	,	265765	,	-25068	,	-24694	,	-3.6993525	,	0
13,44	,	265782	,	-25058	,	-24690	,	-3.978478	,	0
13,44	,	265797	,	-25057	,	-24691	,	-4.5082865	,	0
13,44	,	265829	,	-25068	,	-24697	,	-5.0947027	,	0
13,44	,	265845	,	-25073	,	-24702	,	-5.6710567	,	0
13,44	,	265877	,	-25064	,	-24698	,	-6.28564	,	0
13,44	,	265893	,	-25075	,	-24699	,	-6.864823	,	0
13,44	,	265910	,	-25070	,	-24695	,	-7.2914953	,	0
13,44	,	265941	,	-25086	,	-24726	,	-7.5650845	,	0
13,44	,	265958	,	-25069	,	-24686	,	-7.749809	,	0
13,44	,	265974	,	-25071	,	-24704	,	-7.770136	,	0
13,44	,	266005	,	-25062	,	-24696	,	-7.3862476	,	0
13,44	,	266021	,	-25055	,	-24701	,	-6.3769636	,	0
13,44	,	266053	,	-25042	,	-24694	,	-4.5893545	,	1
13,44	,	266069	,	-25035	,	-24693	,	-1.9356873	,	2
13,44	,	266085	,	-25031	,	-24689	,	1.5065205	,	4
13,44	,	266117	,	-25037	,	-24684	,	5.385068	,	7
13,44	,	266133	,	-25048	,	-24675	,	9.046406	,	10
13,44	,	266149	,	-25044	,	-24681	,	11.741387	,	13
13,44	,	266181	,	-25031	,	-24700	,	13.081316	,	15
13,44	,	266197	,	-25049	,	-24673	,	13.171628	,	16
13,44	,	266213	,	-25061	,	-24689	,	12.145046	,	16
13,44	,	266245	,	-25053	,	-24689	,	9.990301	,	15
13,44	,	266261	,	-25036	,	-24689	,	7.025291	,	14
13,44	,	266293	,	-25033	,	-24678	,	4.0480676	,	12
13,44	,	266309	,	-25034	,	-24690	,	1.8196936	,	9
13,44	,	266325	,	-25053	,	-24690	,	0.5461104	,	6
13,44	,	266357	,	-25045	,	-24686	,	-0.104596734	,	3
13,44	,	266373	,	-25035	,	-24685	,	-0.47057885	,	1
13,45	,	266389	,	-25052	,	-24689	,	-0.6296923	,	0
13,45	,	266421	,	-25053	,	-24705	,	-0.7111286	,	0
13,45	,	266438	,	-25041	,	-24670	,	-0.90469086	,	0
13,45	,	266469	,	-25046	,	-24683	,	-1.1581035	,	0
13,45	,	266485	,	-25044	,	-24680	,	-1.297671	,	0
13,45	,	266501	,	-25026	,	-24681	,	-1.175163	,	0
13,45	,	266533	,	-25060	,	-24694	,	-0.7173448	,	0
13,45	,	266549	,	-25058	,	-24683	,	-0.22484046	,	0
13,45	,	266565	,	-25055	,	-24693	,	-0.18669796	,	0
13,45	,	266597	,	-25054	,	-24692	,	-0.7146119	,	0
13,45	,	266613	,	-25059	,	-24693	,	-1.5909247	,	0
13,45	,	266629	,	-25064	,	-24697	,	-2.622226	,	0
13,45	,	266661	,	-25062	,	-24694	,	-3.7030232	,	0
13,45	,	266677	,	-25051	,	-24671	,	-4.6574244	,	0
13,45	,	266709	,	-25072	,	-24684	,	-5.2759695	,	0
13,45	,	266725	,	-25068	,	-24690	,	-5.5924835	,	0
13,45	,	266741	,	-25074	,	-24697	,	-5.8270054	,	0
13,45	,	266773	,	-25055	,	-24694	,	-6.021743	,	0
13,45	,	266789	,	-25057	,	-24687	,	-5.9292316	,	0
13,45	,	266821	,	-25059	,	-24696	,	-5.3031616	,	0
13,45	,	266837	,	-25045	,	-24681	,	-4.1136236	,	0
13,45	,	266853	,	-25043	,	-24680	,	-2.3935502	,	1
13,45	,	266885	,	-25039	,	-24681	,	-0.18592906	,	2
13,45	,	266901	,	-25032	,	-24693	,	2.3655627	,	4
13,45	,	266917	,	-25038	,	-24676	,	5.0247188	,	6
13,45	,	266949	,	-25019	,	-24681	,	7.532474	,	8
13,45	,	266965	,	-25001	,	-24666	,	9.852495	,	10
13,45	,	266981	,	-25028	,	-24674	,	12.088237	,	12
13,45	,	267013	,	-25014	,	-24661	,	14.009676	,	14
13,45	,	267029	,	-25011	,	-24670	,	15.230915	,	15
13,45	,	267061	,	-25016	,	-24666	,	15.635206	,	15
13,45	,	267077	,	-25004	,	-24668	,	15.291029	,	14
13,45	,	267093	,	-25028	,	-24668	,	14.277404	,	12
13,45	,	267125	,	-25013	,	-24680	,	12.609687	,	10
13,45	,	267141	,	-25018	,	-24681	,	10.385912	,	8
13,45	,	267157	,	-25023	,	-24660	,	7.8689947	,	6
13,45	,	267189	,	-25006	,	-24666	,	5.350826	,	4
13,45	,	267205	,	-25020	,	-24674	,	3.139513	,	2
13,45	,	267237	,	-25015	,	-24668	,	1.4271777	,	1
13,45	,	267253	,	-25002	,	-24660	,	0.27044344	,	0
13,45	,	267269	,	-25017	,	-24656	,	-0.2614361	,	0
13,45	,	267301	,	-25001	,	-24662	,	-0.20381695	,	0
13,45	,	267317	,	-25020	,	-24669	,	0.24652654	,	0
13,45	,	267333	,	-25021	,	-24657	,	0.7564628	,	0
13,45	,	267365	,	-25021	,	-24658	,	0.94987005	,	0
13,45	,	267381	,	-25010	,	-24673	,	0.7189994	,	0
13,46	,	267397	,	-25023	,	-24662	,	0.24122027	,	0
13,46	,	267429	,	-25034	,	-24674	,	-0.4046567	,	0
13,46	,	267445	,	-25026	,	-24669	,	-1.3262899	,	0
13,46	,	267477	,	-25021	,	-24668	,	-2.4610822	,	0
13,46	,	267493	,	-25027	,	-24667	,	-3.5079858	,	0
13,46	,	267509	,	-25021	,	-24676	,	-4.2251754	,	0
13,46	,	267541	,	-25034	,	-24671	,	-4.565166	,	0
13,46	,	267557	,	-25040	,	-24686	,	-4.6897717	,	0
13,46	,	267573	,	-25047	,	-24680	,	-4.9089475	,	0
13,46	,	267605	,	-25043	,	-24679	,	-5.4426737	,	0
13,46	,	267621	,	-25022	,	-24696	,	-6.140004	,	0
13,46	,	267653	,	-25026	,	-24673	,	-6.4885707	,	0
13,46	,	267669	,	-25012	,	-24666	,	-6.0113335	,	0
13,46	,	267685	,	-25003	,	-24676	,	-4.4841404	,	0
13,46	,	267716	,	-24994	,	-24662	,	-1.8540561	,	1
13,46	,	267732	,	-24984	,	-24664	,	1.7628248	,	3
13,46	,	267748	,	-24973	,	-24663	,	6.1019726	,	6
13,46	,	267780	,	-24961	,	-24661	,	10.854268	,	10
13,46	,	267796	,	-24992	,	-24658	,	15.528114	,	14
13,46	,	267813	,	-24986	,	-24668	,	19.248726	,	18
13,46	,	267844	,	-24978	,	-24653	,	21.21773	,	21
13,46	,	267861	,	-24986	,	-24674	,	21.27657	,	22
13,46	,	267893	,	-24992	,	-24645	,	19.673965	,	22
13,46	,	267909	,	-24974	,	-24657	,	16.801785	,	21
13,46	,	267925	,	-24989	,	-24659	,	13.247261	,	19
13,46	,	267957	,	-24982	,	-24646	,	9.5721245	,	16
13,46	,	267973	,	-24986	,	-24655	,	6.129825	,	12
13,46	,	267988	,	-24966	,	-24638	,	3.2415323	,	8
13,46	,	268021	,	-24986	,	-24641	,	1.2147727	,	4
13,46	,	268037	,	-24970	,	-24641	,	0.11102939	,	1
13,46	,	268069	,	-24996	,	-24645	,	-0.30858982	,	0
13,46	,	268085	,	-24963	,	-24642	,	-0.3581919	,	0
13,46	,	268100	,	-24981	,	-24666	,	-0.14496532	,	0
13,46	,	268133	,	-24968	,	-24633	,	0.36312926	,	0
13,46	,	268149	,	-25000	,	-24653	,	0.9848529	,	0
13,46	,	268164	,	-24989	,	-24655	,	1.26693	,	0
13,46	,	268196	,	-24998	,	-24650	,	0.8475768	,	0
13,46	,	268213	,	-24992	,	-24643	,	-0.25819662	,	0
13,46	,	268245	,	-24987	,	-24651	,	-1.7243487	,	0
13,46	,	268260	,	-24974	,	-24649	,	-3.03904	,	0
13,46	,	268277	,	-24980	,	-24648	,	-3.6968112	,	0
13,46	,	268308	,	-24984	,	-24652	,	-3.5209367	,	0
13,46	,	268324	,	-24988	,	-24655	,	-2.747363	,	0
13,46	,	268340	,	-25000	,	-24671	,	-1.8388852	,	0
13,46	,	268372	,	-25005	,	-24645	,	-1.3047614	,	0
13,47	,	268388	,	-25007	,	-24663	,	-1.4984158	,	0
13,47	,	268405	,	-24991	,	-24656	,	-2.3703525	,	0
13,47	,	268437	,	-24966	,	-24659	,	-3.3313322	,	0
13,47	,	268453	,	-24964	,	-24658	,	-3.485751	,	0
13,47	,	268484	,	-24973	,	-24641	,	-2.3104722	,	0
13,47	,	268501	,	-24927	,	-24620	,	0.15741682	,	1
13,47	,	268516	,	-24917	,	-24584	,	3.9166398	,	3
13,47	,	268548	,	-24878	,	-24543	,	9.182449	,	6
13,47	,	268564	,	-24846	,	-24503	,	16.129261	,	11
13,47	,	268580	,	-24829	,	-24481	,	24.729057	,	17
13,47	,	268612	,	-24819	,	-24413	,	34.458855	,	25
13,47	,	268628	,	-24809	,	-24399	,	44.228783	,	34
13,47	,	268660	,	-24816	,	-24423	,	52.705666	,	43
13,47	,	268677	,	-24825	,	-24449	,	58.58396	,	51
13,47	,	268692	,	-24846	,	-24489	,	60.75727	,	55
13,47	,	268724	,	-24856	,	-24511	,	58.55273	,	55
13,47	,	268740	,	-24888	,	-24541	,	51.88289	,	52
13,47	,	268756	,	-24897	,	-24558	,	41.201797	,	47
13,47	,	268788	,	-24907	,	-24581	,	27.517	,	41
13,47	,	268804	,	-24892	,	-24586	,	12.4617195	,	33
13,47	,	268820	,	-24904	,	-24605	,	-1.9846458	,	24
13,47	,	268852	,	-24904	,	-24593	,	-14.160105	,	15
13,47	,	268868	,	-24947	,	-24607	,	-23.328594	,	7
13,47	,	268900	,	-24922	,	-24602	,	-29.64767	,	2
13,47	,	268916	,	-24910	,	-24584	,	-33.335056	,	0
13,47	,	268932	,	-24898	,	-24560	,	-34.169926	,	0
13,47	,	268964	,	-24876	,	-24525	,	-31.880957	,	0
13,47	,	268980	,	-24860	,	-24496	,	-26.475489	,	2
13,47	,	268996	,	-24838	,	-24471	,	-18.27996	,	7
13,47	,	269028	,	-24823	,	-24451	,	-7.9414415	,	15
13,47	,	269044	,	-24823	,	-24422	,	3.572113	,	25
13,47	,	269076	,	-24816	,	-24432	,	14.991553	,	36
13,47	,	269092	,	-24806	,	-24400	,	25.052958	,	47
13,47	,	269108	,	-24828	,	-24424	,	32.763115	,	57
13,47	,	269140	,	-24859	,	-24469	,	37.185913	,	64
13,47	,	269156	,	-24885	,	-24512	,	37.353386	,	68
13,47	,	269172	,	-24893	,	-24544	,	32.780582	,	66
13,47	,	269204	,	-24904	,	-24552	,	23.976664	,	61
13,47	,	269220	,	-24912	,	-24561	,	12.329067	,	53
13,47	,	269236	,	-24905	,	-24578	,	-0.3612299	,	43
13,47	,	269268	,	-24918	,	-24586	,	-12.304405	,	32
13,47	,	269284	,	-24912	,	-24588	,	-22.113672	,	21
13,47	,	269316	,	-24906	,	-24595	,	-28.926481	,	11
13,47	,	269332	,	-24914	,	-24553	,	-32.35827	,	4
13,47	,	269348	,	-24863	,	-24535	,	-32.357597	,	0
13,47	,	269380	,	-24831	,	-24473	,	-28.731533	,	0
13,48	,	269396	,	-24807	,	-24423	,	-21.170315	,	3
13,48	,	269412	,	-24776	,	-24379	,	-9.879722	,	10
13,48	,	269444	,	-24754	,	-24345	,	4.2532024	,	21
13,48	,	269460	,	-24738	,	-24307	,	19.882915	,	35
13,48	,	269492	,	-24715	,	-24281	,	35.444546	,	50
13,48	,	269508	,	-24708	,	-24260	,	49.468395	,	65
13,48	,	269524	,	-24701	,	-24265	,	60.7524	,	79
13,48	,	269556	,	-24705	,	-24279	,	68.378555	,	90
13,48	,	269572	,	-24711	,	-24266	,	71.74672	,	97
13,48	,	269588	,	-24728	,	-24289	,	70.59925	,	97
13,48	,	269620	,	-24767	,	-24401	,	64.908295	,	90
13,48	,	269636	,	-24814	,	-24458	,	54.645508	,	79
13,48	,	269668	,	-24844	,	-24483	,	39.866554	,	65
13,48	,	269684	,	-24875	,	-24516	,	21.180216	,	50
13,48	,	269700	,	-24875	,	-24544	,	0.066280365	,	35
13,48	,	269732	,	-24898	,	-24563	,	-21.294985	,	21
13,48	,	269748	,	-24903	,	-24567	,	-40.65416	,	10
13,48	,	269764	,	-24908	,	-24574	,	-56.243267	,	3
13,48	,	269796	,	-24923	,	-24577	,	-66.97835	,	0
13,48	,	269812	,	-24896	,	-24547	,	-72.42584	,	0
13,48	,	269828	,	-24880	,	-24527	,	-72.455536	,	0
13,48	,	269860	,	-24843	,	-24445	,	-67.03201	,	0
13,48	,	269876	,	-24807	,	-24401	,	-56.32914	,	5
13,48	,	269908	,	-24784	,	-24348	,	-40.913494	,	15
13,48	,	269924	,	-24760	,	-24298	,	-21.969439	,	30
13,48	,	269940	,	-24724	,	-24267	,	-1.1630096	,	48
13,48	,	269972	,	-24695	,	-24228	,	19.866444	,	68
13,48	,	269988	,	-24682	,	-24199	,	39.702206	,	89
13,48	,	270004	,	-24670	,	-24174	,	56.999275	,	108
13,48	,	270036	,	-24669	,	-24188	,	70.49366	,	125
13,48	,	270052	,	-24674	,	-24196	,	79.1785	,	138
13,48	,	270084	,	-24698	,	-24236	,	82.37393	,	141
13,48	,	270100	,	-24792	,	-24393	,	79.376755	,	134
13,48	,	270116	,	-24816	,	-24448	,	69.24703	,	119
13,48	,	270148	,	-24832	,	-24481	,	51.865234	,	101
13,48	,	270164	,	-24860	,	-24498	,	28.920204	,	81
13,48	,	270180	,	-24860	,	-24518	,	3.3356361	,	60
13,48	,	270212	,	-24880	,	-24529	,	-21.72314	,	41
13,48	,	270228	,	-24887	,	-24530	,	-43.54902	,	24
13,48	,	270244	,	-24862	,	-24518	,	-60.172432	,	11
13,48	,	270275	,	-24857	,	-24512	,	-70.20444	,	3
13,48	,	270291	,	-24839	,	-24472	,	-72.97555	,	0
13,48	,	270324	,	-24796	,	-24417	,	-68.64345	,	0
13,48	,	270340	,	-24738	,	-24320	,	-57.700104	,	4
13,48	,	270356	,	-24709	,	-24266	,	-40.75749	,	14
13,49	,	270387	,	-24687	,	-24230	,	-19.07769	,	30
13,49	,	270403	,	-24677	,	-24194	,	5.090681	,	51
13,49	,	270419	,	-24662	,	-24182	,	28.95096	,	75
13,49	,	270452	,	-24669	,	-24181	,	49.840702	,	98
13,49	,	270468	,	-24661	,	-24178	,	65.68186	,	118
13,49	,	270500	,	-24673	,	-24191	,	75.236084	,	133
13,49	,	270516	,	-24694	,	-24214	,	78.067184	,	142
13,49	,	270532	,	-24721	,	-24268	,	74.27313	,	140
13,49	,	270563	,	-24767	,	-24347	,	64.28732	,	130
13,49	,	270579	,	-24834	,	-24426	,	48.64253	,	114
13,49	,	270595	,	-24859	,	-24456	,	27.9818	,	93
13,49	,	270628	,	-24865	,	-24475	,	3.7372627	,	69
13,49	,	270644	,	-24890	,	-24491	,	-21.564121	,	46
13,49	,	270659	,	-24869	,	-24493	,	-44.965576	,	26
13,49	,	270691	,	-24874	,	-24494	,	-63.75276	,	11
13,49	,	270708	,	-24870	,	-24478	,	-75.98523	,	2
13,49	,	270740	,	-24875	,	-24471	,	-80.98288	,	0
13,49	,	270756	,	-24843	,	-24449	,	-79.14874	,	0
13,49	,	270772	,	-24809	,	-24426	,	-71.24644	,	1
13,49	,	270803	,	-24788	,	-24391	,	-58.069042	,	8
13,49	,	270819	,	-24734	,	-24322	,	-40.593067	,	21
13,49	,	270835	,	-24703	,	-24288	,	-19.9365	,	38
13,49	,	270867	,	-24690	,	-24250	,	2.5573082	,	58
13,49	,	270884	,	-24677	,	-24235	,	25.017134	,	80
13,49	,	270916	,	-24678	,	-24220	,	45.246826	,	102
13,49	,	270932	,	-24671	,	-24213	,	61.283066	,	122
13,49	,	270947	,	-24679	,	-24222	,	71.80352	,	138
13,49	,	270979	,	-24675	,	-24232	,	76.286606	,	147
13,49	,	270996	,	-24703	,	-24259	,	74.89905	,	144
13,49	,	271012	,	-24718	,	-24282	,	68.18504	,	131
13,49	,	271044	,	-24730	,	-24301	,	56.965893	,	114
13,49	,	271059	,	-24770	,	-24382	,	42.342674	,	94
13,49	,	271091	,	-24789	,	-24402	,	25.437305	,	72
13,49	,	271107	,	-24789	,	-24411	,	7.4479294	,	50
13,49	,	271123	,	-24797	,	-24421	,	-10.052822	,	30
13,49	,	271155	,	-24823	,	-24431	,	-25.489809	,	14
13,49	,	271171	,	-24827	,	-24449	,	-37.89538	,	4
13,49	,	271188	,	-24818	,	-24462	,	-46.795025	,	0
13,49	,	271219	,	-24847	,	-24469	,	-51.965816	,	0
13,49	,	271235	,	-24839	,	-24468	,	-53.649002	,	0
13,49	,	271251	,	-24836	,	-24463	,	-52.406662	,	0
13,49	,	271283	,	-24802	,	-24393	,	-48.580215	,	1
13,49	,	271299	,	-24743	,	-24320	,	-41.937214	,	4
13,49	,	271331	,	-24719	,	-24281	,	-31.822374	,	10
13,49	,	271347	,	-24701	,	-24253	,	-18.041613	,	20
13,49	,	271363	,	-24700	,	-24241	,	-1.6015129	,	33
13,50	,	271396	,	-24700	,	-24243	,	15.483606	,	49
13,50	,	271411	,	-24714	,	-24272	,	30.846172	,	66
13,50	,	271427	,	-24747	,	-24312	,	42.258472	,	81
13,50	,	271459	,	-24785	,	-24355	,	47.867146	,	92
13,50	,	271475	,	-24817	,	-24399	,	46.50114	,	96
13,50	,	271507	,	-24833	,	-24435	,	38.1285	,	93
13,50	,	271523	,	-24840	,	-24434	,	24.090418	,	87
13,50	,	271539	,	-24862	,	-24475	,	6.7211266	,	77
13,50	,	271571	,	-24888	,	-24494	,	-11.554525	,	64
13,50	,	271587	,	-24862	,	-24497	,	-28.67448	,	48
13,50	,	271603	,	-24869	,	-24510	,	-42.720978	,	31
13,50	,	271635	,	-24865	,	-24525	,	-52.14859	,	16
13,50	,	271651	,	-24860	,	-24523	,	-56.300674	,	5
13,50	,	271667	,	-24853	,	-24523	,	-55.3621	,	0
13,50	,	271699	,	-24854	,	-24513	,	-50.119537	,	0
13,50	,	271715	,	-24833	,	-24503	,	-41.71978	,	5
13,50	,	271747	,	-24821	,	-24488	,	-31.277794	,	13
13,50	,	271763	,	-24821	,	-24440	,	-19.77102	,	23
13,50	,	271779	,	-24772	,	-24409	,	-8.026827	,	34
13,50	,	271811	,	-24779	,	-24401	,	3.4779692	,	45
13,50	,	271827	,	-24775	,	-24380	,	14.297128	,	56
13,50	,	271843	,	-24769	,	-24388	,	23.654198	,	66
13,50	,	271875	,	-24769	,	-24394	,	30.787266	,	75
13,50	,	271891	,	-24786	,	-24414	,	35.17753	,	82
13,50	,	271923	,	-24791	,	-24427	,	36.461166	,	81
13,50	,	271939	,	-24806	,	-24431	,	34.52053	,	74
13,50	,	271955	,	-24802	,	-24446	,	29.65939	,	64
13,50	,	271987	,	-24803	,	-24473	,	22.678493	,	53
13,50	,	272003	,	-24819	,	-24453	,	14.646891	,	42
13,50	,	272019	,	-24822	,	-24491	,	6.464856	,	31
13,50	,	272051	,	-24837	,	-24500	,	-1.2845879	,	21
13,50	,	272067	,	-24837	,	-24500	,	-8.221685	,	12
13,50	,	272083	,	-24828	,	-24510	,	-13.979269	,	5
13,50	,	272115	,	-24844	,	-24510	,	-18.165457	,	1
13,50	,	272131	,	-24838	,	-24498	,	-20.62482	,	0
13,50	,	272163	,	-24856	,	-24494	,	-21.54999	,	0
13,50	,	272179	,	-24836	,	-24488	,	-21.276876	,	0
13,50	,	272195	,	-24838	,	-24482	,	-20.0029	,	0
13,50	,	272227	,	-24817	,	-24461	,	-17.69638	,	1
13,50	,	272243	,	-24804	,	-24423	,	-14.200393	,	3
13,50	,	272259	,	-24799	,	-24416	,	-9.421838	,	6
13,50	,	272291	,	-24810	,	-24424	,	-3.6725225	,	10
13,50	,	272307	,	-24818	,	-24419	,	2.183929	,	15
13,50	,	272339	,	-24821	,	-24434	,	7.0863304	,	20
13,50	,	272355	,	-24818	,	-24434	,	10.303657	,	24
13,50	,	272371	,	-24835	,	-24441	,	11.593061	,	27
13,51	,	272403	,	-24826	,	-24436	,	11.025234	,	28
13,51	,	272419	,	-24821	,	-24451	,	8.994629	,	27
13,51	,	272435	,	-24822	,	-24446	,	6.2072234	,	25
13,51	,	272467	,	-24800	,	-24441	,	3.451624	,	22
13,51	,	272483	,	-24774	,	-24400	,	1.5973158	,	18
13,51	,	272515	,	-24748	,	-24363	,	1.6034303	,	13
13,51	,	272530	,	-24726	,	-24319	,	4.1851482	,	8
13,51	,	272547	,	-24699	,	-24298	,	9.521259	,	6
13,51	,	272579	,	-24681	,	-24264	,	17.249378	,	8
13,51	,	272595	,	-24672	,	-24225	,	26.532093	,	14
13,51	,	272611	,	-24668	,	-24226	,	36.124958	,	23
13,51	,	272643	,	-24675	,	-24216	,	44.575985	,	32
13,51	,	272659	,	-24677	,	-24224	,	50.536224	,	40
13,51	,	272675	,	-24676	,	-24233	,	53.11432	,	45
13,51	,	272707	,	-24687	,	-24283	,	52.06483	,	47
13,51	,	272723	,	-24708	,	-24288	,	47.5841	,	47
13,51	,	272754	,	-24759	,	-24377	,	39.85034	,	45
13,51	,	272771	,	-24774	,	-24401	,	28.8735	,	40
13,51	,	272787	,	-24782	,	-24425	,	15.058853	,	33
13,51	,	272819	,	-24790	,	-24440	,	-0.31628036	,	24
13,51	,	272835	,	-24799	,	-24454	,	-15.482871	,	15
13,51	,	272851	,	-24817	,	-24457	,	-28.87813	,	7
13,51	,	272883	,	-24814	,	-24455	,	-39.484272	,	2
13,51	,	272899	,	-24811	,	-24442	,	-46.699646	,	0
13,51	,	272931	,	-24786	,	-24416	,	-50.06852	,	0
13,51	,	272947	,	-24772	,	-24394	,	-49.231506	,	0
13,51	,	272963	,	-24734	,	-24303	,	-44.041107	,	0
13,51	,	272995	,	-24662	,	-24226	,	-34.406166	,	5
13,51	,	273011	,	-24643	,	-24197	,	-20.226128	,	14
13,51	,	273027	,	-24644	,	-24159	,	-2.211071	,	28
13,51	,	273059	,	-24635	,	-24160	,	17.52713	,	46
13,51	,	273075	,	-24649	,	-24178	,	36.15092	,	65
13,51	,	273091	,	-24662	,	-24188	,	50.988785	,	83
13,51	,	273122	,	-24670	,	-24209	,	60.08754	,	97
13,51	,	273139	,	-24709	,	-24245	,	62.489353	,	106
13,51	,	273170	,	-24710	,	-24260	,	58.16499	,	108
13,51	,	273187	,	-24749	,	-24316	,	47.922916	,	103
13,51	,	273203	,	-24771	,	-24342	,	33.13833	,	94
13,51	,	273235	,	-24810	,	-24439	,	15.311014	,	80
13,51	,	273251	,	-24833	,	-24466	,	-4.1037426	,	62
13,51	,	273267	,	-24824	,	-24488	,	-23.504513	,	43
13,51	,	273298	,	-24833	,	-24477	,	-40.95904	,	25
13,51	,	273314	,	-24831	,	-24484	,	-54.60579	,	11
13,51	,	273346	,	-24817	,	-24484	,	-63.176277	,	2
13,51	,	273363	,	-24813	,	-24460	,	-66.08365	,	0
13,51	,	273379	,	-24773	,	-24428	,	-63.31298	,	0
13,52	,	273410	,	-24762	,	-24409	,	-55.241455	,	2
13,52	,	273426	,	-24746	,	-24385	,	-42.70675	,	10
13,52	,	273442	,	-24728	,	-24346	,	-27.122828	,	22
13,52	,	273474	,	-24730	,	-24343	,	-10.251215	,	37
13,52	,	273490	,	-24739	,	-24346	,	5.9712067	,	53
13,52	,	273506	,	-24741	,	-24359	,	19.632624	,	69
13,52	,	273538	,	-24758	,	-24364	,	29.268894	,	82
13,52	,	273555	,	-24772	,	-24390	,	34.071106	,	91
13,52	,	273586	,	-24780	,	-24414	,	33.900764	,	95
13,52	,	273603	,	-24785	,	-24425	,	29.347141	,	93
13,52	,	273619	,	-24794	,	-24435	,	21.596197	,	85
13,52	,	273650	,	-24785	,	-24426	,	12.136513	,	73
13,52	,	273667	,	-24785	,	-24439	,	2.5519733	,	58
13,52	,	273682	,	-24781	,	-24423	,	-5.747676	,	42
13,52	,	273714	,	-24777	,	-24417	,	-11.817503	,	26
13,52	,	273730	,	-24768	,	-24396	,	-15.214254	,	13
13,52	,	273762	,	-24772	,	-24392	,	-15.935268	,	4
13,52	,	273779	,	-24772	,	-24397	,	-14.419665	,	0
13,52	,	273794	,	-24775	,	-24398	,	-11.428917	,	1
13,52	,	273826	,	-24781	,	-24392	,	-7.8186913	,	3
13,52	,	273843	,	-24769	,	-24400	,	-4.309616	,	6
13,52	,	273858	,	-24778	,	-24383	,	-1.3165793	,	9
13,52	,	273890	,	-24765	,	-24364	,	1.0218816	,	11
13,52	,	273906	,	-24736	,	-24328	,	2.9000826	,	13
13,52	,	273923	,	-24709	,	-24265	,	5.0070887	,	14
13,52	,	273954	,	-24675	,	-24224	,	8.293692	,	16
13,52	,	273970	,	-24652	,	-24154	,	13.488293	,	19
13,52	,	274003	,	-24635	,	-24133	,	20.729586	,	23
13,52	,	274018	,	-24643	,	-24135	,	29.347635	,	28
13,52	,	274034	,	-24648	,	-24143	,	37.909237	,	33
13,52	,	274066	,	-24664	,	-24170	,	44.65495	,	38
13,52	,	274082	,	-24668	,	-24197	,	48.120407	,	42
13,52	,	274098	,	-24707	,	-24253	,	47.44827	,	43
13,52	,	274130	,	-24724	,	-24306	,	42.292267	,	42
13,52	,	274146	,	-24746	,	-24346	,	32.835976	,	40
13,52	,	274178	,	-24751	,	-24351	,	19.988914	,	37
13,52	,	274194	,	-24749	,	-24375	,	5.367119	,	32
13,52	,	274210	,	-24738	,	-24330	,	-8.967788	,	25
13,52	,	274242	,	-24719	,	-24305	,	-20.908016	,	17
13,52	,	274258	,	-24698	,	-24249	,	-28.71388	,	9
13,52	,	274274	,	-24659	,	-24223	,	-31.235676	,	3
13,52	,	274306	,	-24647	,	-24179	,	-28.037762	,	0
13,52	,	274322	,	-24623	,	-24156	,	-19.605135	,	3
13,52	,	274354	,	-24621	,	-24125	,	-7.3471575	,	11
13,52	,	274370	,	-24626	,	-24121	,	6.6723375	,	23
13,53	,	274386	,	-24616	,	-24127	,	20.17939	,	37
13,53	,	274418	,	-24630	,	-24150	,	31.262672	,	50
13,53	,	274434	,	-24645	,	-24150	,	38.58872	,	61
13,53	,	274450	,	-24639	,	-24162	,	41.441124	,	68
13,53	,	274482	,	-24643	,	-24149	,	39.95726	,	70
13,53	,	274498	,	-24620	,	-24120	,	35.14913	,	70
13,53	,	274514	,	-24614	,	-24081	,	28.601604	,	67
13,53	,	274546	,	-24593	,	-24027	,	22.01512	,	59
13,53	,	274562	,	-24571	,	-23998	,	16.830597	,	47
13,53	,	274594	,	-24550	,	-23969	,	14.086904	,	33
13,53	,	274610	,	-24531	,	-23937	,	14.29306	,	20
13,53	,	274626	,	-24546	,	-23946	,	17.195044	,	9
13,53	,	274658	,	-24551	,	-23962	,	21.639135	,	4
13,53	,	274674	,	-24573	,	-23988	,	25.90348	,	6
13,53	,	274690	,	-24611	,	-24093	,	28.206182	,	10
13,53	,	274722	,	-24653	,	-24135	,	26.943064	,	12
13,53	,	274738	,	-24666	,	-24147	,	21.094845	,	12
13,53	,	274770	,	-24678	,	-24161	,	10.850466	,	12
13,53	,	274786	,	-24682	,	-24161	,	-2.334713	,	12
13,53	,	274802	,	-24702	,	-24195	,	-16.43348	,	12
13,53	,	274834	,	-24731	,	-24239	,	-29.73431	,	12
13,53	,	274850	,	-24749	,	-24264	,	-41.292847	,	10
13,53	,	274866	,	-24752	,	-24274	,	-50.669987	,	6
13,53	,	274898	,	-24739	,	-24282	,	-57.38656	,	2
13,53	,	274914	,	-24759	,	-24278	,	-60.88987	,	0
13,53	,	274930	,	-24746	,	-24286	,	-60.989094	,	0
13,53	,	274962	,	-24730	,	-24284	,	-57.84551	,	0
13,53	,	274978	,	-24715	,	-24289	,	-51.647446	,	3
13,53	,	275010	,	-24721	,	-24273	,	-42.782455	,	9
13,53	,	275026	,	-24734	,	-24280	,	-32.230278	,	17
13,53	,	275042	,	-24725	,	-24289	,	-21.420942	,	27
13,53	,	275074	,	-24724	,	-24304	,	-11.600824	,	37
13,53	,	275090	,	-24751	,	-24329	,	-3.6166124	,	46
13,53	,	275106	,	-24768	,	-24348	,	1.7622223	,	53
13,53	,	275138	,	-24786	,	-24377	,	3.8729281	,	58
13,53	,	275154	,	-24793	,	-24372	,	2.5651484	,	60
13,53	,	275186	,	-24783	,	-24383	,	-1.5416222	,	57
13,53	,	275202	,	-24792	,	-24386	,	-7.1778383	,	51
13,53	,	275218	,	-24769	,	-24375	,	-12.857691	,	43
13,53	,	275249	,	-24764	,	-24374	,	-17.208076	,	33
13,53	,	275266	,	-24764	,	-24359	,	-19.269623	,	23
13,53	,	275282	,	-24762	,	-24346	,	-18.821367	,	14
13,53	,	275314	,	-24751	,	-24357	,	-16.233534	,	7
13,53	,	275330	,	-24754	,	-24354	,	-12.092286	,	4
13,53	,	275346	,	-24747	,	-24356	,	-7.075918	,	6
13,53	,	275378	,	-24763	,	-24358	,	-1.9507961	,	11
13,54	,	275394	,	-24745	,	-24332	,	2.562438	,	16
13,54	,	275425	,	-24756	,	-24355	,	6.031368	,	20
13,54	,	275442	,	-24766	,	-24360	,	8.246957	,	23
13,54	,	275457	,	-24781	,	-24361	,	8.948172	,	25
13,54	,	275489	,	-24783	,	-24371	,	7.910713	,	25
13,54	,	275506	,	-24798	,	-24380	,	5.190975	,	25
13,54	,	275522	,	-24803	,	-24383	,	1.1119652	,	23
13,54	,	275554	,	-24801	,	-24394	,	-3.798509	,	19
13,54	,	275570	,	-24812	,	-24402	,	-8.857246	,	14
13,54	,	275601	,	-24810	,	-24410	,	-13.429655	,	9
13,54	,	275618	,	-24834	,	-24430	,	-17.15664	,	5
13,54	,	275633	,	-24816	,	-24406	,	-19.946754	,	2
13,54	,	275665	,	-24823	,	-24421	,	-21.69118	,	0
13,54	,	275682	,	-24839	,	-24446	,	-22.290592	,	0
13,54	,	275698	,	-24852	,	-24444	,	-22.033836	,	0
13,54	,	275730	,	-24841	,	-24446	,	-21.41992	,	0
13,54	,	275746	,	-24841	,	-24438	,	-20.618017	,	0
13,54	,	275777	,	-24826	,	-24447	,	-19.394794	,	0
13,54	,	275794	,	-24833	,	-24433	,	-17.443687	,	1
13,54	,	275810	,	-24824	,	-24436	,	-14.68304	,	2
13,54	,	275841	,	-24826	,	-24435	,	-11.286898	,	4
13,54	,	275857	,	-24821	,	-24455	,	-7.5519342	,	7
13,54	,	275873	,	-24805	,	-24424	,	-3.7287688	,	10
13,54	,	275905	,	-24818	,	-24437	,	0.031960487	,	13
13,54	,	275921	,	-24800	,	-24446	,	3.5430527	,	16
13,54	,	275937	,	-24807	,	-24452	,	6.599805	,	19
13,54	,	275970	,	-24815	,	-24442	,	8.99487	,	22
13,54	,	275986	,	-24808	,	-24448	,	10.45997	,	23
13,54	,	276017	,	-24820	,	-24442	,	10.832777	,	23
13,54	,	276034	,	-24822	,	-24445	,	10.105234	,	21
13,54	,	276049	,	-24823	,	-24441	,	8.371102	,	18
13,54	,	276082	,	-24819	,	-24448	,	5.9213743	,	15
13,54	,	276097	,	-24805	,	-24454	,	3.291161	,	12
13,54	,	276113	,	-24816	,	-24426	,	1.0776265	,	9
13,54	,	276145	,	-24816	,	-24441	,	-0.4160483	,	6
13,54	,	276162	,	-24805	,	-24441	,	-1.2058424	,	3
13,54	,	276193	,	-24806	,	-24441	,	-1.3251662	,	1
13,54	,	276210	,	-24817	,	-24445	,	-0.8634503	,	0
13,54	,	276226	,	-24817	,	-24444	,	-0.15122336	,	0
13,54	,	276257	,	-24818	,	-24443	,	0.42232114	,	0
13,54	,	276273	,	-24814	,	-24434	,	0.6731196	,	0
13,54	,	276289	,	-24851	,	-24438	,	0.4671036	,	0
13,54	,	276321	,	-24834	,	-24443	,	-0.49156457	,	0
13,54	,	276337	,	-24824	,	-24464	,	-2.216468	,	0
13,54	,	276354	,	-24820	,	-24433	,	-4.1063457	,	0
13,55	,	276385	,	-24825	,	-24443	,	-5.4722834	,	0
13,55	,	276401	,	-24828	,	-24451	,	-6.04817	,	0
13,55	,	276433	,	-24820	,	-24441	,	-5.9105697	,	0
13,55	,	276449	,	-24834	,	-24445	,	-5.2536373	,	0
13,55	,	276465	,	-24844	,	-24450	,	-4.420643	,	0
13,55	,	276497	,	-24828	,	-24444	,	-3.8016188	,	0
13,55	,	276513	,	-24812	,	-24449	,	-3.378283	,	0
13,55	,	276529	,	-24819	,	-24443	,	-2.7278981	,	0
13,55	,	276561	,	-24811	,	-24439	,	-1.5647253	,	0
13,55	,	276577	,	-24810	,	-24453	,	0.075442195	,	1
13,55	,	276609	,	-24810	,	-24418	,	1.9984611	,	2
13,55	,	276625	,	-24789	,	-24421	,	4.023569	,	3
13,55	,	276641	,	-24791	,	-24424	,	6.141965	,	5
13,55	,	276673	,	-24795	,	-24428	,	8.337618	,	7
13,55	,	276689	,	-24789	,	-24425	,	10.358663	,	9
13,55	,	276705	,	-24796	,	-24420	,	11.874315	,	11
13,55	,	276737	,	-24791	,	-24422	,	12.6438465	,	12
13,55	,	276753	,	-24801	,	-24423	,	12.540333	,	12
13,55	,	276769	,	-24800	,	-24419	,	11.541391	,	11
13,55	,	276801	,	-24793	,	-24425	,	9.779057	,	10
13,55	,	276817	,	-24805	,	-24436	,	7.5522933	,	9
13,55	,	276849	,	-24790	,	-24405	,	5.1891127	,	7
13,55	,	276865	,	-24794	,	-24413	,	3.019506	,	5
13,55	,	276881	,	-24795	,	-24424	,	1.3213713	,	3
13,55	,	276913	,	-24792	,	-24415	,	0.18121886	,	1
13,55	,	276929	,	-24788	,	-24415	,	-0.41776133	,	0
13,55	,	276945	,	-24802	,	-24422	,	-0.55399925	,	0
13,55	,	276977	,	-24799	,	-24417	,	-0.47083282	,	0
13,55	,	276993	,	-24799	,	-24418	,	-0.43441433	,	0
13,55	,	277025	,	-24815	,	-24420	,	-0.6062428	,	0
13,55	,	277041	,	-24801	,	-24419	,	-1.1028924	,	0
13,55	,	277057	,	-24797	,	-24432	,	-1.8346497	,	0
13,55	,	277089	,	-24799	,	-24412	,	-2.4659288	,	0
13,55	,	277105	,	-24805	,	-24430	,	-2.7712915	,	0
13,55	,	277121	,	-24807	,	-24416	,	-2.8065917	,	0
13,55	,	277153	,	-24811	,	-24426	,	-2.7599094	,	0
13,55	,	277169	,	-24809	,	-24422	,	-2.7835703	,	0
13,55	,	277185	,	-24812	,	-24424	,	-2.9211338	,	0
13,55	,	277217	,	-24820	,	-24427	,	-3.1770453	,	0
13,55	,	277233	,	-24817	,	-24432	,	-3.588736	,	0
13,55	,	277265	,	-24817	,	-24421	,	-4.130019	,	0
13,55	,	277281	,	-24815	,	-24424	,	-4.6447096	,	0
13,55	,	277297	,	-24811	,	-24433	,	-4.9301996	,	0
13,55	,	277329	,	-24782	,	-24401	,	-4.6922617	,	0
13,55	,	277345	,	-24789	,	-24412	,	-3.5155725	,	0
13,55	,	277361	,	-24758	,	-24402	,	-1.1087136	,	1
13,56	,	277393	,	-24760	,	-24403	,	2.561849	,	3
13,56	,	277409	,	-24766	,	-24405	,	7.167418	,	6
13,56	,	277441	,	-24756	,	-24399	,	11.954264	,	10
13,56	,	277457	,	-24763	,	-24409	,	16.110847	,	14
13,56	,	277473	,	-24771	,	-24395	,	19.011747	,	18
13,56	,	277505	,	-24773	,	-24399	,	20.19432	,	20
13,56	,	277521	,	-24771	,	-24414	,	19.51562	,	21
13,56	,	277537	,	-24771	,	-24399	,	17.260094	,	21
13,56	,	277569	,	-24753	,	-24394	,	14.0648	,	20
13,56	,	277585	,	-24751	,	-24403	,	10.776242	,	18
13,56	,	277617	,	-24745	,	-24395	,	8.142409	,	15
13,56	,	277633	,	-24752	,	-24399	,	6.4958878	,	11
13,56	,	277649	,	-24750	,	-24400	,	5.7196827	,	7
13,56	,	277681	,	-24753	,	-24395	,	5.4599714	,	3
13,56	,	277697	,	-24748	,	-24393	,	5.381855	,	1
13,56	,	277713	,	-24761	,	-24392	,	5.245846	,	0
13,56	,	277745	,	-24764	,	-24399	,	4.8074923	,	0
13,56	,	277761	,	-24748	,	-24393	,	3.9336576	,	0
13,56	,	277777	,	-24750	,	-24398	,	2.8398733	,	0
13,56	,	277809	,	-24760	,	-24397	,	1.8461711	,	0
13,56	,	277825	,	-24763	,	-24393	,	0.9892477	,	0
13,56	,	277856	,	-24766	,	-24404	,	0.10810375	,	0
13,56	,	277873	,	-24762	,	-24395	,	-0.8778084	,	0
13,56	,	277888	,	-24771	,	-24397	,	-1.9120653	,	0
13,56	,	277920	,	-24768	,	-24405	,	-2.92483	,	0
13,56	,	277937	,	-24764	,	-24396	,	-3.834086	,	0
13,56	,	277953	,	-24779	,	-24403	,	-4.543425	,	0
13,56	,	277985	,	-24789	,	-24399	,	-5.15497	,	0
13,56	,	278001	,	-24778	,	-24404	,	-5.8913283	,	0
13,56	,	278032	,	-24779	,	-24415	,	-6.711473	,	0
13,56	,	278048	,	-24774	,	-24397	,	-7.3211274	,	0
13,56	,	278064	,	-24771	,	-24393	,	-7.448847	,	0
13,56	,	278096	,	-24772	,	-24388	,	-6.963804	,	0
13,56	,	278112	,	-24754	,	-24389	,	-5.827984	,	0
13,56	,	278128	,	-24749	,	-24383	,	-3.9647155	,	1
13,56	,	278161	,	-24748	,	-24379	,	-1.3399849	,	2
13,56	,	278177	,	-24722	,	-24385	,	1.9360816	,	4
13,56	,	278193	,	-24728	,	-24372	,	5.73155	,	7
13,56	,	278225	,	-24732	,	-24378	,	9.751112	,	10
13,56	,	278240	,	-24728	,	-24371	,	13.397147	,	14
13,56	,	278272	,	-24726	,	-24370	,	16.108253	,	17
13,56	,	278288	,	-24725	,	-24375	,	17.629375	,	19
13,56	,	278304	,	-24732	,	-24374	,	17.921202	,	20
13,56	,	278337	,	-24737	,	-24375	,	17.003954	,	19
13,56	,	278353	,	-24721	,	-24379	,	15.025932	,	18
13,56	,	278368	,	-24710	,	-24376	,	12.494506	,	16
13,57	,	278400	,	-24720	,	-24363	,	10.09989	,	13
13,57	,	278416	,	-24715	,	-24366	,	8.218054	,	10
13,57	,	278448	,	-24708	,	-24376	,	6.894972	,	6
13,57	,	278464	,	-24702	,	-24367	,	6.1632643	,	3
13,57	,	278480	,	-24724	,	-24364	,	5.958746	,	1
13,57	,	278512	,	-24722	,	-24371	,	5.883232	,	0
13,57	,	278528	,	-24728	,	-24374	,	5.434275	,	0
13,57	,	278544	,	-24711	,	-24363	,	4.446433	,	0
13,57	,	278576	,	-24716	,	-24376	,	3.1769764	,	0
13,57	,	278592	,	-24730	,	-24365	,	1.9210703	,	0
13,57	,	278625	,	-24718	,	-24362	,	0.72512364	,	0
13,57	,	278640	,	-24733	,	-24365	,	-0.4362892	,	0
13,57	,	278657	,	-24733	,	-24370	,	-1.5803642	,	0
13,57	,	278689	,	-24734	,	-24374	,	-2.7553039	,	0
13,57	,	278704	,	-24730	,	-24378	,	-3.9051712	,	0
13,57	,	278720	,	-24738	,	-24373	,	-4.878895	,	0
13,57	,	278752	,	-24737	,	-24375	,	-5.595567	,	0
13,57	,	278768	,	-24740	,	-24389	,	-6.069586	,	0
13,57	,	278784	,	-24753	,	-24372	,	-6.391206	,	0
13,57	,	278816	,	-24750	,	-24387	,	-6.7367353	,	0
13,57	,	278832	,	-24746	,	-24387	,	-7.185401	,	0
13,57	,	278864	,	-24756	,	-24389	,	-7.6201696	,	0
13,57	,	278880	,	-24755	,	-24381	,	-7.943217	,	0
13,57	,	278896	,	-24732	,	-24388	,	-8.039289	,	0
13,57	,	278928	,	-24738	,	-24379	,	-7.587265	,	0
13,57	,	278944	,	-24719	,	-24374	,	-6.2660036	,	0
13,57	,	278960	,	-24720	,	-24370	,	-3.9693615	,	1
13,57	,	278992	,	-24718	,	-24370	,	-0.8491683	,	3
13,57	,	279008	,	-24708	,	-24377	,	2.7144036	,	6
13,57	,	279040	,	-24714	,	-24371	,	6.289207	,	9
13,57	,	279056	,	-24707	,	-24363	,	9.4731	,	12
13,57	,	279072	,	-24707	,	-24364	,	11.941513	,	15
13,57	,	279104	,	-24702	,	-24360	,	13.54388	,	17
13,57	,	279120	,	-24714	,	-24354	,	14.233063	,	18
13,57	,	279136	,	-24710	,	-24356	,	13.9537525	,	18
13,57	,	279168	,	-24709	,	-24363	,	12.736586	,	17
13,57	,	279184	,	-24702	,	-24361	,	10.849063	,	15
13,57	,	279200	,	-24702	,	-24367	,	8.72818	,	12
13,57	,	279232	,	-24701	,	-24361	,	6.7632265	,	9
13,57	,	279248	,	-24683	,	-24356	,	5.2505765	,	6
13,57	,	279280	,	-24698	,	-24349	,	4.4185967	,	3
13,57	,	279296	,	-24692	,	-24358	,	4.24049	,	1
13,57	,	279312	,	-24691	,	-24360	,	4.4501476	,	0
13,57	,	279344	,	-24695	,	-24361	,	4.791809	,	0
13,57	,	279360	,	-24695	,	-24366	,	5.0519314	,	0
13,57	,	279376	,	-24706	,	-24362	,	5.006222	,	0
13,58	,	279408	,	-24711	,	-24357	,	4.420391	,	0
13,58	,	279424	,	-24711	,	-24359	,	3.1519132	,	0
13,58	,	279456	,	-24707	,	-24361	,	1.3241587	,	0
13,58	,	279472	,	-24706	,	-24368	,	-0.68706155	,	0
13,58	,	279488	,	-24704	,	-24372	,	-2.4578686	,	0
13,58	,	279520	,	-24721	,	-24351	,	-3.7708914	,	0
13,58	,	279536	,	-24716	,	-24361	,	-4.718633	,	0
13,58	,	279552	,	-24710	,	-24354	,	-5.4359226	,	0
13,58	,	279584	,	-24720	,	-24365	,	-5.89137	,	0
13,58	,	279600	,	-24724	,	-24362	,	-6.095152	,	0
13,58	,	279616	,	-24727	,	-24374	,	-6.2133417	,	0
13,58	,	279648	,	-24724	,	-24371	,	-6.3776436	,	0
13,58	,	279664	,	-24728	,	-24369	,	-6.5685816	,	0
13,58	,	279696	,	-24733	,	-24382	,	-6.7221785	,	0
13,58	,	279712	,	-24729	,	-24372	,	-6.818467	,	0
13,58	,	279728	,	-24723	,	-24386	,	-6.778364	,	0
13,58	,	279760	,	-24717	,	-24365	,	-6.400237	,	0
13,58	,	279776	,	-24695	,	-24369	,	-5.3923426	,	0
13,58	,	279792	,	-24701	,	-24364	,	-3.4698412	,	1
13,58	,	279824	,	-24687	,	-24360	,	-0.59851027	,	2
13,58	,	279840	,	-24704	,	-24359	,	2.871687	,	4
13,58	,	279872	,	-24697	,	-24347	,	6.3079796	,	7
13,58	,	279888	,	-24691	,	-24358	,	9.113671	,	10
13,58	,	279904	,	-24688	,	-24349	,	11.048946	,	12
13,58	,	279936	,	-24693	,	-24344	,	12.132408	,	13
13,58	,	279952	,	-24708	,	-24359	,	12.317892	,	14
13,58	,	279968	,	-24710	,	-24369	,	11.419247	,	14
13,58	,	280000	,	-24700	,	-24336	,	9.416908	,	13
13,58	,	280016	,	-24691	,	-24356	,	6.7575874	,	12
13,58	,	280047	,	-24706	,	-24357	,	4.0982227	,	10
13,58	,	280064	,	-24690	,	-24347	,	1.862823	,	7
13,58	,	280080	,	-24677	,	-24348	,	0.344898	,	4
13,58	,	280112	,	-24704	,	-24351	,	-0.23880959	,	2
13,58	,	280128	,	-24699	,	-24347	,	-0.12276417	,	1
13,58	,	280144	,	-24696	,	-24358	,	0.18622924	,	0
13,58	,	280176	,	-24693	,	-24351	,	0.43672287	,	0
13,58	,	280192	,	-24708	,	-24354	,	0.56898654	,	0
13,58	,	280208	,	-24702	,	-24374	,	0.46212772	,	0
13,58	,	280240	,	-24697	,	-24336	,	0.068782955	,	0
13,58	,	280256	,	-24709	,	-24354	,	-0.4912562	,	0
13,58	,	280288	,	-24704	,	-24358	,	-1.1242715	,	0
13,58	,	280304	,	-24707	,	-24354	,	-1.7872698	,	0
13,58	,	280319	,	-24712	,	-24353	,	-2.4300208	,	0
13,58	,	280352	,	-24723	,	-24359	,	-3.1083255	,	0
13,58	,	280368	,	-24727	,	-24359	,	-3.997333	,	0
13,58	,	280384	,	-24714	,	-24363	,	-5.1450157	,	0
