Data recorded on Mon Jul 24 08-38-21 CAT 2017
Time: 8:38:30
Time		Millis		IR PPG		Red PPG		Filtered		SSF
38,39	,	33666	,	-17255	,	-13764	,	-25.306427	,	4
38,39	,	33698	,	-17233	,	-13769	,	-16.552351	,	9
38,39	,	33714	,	-17223	,	-13762	,	-5.386736	,	17
38,39	,	33730	,	-17224	,	-13763	,	6.9959545	,	28
38,39	,	33762	,	-17220	,	-13762	,	19.02239	,	40
38,39	,	33778	,	-17215	,	-13761	,	29.20038	,	52
38,39	,	33794	,	-17218	,	-13767	,	36.523956	,	62
38,39	,	33826	,	-17220	,	-13758	,	40.50978	,	69
38,39	,	33842	,	-17226	,	-13759	,	41.090416	,	71
38,39	,	33874	,	-17219	,	-13761	,	38.60643	,	68
38,39	,	33890	,	-17234	,	-13766	,	33.739258	,	63
38,39	,	33906	,	-17230	,	-13755	,	27.279408	,	55
38,39	,	33938	,	-17239	,	-13761	,	19.991253	,	44
38,39	,	33954	,	-17240	,	-13759	,	12.58226	,	32
38,39	,	33970	,	-17238	,	-13764	,	5.668353	,	20
38,39	,	34002	,	-17241	,	-13759	,	-0.23161602	,	10
38,39	,	34018	,	-17243	,	-13760	,	-4.780682	,	3
38,39	,	34034	,	-17246	,	-13767	,	-7.9058123	,	0
38,39	,	34066	,	-17252	,	-13771	,	-9.763244	,	0
38,39	,	34081	,	-17267	,	-13770	,	-10.713098	,	0
38,39	,	34114	,	-17259	,	-13760	,	-11.1987705	,	0
38,39	,	34130	,	-17279	,	-13781	,	-11.541495	,	0
38,39	,	34145	,	-17291	,	-13771	,	-12.01934	,	0
38,39	,	34177	,	-17301	,	-13780	,	-12.967417	,	0
38,39	,	34194	,	-17314	,	-13787	,	-14.598997	,	0
38,39	,	34210	,	-17334	,	-13793	,	-16.967485	,	0
38,39	,	34242	,	-17338	,	-13803	,	-20.032099	,	0
38,39	,	34258	,	-17346	,	-13805	,	-23.541443	,	0
38,39	,	34290	,	-17363	,	-13807	,	-27.074291	,	0
38,39	,	34305	,	-17356	,	-13811	,	-30.227203	,	0
38,39	,	34321	,	-17374	,	-13814	,	-32.636307	,	0
38,39	,	34354	,	-17385	,	-13815	,	-34.111984	,	0
38,39	,	34370	,	-17390	,	-13819	,	-34.748257	,	0
38,39	,	34386	,	-17404	,	-13834	,	-34.745445	,	0
38,39	,	34418	,	-17412	,	-13823	,	-34.317333	,	0
38,39	,	34434	,	-17436	,	-13841	,	-33.747837	,	0
38,39	,	34450	,	-17448	,	-13841	,	-33.407837	,	0
38,39	,	34481	,	-17449	,	-13840	,	-33.556477	,	0
38,39	,	34497	,	-17444	,	-13840	,	-34.02121	,	0
38,39	,	34530	,	-17403	,	-13826	,	-34.03491	,	0
38,39	,	34546	,	-17371	,	-13812	,	-32.288292	,	0
38,39	,	34562	,	-17352	,	-13804	,	-27.478706	,	1
38,39	,	34594	,	-17339	,	-13806	,	-19.147926	,	5
38,39	,	34610	,	-17335	,	-13801	,	-7.984354	,	13
38,39	,	34626	,	-17336	,	-13803	,	4.492445	,	24
38,39	,	34658	,	-17333	,	-13783	,	16.473696	,	36
38,40	,	34673	,	-17343	,	-13795	,	26.354559	,	47
38,40	,	34706	,	-17344	,	-13801	,	32.995106	,	56
38,40	,	34722	,	-17345	,	-13797	,	35.873474	,	62
38,40	,	34738	,	-17345	,	-13798	,	35.160736	,	64
38,40	,	34769	,	-17360	,	-13796	,	31.501001	,	63
38,40	,	34785	,	-17355	,	-13806	,	25.699436	,	59
38,40	,	34802	,	-17359	,	-13797	,	18.658411	,	51
38,40	,	34833	,	-17355	,	-13797	,	11.35312	,	40
38,40	,	34849	,	-17357	,	-13804	,	4.661067	,	28
38,40	,	34865	,	-17350	,	-13807	,	-0.7723198	,	17
38,40	,	34898	,	-17369	,	-13797	,	-4.6560283	,	8
38,40	,	34914	,	-17372	,	-13802	,	-7.1665487	,	2
38,40	,	34945	,	-17373	,	-13807	,	-8.738479	,	0
38,40	,	34961	,	-17374	,	-13806	,	-9.694843	,	0
38,40	,	34977	,	-17380	,	-13807	,	-10.1947975	,	0
38,40	,	35009	,	-17395	,	-13813	,	-10.433619	,	0
38,40	,	35026	,	-17406	,	-13809	,	-10.764836	,	0
38,40	,	35042	,	-17407	,	-13815	,	-11.534372	,	0
38,40	,	35073	,	-17411	,	-13817	,	-12.801095	,	0
38,40	,	35089	,	-17433	,	-13825	,	-14.422145	,	0
38,40	,	35121	,	-17440	,	-13835	,	-16.35737	,	0
38,40	,	35137	,	-17452	,	-13830	,	-18.643717	,	0
38,40	,	35153	,	-17464	,	-13834	,	-21.22043	,	0
38,40	,	35185	,	-17485	,	-13844	,	-24.004421	,	0
38,40	,	35201	,	-17493	,	-13851	,	-26.980335	,	0
38,40	,	35217	,	-17507	,	-13847	,	-30.084011	,	0
38,40	,	35249	,	-17515	,	-13852	,	-33.116043	,	0
38,40	,	35265	,	-17510	,	-13864	,	-35.73224	,	0
38,40	,	35297	,	-17519	,	-13860	,	-37.465836	,	0
38,40	,	35313	,	-17528	,	-13859	,	-37.976814	,	0
38,40	,	35329	,	-17541	,	-13866	,	-37.31604	,	0
38,40	,	35361	,	-17548	,	-13873	,	-35.853195	,	0
38,40	,	35377	,	-17539	,	-13866	,	-33.932423	,	1
38,40	,	35393	,	-17515	,	-13849	,	-31.48359	,	2
38,40	,	35425	,	-17458	,	-13835	,	-27.768866	,	4
38,40	,	35442	,	-17448	,	-13822	,	-21.653502	,	7
38,40	,	35457	,	-17437	,	-13824	,	-12.583971	,	13
38,40	,	35489	,	-17445	,	-13823	,	-1.2819405	,	22
38,40	,	35505	,	-17432	,	-13827	,	10.634556	,	33
38,40	,	35537	,	-17449	,	-13819	,	21.414139	,	44
38,40	,	35553	,	-17443	,	-13820	,	29.616585	,	54
38,40	,	35569	,	-17449	,	-13828	,	34.381546	,	61
38,40	,	35601	,	-17453	,	-13829	,	35.538486	,	64
38,40	,	35617	,	-17460	,	-13831	,	33.423035	,	63
38,40	,	35633	,	-17462	,	-13823	,	28.681051	,	60
38,41	,	35665	,	-17469	,	-13828	,	22.158588	,	54
38,41	,	35681	,	-17464	,	-13827	,	14.7872505	,	45
38,41	,	35713	,	-17473	,	-13834	,	7.46478	,	34
38,41	,	35729	,	-17470	,	-13831	,	0.90494156	,	23
38,41	,	35745	,	-17475	,	-13829	,	-4.4364605	,	13
38,41	,	35777	,	-17477	,	-13828	,	-8.353262	,	5
38,41	,	35793	,	-17475	,	-13829	,	-10.84689	,	1
38,41	,	35809	,	-17484	,	-13838	,	-12.061014	,	0
38,41	,	35841	,	-17494	,	-13834	,	-12.323843	,	0
38,41	,	35857	,	-17499	,	-13843	,	-12.136211	,	0
38,41	,	35873	,	-17507	,	-13831	,	-11.959563	,	0
38,41	,	35905	,	-17523	,	-13841	,	-12.124926	,	0
38,41	,	35921	,	-17530	,	-13848	,	-12.890903	,	0
38,41	,	35953	,	-17537	,	-13856	,	-14.360466	,	0
38,41	,	35969	,	-17546	,	-13856	,	-16.394804	,	0
38,41	,	35985	,	-17563	,	-13858	,	-18.769135	,	0
38,41	,	36017	,	-17564	,	-13862	,	-21.312103	,	0
38,41	,	36033	,	-17579	,	-13858	,	-23.84054	,	0
38,41	,	36049	,	-17579	,	-13866	,	-26.127502	,	0
38,41	,	36081	,	-17592	,	-13872	,	-27.961224	,	0
38,41	,	36097	,	-17598	,	-13874	,	-29.216522	,	0
38,41	,	36129	,	-17598	,	-13867	,	-29.847815	,	0
38,41	,	36145	,	-17618	,	-13880	,	-29.865715	,	0
38,41	,	36161	,	-17602	,	-13872	,	-29.345943	,	0
38,41	,	36193	,	-17568	,	-13859	,	-28.072096	,	0
38,41	,	36209	,	-17529	,	-13848	,	-25.168522	,	1
38,41	,	36225	,	-17508	,	-13829	,	-19.546165	,	3
38,41	,	36257	,	-17502	,	-13830	,	-10.816295	,	8
38,41	,	36273	,	-17501	,	-13825	,	0.24522018	,	16
38,41	,	36289	,	-17494	,	-13824	,	12.04844	,	27
38,41	,	36321	,	-17482	,	-13829	,	22.970718	,	38
38,41	,	36337	,	-17489	,	-13829	,	31.83277	,	48
38,41	,	36369	,	-17483	,	-13819	,	37.887924	,	56
38,41	,	36385	,	-17496	,	-13828	,	40.747128	,	62
38,41	,	36401	,	-17521	,	-13829	,	40.25074	,	63
38,41	,	36433	,	-17523	,	-13828	,	36.375744	,	61
38,41	,	36449	,	-17518	,	-13830	,	29.566942	,	56
38,41	,	36465	,	-17525	,	-13826	,	20.91914	,	48
38,41	,	36497	,	-17519	,	-13824	,	11.767641	,	37
38,41	,	36513	,	-17503	,	-13825	,	3.37739	,	26
38,41	,	36545	,	-17512	,	-13821	,	-3.1921854	,	16
38,41	,	36561	,	-17500	,	-13825	,	-7.3748965	,	8
38,41	,	36577	,	-17512	,	-13831	,	-9.186267	,	2
38,41	,	36609	,	-17511	,	-13825	,	-9.087752	,	0
38,41	,	36625	,	-17514	,	-13825	,	-7.781255	,	0
38,41	,	36641	,	-17520	,	-13825	,	-5.9588017	,	1
38,42	,	36673	,	-17526	,	-13827	,	-4.2163973	,	2
38,42	,	36689	,	-17530	,	-13832	,	-3.023237	,	3
38,42	,	36705	,	-17545	,	-13831	,	-2.679412	,	4
38,42	,	36737	,	-17547	,	-13838	,	-3.3379703	,	4
38,42	,	36753	,	-17568	,	-13831	,	-5.0275292	,	4
38,42	,	36785	,	-17564	,	-13842	,	-7.6496	,	4
38,42	,	36801	,	-17581	,	-13838	,	-10.933484	,	4
38,42	,	36817	,	-17581	,	-13839	,	-14.484766	,	4
38,42	,	36849	,	-17583	,	-13852	,	-17.873007	,	3
38,42	,	36865	,	-17596	,	-13843	,	-20.697758	,	2
38,42	,	36880	,	-17609	,	-13851	,	-22.79419	,	1
38,42	,	36913	,	-17596	,	-13844	,	-24.197792	,	0
38,42	,	36929	,	-17553	,	-13828	,	-24.585495	,	0
38,42	,	36961	,	-17520	,	-13813	,	-22.939434	,	0
38,42	,	36977	,	-17492	,	-13809	,	-18.100277	,	1
38,42	,	36993	,	-17483	,	-13798	,	-9.668398	,	5
38,42	,	37025	,	-17474	,	-13794	,	1.6141272	,	13
38,42	,	37041	,	-17467	,	-13792	,	14.18096	,	24
38,42	,	37057	,	-17457	,	-13785	,	26.293613	,	36
38,42	,	37088	,	-17452	,	-13794	,	36.544518	,	48
38,42	,	37105	,	-17438	,	-13775	,	44.072556	,	58
38,42	,	37120	,	-17450	,	-13782	,	48.516167	,	65
38,42	,	37153	,	-17452	,	-13783	,	49.75889	,	69
38,42	,	37169	,	-17457	,	-13779	,	47.84666	,	69
38,42	,	37201	,	-17466	,	-13781	,	43.107483	,	65
38,42	,	37217	,	-17458	,	-13778	,	36.184357	,	57
38,42	,	37233	,	-17452	,	-13778	,	28.04453	,	46
38,42	,	37265	,	-17448	,	-13768	,	19.85523	,	34
38,42	,	37280	,	-17442	,	-13775	,	12.655172	,	22
38,42	,	37296	,	-17438	,	-13770	,	7.1264315	,	12
38,42	,	37328	,	-17435	,	-13773	,	3.545042	,	5
38,42	,	37345	,	-17445	,	-13760	,	1.767952	,	1
38,42	,	37376	,	-17445	,	-13768	,	1.2846646	,	0
38,42	,	37392	,	-17452	,	-13772	,	1.4361364	,	0
38,42	,	37408	,	-17460	,	-13776	,	1.6213973	,	0
38,42	,	37440	,	-17467	,	-13778	,	1.3598845	,	0
38,42	,	37456	,	-17463	,	-13776	,	0.4026965	,	0
38,42	,	37472	,	-17481	,	-13777	,	-1.2247936	,	0
38,42	,	37505	,	-17484	,	-13783	,	-3.4233696	,	0
38,42	,	37521	,	-17493	,	-13780	,	-6.102914	,	0
38,42	,	37552	,	-17497	,	-13782	,	-9.080831	,	0
38,42	,	37568	,	-17494	,	-13787	,	-12.042281	,	0
38,42	,	37584	,	-17521	,	-13780	,	-14.688261	,	0
38,42	,	37616	,	-17519	,	-13795	,	-16.977547	,	0
38,42	,	37632	,	-17506	,	-13786	,	-18.900513	,	0
38,42	,	37648	,	-17474	,	-13775	,	-19.949593	,	0
38,43	,	37680	,	-17428	,	-13749	,	-19.025898	,	0
38,43	,	37697	,	-17404	,	-13745	,	-14.903517	,	0
38,43	,	37712	,	-17379	,	-13735	,	-6.9871073	,	4
38,43	,	37744	,	-17377	,	-13732	,	4.199319	,	11
38,43	,	37760	,	-17367	,	-13727	,	17.143326	,	22
38,43	,	37792	,	-17353	,	-13723	,	29.965849	,	34
38,43	,	37808	,	-17346	,	-13718	,	41.09186	,	46
38,43	,	37824	,	-17346	,	-13716	,	49.4659	,	57
38,43	,	37856	,	-17338	,	-13708	,	54.490078	,	65
38,43	,	37872	,	-17333	,	-13708	,	56.063225	,	70
38,43	,	37888	,	-17336	,	-13712	,	54.537266	,	71
38,43	,	37920	,	-17340	,	-13711	,	50.459553	,	67
38,43	,	37936	,	-17326	,	-13708	,	44.477486	,	60
38,43	,	37968	,	-17329	,	-13707	,	37.430733	,	49
38,43	,	37984	,	-17327	,	-13702	,	30.181341	,	37
38,43	,	38000	,	-17318	,	-13698	,	23.397999	,	25
38,43	,	38032	,	-17313	,	-13700	,	17.61024	,	14
38,43	,	38048	,	-17311	,	-13699	,	13.187481	,	6
38,43	,	38064	,	-17326	,	-13702	,	10.1339035	,	1
38,43	,	38096	,	-17322	,	-13688	,	8.058781	,	0
38,43	,	38112	,	-17336	,	-13694	,	6.4284706	,	0
38,43	,	38128	,	-17332	,	-13696	,	4.8077655	,	0
38,43	,	38160	,	-17337	,	-13702	,	2.986013	,	0
38,43	,	38176	,	-17344	,	-13705	,	0.9551213	,	0
38,43	,	38208	,	-17345	,	-13709	,	-1.2306383	,	0
38,43	,	38224	,	-17357	,	-13710	,	-3.5115843	,	0
38,43	,	38240	,	-17367	,	-13710	,	-5.880139	,	0
38,43	,	38272	,	-17377	,	-13718	,	-8.412862	,	0
38,43	,	38288	,	-17379	,	-13725	,	-11.134277	,	0
38,43	,	38304	,	-17383	,	-13730	,	-13.885156	,	0
38,43	,	38336	,	-17395	,	-13719	,	-16.409885	,	0
38,43	,	38352	,	-17384	,	-13721	,	-18.475574	,	0
38,43	,	38384	,	-17343	,	-13705	,	-19.594585	,	0
38,43	,	38401	,	-17301	,	-13692	,	-18.688625	,	0
38,43	,	38416	,	-17279	,	-13683	,	-14.512158	,	0
38,43	,	38448	,	-17262	,	-13672	,	-6.5756464	,	4
38,43	,	38464	,	-17250	,	-13674	,	4.4528103	,	11
38,43	,	38480	,	-17238	,	-13668	,	17.09809	,	22
38,43	,	38512	,	-17225	,	-13665	,	29.678017	,	34
38,43	,	38528	,	-17215	,	-13655	,	40.761772	,	46
38,43	,	38544	,	-17220	,	-13667	,	49.30292	,	57
38,43	,	38576	,	-17207	,	-13644	,	54.62574	,	65
38,43	,	38592	,	-17208	,	-13651	,	56.53356	,	70
38,43	,	38624	,	-17217	,	-13655	,	55.242466	,	71
38,43	,	38640	,	-17215	,	-13660	,	51.13615	,	67
38,43	,	38656	,	-17208	,	-13655	,	44.819145	,	60
38,44	,	38688	,	-17202	,	-13648	,	37.231567	,	49
38,44	,	38704	,	-17206	,	-13646	,	29.397469	,	37
38,44	,	38720	,	-17199	,	-13653	,	22.100721	,	25
38,44	,	38752	,	-17198	,	-13646	,	15.845963	,	14
38,44	,	38768	,	-17204	,	-13647	,	10.885526	,	6
38,44	,	38800	,	-17197	,	-13654	,	7.2074394	,	1
38,44	,	38816	,	-17207	,	-13647	,	4.633286	,	0
38,44	,	38832	,	-17202	,	-13657	,	2.8973012	,	0
38,44	,	38864	,	-17220	,	-13663	,	1.6561577	,	0
38,44	,	38880	,	-17234	,	-13660	,	0.44896817	,	0
38,44	,	38896	,	-17220	,	-13662	,	-1.142546	,	0
38,44	,	38928	,	-17234	,	-13669	,	-3.1521318	,	0
38,44	,	38944	,	-17246	,	-13671	,	-5.3919916	,	0
38,44	,	38976	,	-17260	,	-13673	,	-7.8520703	,	0
38,44	,	38992	,	-17274	,	-13678	,	-10.676292	,	0
38,44	,	39008	,	-17272	,	-13683	,	-13.901918	,	0
38,44	,	39040	,	-17283	,	-13688	,	-17.289888	,	0
38,44	,	39056	,	-17283	,	-13693	,	-20.427155	,	0
38,44	,	39072	,	-17292	,	-13695	,	-22.945848	,	0
38,44	,	39104	,	-17278	,	-13693	,	-24.550652	,	0
38,44	,	39120	,	-17231	,	-13675	,	-24.704662	,	0
38,44	,	39136	,	-17204	,	-13658	,	-22.405933	,	0
38,44	,	39168	,	-17181	,	-13655	,	-16.731789	,	2
38,44	,	39184	,	-17154	,	-13656	,	-7.543109	,	7
38,44	,	39216	,	-17149	,	-13648	,	4.4142666	,	16
38,44	,	39232	,	-17146	,	-13645	,	17.665861	,	27
38,44	,	39248	,	-17132	,	-13645	,	30.389093	,	40
38,44	,	39280	,	-17122	,	-13646	,	41.074577	,	52
38,44	,	39296	,	-17118	,	-13647	,	48.856724	,	62
38,44	,	39311	,	-17115	,	-13632	,	53.37634	,	69
38,44	,	39344	,	-17119	,	-13645	,	54.594875	,	73
38,44	,	39360	,	-17126	,	-13643	,	52.679928	,	72
38,44	,	39392	,	-17124	,	-13639	,	47.9897	,	67
38,44	,	39408	,	-17117	,	-13636	,	41.19848	,	58
38,44	,	39423	,	-17121	,	-13635	,	33.2724	,	47
38,44	,	39456	,	-17110	,	-13641	,	25.208097	,	34
38,44	,	39472	,	-17111	,	-13637	,	17.856142	,	22
38,44	,	39488	,	-17113	,	-13643	,	11.79407	,	12
38,44	,	39520	,	-17114	,	-13639	,	7.1999607	,	5
38,44	,	39536	,	-17124	,	-13653	,	3.9047565	,	1
38,44	,	39552	,	-17122	,	-13635	,	1.5583444	,	0
38,44	,	39584	,	-17131	,	-13651	,	-0.19974232	,	0
38,44	,	39600	,	-17142	,	-13656	,	-1.7020187	,	0
38,44	,	39632	,	-17152	,	-13658	,	-3.3077126	,	0
38,44	,	39648	,	-17156	,	-13665	,	-5.296197	,	0
38,45	,	39663	,	-17177	,	-13671	,	-7.778461	,	0
38,45	,	39695	,	-17175	,	-13674	,	-10.751575	,	0
38,45	,	39712	,	-17198	,	-13680	,	-14.103741	,	0
38,45	,	39728	,	-17201	,	-13681	,	-17.66341	,	0
38,45	,	39760	,	-17202	,	-13689	,	-21.191193	,	0
38,45	,	39775	,	-17223	,	-13701	,	-24.36187	,	0
38,45	,	39807	,	-17222	,	-13691	,	-26.956802	,	0
38,45	,	39824	,	-17249	,	-13706	,	-28.964947	,	0
38,45	,	39840	,	-17263	,	-13717	,	-30.592163	,	0
38,45	,	39872	,	-17271	,	-13720	,	-32.146065	,	0
38,45	,	39888	,	-17254	,	-13722	,	-33.610165	,	0
38,45	,	39904	,	-17237	,	-13706	,	-34.359886	,	0
38,45	,	39935	,	-17200	,	-13690	,	-33.32939	,	0
38,45	,	39952	,	-17166	,	-13687	,	-29.381596	,	1
38,45	,	39968	,	-17142	,	-13683	,	-21.758017	,	4
38,45	,	40000	,	-17131	,	-13677	,	-10.568531	,	11
38,45	,	40016	,	-17126	,	-13683	,	3.0345268	,	22
38,45	,	40047	,	-17120	,	-13661	,	17.216377	,	35
38,45	,	40063	,	-17113	,	-13667	,	30.10708	,	49
38,45	,	40079	,	-17099	,	-13662	,	40.354168	,	61
38,45	,	40111	,	-17090	,	-13662	,	47.34896	,	71
38,45	,	40127	,	-17099	,	-13660	,	51.02578	,	77
38,45	,	40144	,	-17106	,	-13662	,	51.459045	,	79
38,45	,	40176	,	-17111	,	-13663	,	48.76993	,	76
38,45	,	40192	,	-17104	,	-13669	,	43.37453	,	69
38,45	,	40223	,	-17087	,	-13670	,	36.193893	,	58
38,45	,	40239	,	-17103	,	-13664	,	28.438906	,	45
38,45	,	40256	,	-17111	,	-13672	,	20.989021	,	31
38,45	,	40287	,	-17097	,	-13661	,	14.227802	,	19
38,45	,	40303	,	-17096	,	-13668	,	8.476501	,	9
38,45	,	40319	,	-17121	,	-13675	,	3.9639225	,	3
38,45	,	40351	,	-17122	,	-13679	,	0.45537472	,	0
38,45	,	40368	,	-17136	,	-13679	,	-2.5549493	,	0
38,45	,	40399	,	-17138	,	-13682	,	-5.4373064	,	0
38,45	,	40415	,	-17142	,	-13686	,	-8.302218	,	0
38,45	,	40431	,	-17150	,	-13689	,	-11.053218	,	0
38,45	,	40463	,	-17164	,	-13700	,	-13.589818	,	0
38,45	,	40479	,	-17166	,	-13699	,	-15.921304	,	0
38,45	,	40496	,	-17192	,	-13704	,	-18.12509	,	0
38,45	,	40527	,	-17194	,	-13713	,	-20.348198	,	0
38,45	,	40543	,	-17205	,	-13717	,	-22.676216	,	0
38,45	,	40559	,	-17232	,	-13728	,	-25.090755	,	0
38,45	,	40591	,	-17239	,	-13731	,	-27.65636	,	0
38,45	,	40607	,	-17243	,	-13744	,	-30.378447	,	0
38,45	,	40639	,	-17253	,	-13746	,	-32.980705	,	0
38,45	,	40655	,	-17271	,	-13753	,	-35.142056	,	0
38,46	,	40671	,	-17277	,	-13749	,	-36.75185	,	0
38,46	,	40703	,	-17289	,	-13757	,	-37.820396	,	0
38,46	,	40719	,	-17301	,	-13765	,	-38.38114	,	0
38,46	,	40735	,	-17306	,	-13767	,	-38.500458	,	0
38,46	,	40767	,	-17302	,	-13773	,	-38.15533	,	0
38,46	,	40783	,	-17276	,	-13743	,	-37.006588	,	0
38,46	,	40815	,	-17220	,	-13738	,	-34.176254	,	1
38,46	,	40831	,	-17204	,	-13733	,	-28.443161	,	3
38,46	,	40847	,	-17206	,	-13726	,	-19.241966	,	8
38,46	,	40879	,	-17199	,	-13732	,	-7.404917	,	17
38,46	,	40895	,	-17197	,	-13732	,	5.324053	,	28
38,46	,	40911	,	-17192	,	-13733	,	17.168434	,	40
38,46	,	40943	,	-17187	,	-13726	,	26.795603	,	51
38,46	,	40959	,	-17192	,	-13732	,	33.438198	,	60
38,46	,	40975	,	-17193	,	-13725	,	36.797966	,	66
38,46	,	41007	,	-17199	,	-13733	,	36.941433	,	68
38,46	,	41023	,	-17198	,	-13718	,	34.268578	,	66
38,46	,	41055	,	-17206	,	-13730	,	29.432371	,	61
38,46	,	41071	,	-17201	,	-13731	,	23.216917	,	52
38,46	,	41087	,	-17201	,	-13729	,	16.478945	,	41
38,46	,	41119	,	-17203	,	-13734	,	10.036259	,	29
38,46	,	41135	,	-17210	,	-13733	,	4.4444485	,	18
38,46	,	41151	,	-17210	,	-13738	,	-0.08194208	,	9
38,46	,	41183	,	-17216	,	-13743	,	-3.548427	,	3
38,46	,	41199	,	-17224	,	-13746	,	-6.098257	,	0
38,46	,	41231	,	-17226	,	-13746	,	-7.9715037	,	0
38,46	,	41247	,	-17231	,	-13749	,	-9.38393	,	0
38,46	,	41263	,	-17233	,	-13746	,	-10.451745	,	0
38,46	,	41295	,	-17254	,	-13751	,	-11.308592	,	0
38,46	,	41311	,	-17272	,	-13759	,	-12.299311	,	0
38,46	,	41327	,	-17283	,	-13769	,	-13.895317	,	0
38,46	,	41359	,	-17280	,	-13778	,	-16.281258	,	0
38,46	,	41375	,	-17301	,	-13781	,	-19.206488	,	0
38,46	,	41391	,	-17303	,	-13779	,	-22.297289	,	0
38,46	,	41423	,	-17307	,	-13790	,	-25.211664	,	0
38,46	,	41439	,	-17325	,	-13791	,	-27.630304	,	0
38,46	,	41471	,	-17333	,	-13796	,	-29.434101	,	0
38,46	,	41487	,	-17343	,	-13802	,	-30.714226	,	0
38,46	,	41503	,	-17354	,	-13803	,	-31.588095	,	0
38,46	,	41535	,	-17361	,	-13805	,	-32.14099	,	0
38,46	,	41551	,	-17380	,	-13818	,	-32.46908	,	0
38,46	,	41567	,	-17395	,	-13824	,	-32.764744	,	0
38,46	,	41599	,	-17399	,	-13827	,	-33.240982	,	0
38,46	,	41615	,	-17410	,	-13825	,	-33.913906	,	0
38,46	,	41647	,	-17398	,	-13822	,	-34.51965	,	0
38,47	,	41663	,	-17376	,	-13811	,	-34.445934	,	0
38,47	,	41679	,	-17355	,	-13806	,	-32.768055	,	0
38,47	,	41711	,	-17350	,	-13801	,	-28.714014	,	1
38,47	,	41727	,	-17332	,	-13800	,	-22.15062	,	5
38,47	,	41743	,	-17337	,	-13811	,	-13.626496	,	11
38,47	,	41775	,	-17339	,	-13789	,	-4.219202	,	19
38,47	,	41791	,	-17328	,	-13801	,	4.788417	,	28
38,47	,	41807	,	-17331	,	-13802	,	12.391035	,	37
38,47	,	41839	,	-17336	,	-13795	,	17.976738	,	44
38,47	,	41855	,	-17338	,	-13795	,	21.191055	,	49
38,47	,	41887	,	-17346	,	-13799	,	21.94857	,	52
38,47	,	41903	,	-17352	,	-13801	,	20.42741	,	51
38,47	,	41919	,	-17351	,	-13796	,	17.031715	,	47
38,47	,	41951	,	-17349	,	-13797	,	12.412675	,	41
38,47	,	41967	,	-17344	,	-13802	,	7.3952103	,	33
38,47	,	41983	,	-17352	,	-13813	,	2.742392	,	24
38,47	,	42015	,	-17352	,	-13791	,	-1.0819349	,	15
38,47	,	42031	,	-17364	,	-13805	,	-3.974322	,	8
38,47	,	42063	,	-17369	,	-13804	,	-6.111449	,	3
38,47	,	42079	,	-17371	,	-13804	,	-7.769041	,	0
38,47	,	42095	,	-17375	,	-13810	,	-9.119045	,	0
38,47	,	42127	,	-17382	,	-13812	,	-10.227211	,	0
38,47	,	42142	,	-17397	,	-13816	,	-11.216598	,	0
38,47	,	42159	,	-17402	,	-13819	,	-12.31444	,	0
38,47	,	42190	,	-17410	,	-13825	,	-13.68999	,	0
38,47	,	42206	,	-17416	,	-13828	,	-15.334797	,	0
38,47	,	42238	,	-17431	,	-13834	,	-17.157879	,	0
38,47	,	42255	,	-17433	,	-13830	,	-19.081726	,	0
38,47	,	42270	,	-17452	,	-13841	,	-21.031576	,	0
38,47	,	42303	,	-17471	,	-13849	,	-23.027637	,	0
38,47	,	42319	,	-17464	,	-13850	,	-25.146795	,	0
38,47	,	42335	,	-17469	,	-13854	,	-27.198746	,	0
38,47	,	42367	,	-17485	,	-13855	,	-28.800308	,	0
38,47	,	42383	,	-17491	,	-13857	,	-29.791538	,	0
38,47	,	42399	,	-17498	,	-13862	,	-30.241247	,	0
38,47	,	42431	,	-17504	,	-13866	,	-30.229052	,	0
38,47	,	42447	,	-17522	,	-13864	,	-29.866642	,	0
38,47	,	42478	,	-17525	,	-13876	,	-29.368694	,	0
38,47	,	42495	,	-17542	,	-13872	,	-28.95559	,	0
38,47	,	42511	,	-17549	,	-13885	,	-28.778847	,	0
38,47	,	42542	,	-17508	,	-13866	,	-28.666645	,	0
38,47	,	42558	,	-17481	,	-13862	,	-27.701351	,	0
38,47	,	42574	,	-17476	,	-13852	,	-24.642746	,	0
38,47	,	42606	,	-17466	,	-13851	,	-18.958477	,	3
38,47	,	42622	,	-17470	,	-13849	,	-11.140588	,	8
38,47	,	42654	,	-17469	,	-13853	,	-2.3445673	,	15
38,48	,	42670	,	-17465	,	-13844	,	6.111062	,	23
38,48	,	42686	,	-17464	,	-13843	,	13.190961	,	31
38,48	,	42718	,	-17463	,	-13852	,	18.29835	,	38
38,48	,	42734	,	-17468	,	-13844	,	21.19572	,	43
38,48	,	42751	,	-17477	,	-13847	,	21.868896	,	45
38,48	,	42782	,	-17485	,	-13850	,	20.424057	,	45
38,48	,	42798	,	-17487	,	-13851	,	17.123295	,	42
38,48	,	42815	,	-17494	,	-13844	,	12.443913	,	37
38,48	,	42847	,	-17482	,	-13846	,	7.0598793	,	30
38,48	,	42862	,	-17476	,	-13856	,	1.8235836	,	22
38,48	,	42894	,	-17493	,	-13855	,	-2.498742	,	14
38,48	,	42910	,	-17488	,	-13850	,	-5.6146193	,	7
38,48	,	42927	,	-17489	,	-13856	,	-7.590779	,	2
38,48	,	42958	,	-17490	,	-13850	,	-8.546456	,	0
38,48	,	42974	,	-17492	,	-13861	,	-8.646664	,	0
38,48	,	42990	,	-17495	,	-13849	,	-8.142921	,	0
38,48	,	43022	,	-17510	,	-13859	,	-7.386291	,	0
38,48	,	43038	,	-17516	,	-13862	,	-6.8347974	,	0
38,48	,	43070	,	-17526	,	-13862	,	-6.901625	,	0
38,48	,	43086	,	-17530	,	-13863	,	-7.7715087	,	0
38,48	,	43102	,	-17535	,	-13871	,	-9.362694	,	0
38,48	,	43134	,	-17536	,	-13874	,	-11.384449	,	0
38,48	,	43150	,	-17555	,	-13874	,	-13.51801	,	0
38,48	,	43166	,	-17554	,	-13873	,	-15.603079	,	0
38,48	,	43198	,	-17570	,	-13871	,	-17.58959	,	0
38,48	,	43214	,	-17578	,	-13888	,	-19.463572	,	0
38,48	,	43230	,	-17583	,	-13871	,	-21.233845	,	0
38,48	,	43262	,	-17600	,	-13888	,	-22.889957	,	0
38,48	,	43278	,	-17599	,	-13879	,	-24.41286	,	0
38,48	,	43310	,	-17616	,	-13893	,	-25.764763	,	0
38,48	,	43326	,	-17620	,	-13888	,	-26.907509	,	0
38,48	,	43342	,	-17623	,	-13895	,	-27.797895	,	0
38,48	,	43374	,	-17596	,	-13882	,	-28.159634	,	0
38,48	,	43390	,	-17570	,	-13880	,	-27.262253	,	0
38,48	,	43406	,	-17565	,	-13868	,	-24.228668	,	0
38,48	,	43438	,	-17536	,	-13864	,	-18.64606	,	3
38,48	,	43454	,	-17542	,	-13870	,	-10.768481	,	8
38,48	,	43486	,	-17532	,	-13855	,	-1.4518003	,	15
38,48	,	43502	,	-17539	,	-13854	,	8.027815	,	24
38,48	,	43518	,	-17542	,	-13859	,	16.334248	,	33
38,48	,	43550	,	-17543	,	-13860	,	22.399057	,	41
38,48	,	43566	,	-17547	,	-13860	,	25.656368	,	47
38,48	,	43582	,	-17551	,	-13860	,	26.075216	,	50
38,48	,	43614	,	-17559	,	-13862	,	23.988575	,	50
38,48	,	43630	,	-17560	,	-13861	,	19.930553	,	47
38,49	,	43662	,	-17559	,	-13861	,	14.5940275	,	42
38,49	,	43678	,	-17551	,	-13864	,	8.832048	,	35
38,49	,	43694	,	-17557	,	-13861	,	3.5016212	,	26
38,49	,	43726	,	-17547	,	-13858	,	-0.77532816	,	17
38,49	,	43742	,	-17553	,	-13857	,	-3.682365	,	9
38,49	,	43758	,	-17553	,	-13852	,	-5.198394	,	3
38,49	,	43790	,	-17567	,	-13857	,	-5.6258855	,	0
38,49	,	43806	,	-17567	,	-13865	,	-5.4961963	,	0
38,49	,	43822	,	-17569	,	-13857	,	-5.2873945	,	0
38,49	,	43854	,	-17572	,	-13862	,	-5.2317505	,	0
38,49	,	43870	,	-17587	,	-13861	,	-5.446151	,	0
38,49	,	43902	,	-17591	,	-13870	,	-6.1000233	,	0
38,49	,	43918	,	-17592	,	-13869	,	-7.2924705	,	0
38,49	,	43934	,	-17599	,	-13869	,	-8.899439	,	0
38,49	,	43966	,	-17611	,	-13866	,	-10.717671	,	0
38,49	,	43982	,	-17620	,	-13869	,	-12.65912	,	0
38,49	,	43998	,	-17637	,	-13881	,	-14.763373	,	0
38,49	,	44030	,	-17640	,	-13887	,	-17.101673	,	0
38,49	,	44046	,	-17647	,	-13886	,	-19.60975	,	0
38,49	,	44078	,	-17650	,	-13889	,	-22.026907	,	0
38,49	,	44094	,	-17658	,	-13896	,	-24.036186	,	0
38,49	,	44110	,	-17652	,	-13891	,	-25.366707	,	0
38,49	,	44142	,	-17648	,	-13886	,	-25.74847	,	0
38,49	,	44158	,	-17617	,	-13868	,	-24.795792	,	0
38,49	,	44174	,	-17595	,	-13863	,	-21.936523	,	0
38,49	,	44206	,	-17573	,	-13864	,	-16.634651	,	2
38,49	,	44222	,	-17569	,	-13840	,	-8.855888	,	7
38,49	,	44238	,	-17546	,	-13844	,	0.7652941	,	14
38,49	,	44270	,	-17548	,	-13840	,	11.190963	,	23
38,49	,	44286	,	-17541	,	-13842	,	21.22661	,	33
38,49	,	44318	,	-17542	,	-13840	,	29.706272	,	43
38,49	,	44334	,	-17539	,	-13834	,	35.75539	,	51
38,49	,	44350	,	-17546	,	-13839	,	38.914623	,	57
38,49	,	44382	,	-17553	,	-13834	,	39.068672	,	60
38,49	,	44398	,	-17564	,	-13838	,	36.350815	,	58
38,49	,	44413	,	-17555	,	-13832	,	31.19166	,	53
38,49	,	44446	,	-17551	,	-13845	,	24.447742	,	46
38,49	,	44462	,	-17553	,	-13820	,	17.228416	,	37
38,49	,	44494	,	-17551	,	-13830	,	10.485202	,	27
38,49	,	44510	,	-17538	,	-13822	,	4.891841	,	17
38,49	,	44526	,	-17545	,	-13825	,	0.9021902	,	9
38,49	,	44558	,	-17542	,	-13836	,	-1.3750916	,	3
38,49	,	44574	,	-17550	,	-13826	,	-2.225451	,	0
38,49	,	44590	,	-17550	,	-13831	,	-2.1554806	,	0
38,49	,	44622	,	-17552	,	-13830	,	-1.6805203	,	0
38,49	,	44639	,	-17568	,	-13826	,	-1.2433311	,	0
38,49	,	44654	,	-17568	,	-13837	,	-1.2467649	,	0
38,50	,	44686	,	-17565	,	-13836	,	-1.8998467	,	0
38,50	,	44702	,	-17575	,	-13828	,	-3.092579	,	0
38,50	,	44733	,	-17584	,	-13840	,	-4.6451807	,	0
38,50	,	44750	,	-17593	,	-13840	,	-6.5163136	,	0
38,50	,	44766	,	-17595	,	-13838	,	-8.686915	,	0
38,50	,	44798	,	-17608	,	-13841	,	-11.045412	,	0
38,50	,	44814	,	-17624	,	-13846	,	-13.511772	,	0
38,50	,	44830	,	-17620	,	-13848	,	-16.072958	,	0
38,50	,	44861	,	-17617	,	-13849	,	-18.517849	,	0
38,50	,	44877	,	-17613	,	-13838	,	-20.351532	,	0
38,50	,	44910	,	-17578	,	-13828	,	-20.918697	,	0
38,50	,	44926	,	-17546	,	-13815	,	-19.36974	,	0
38,50	,	44942	,	-17518	,	-13806	,	-14.84067	,	1
38,50	,	44974	,	-17505	,	-13797	,	-7.0154057	,	5
38,50	,	44989	,	-17483	,	-13798	,	3.55904	,	12
38,50	,	45005	,	-17483	,	-13794	,	15.652767	,	22
38,50	,	45038	,	-17478	,	-13788	,	27.669977	,	34
38,50	,	45054	,	-17464	,	-13786	,	38.06799	,	46
38,50	,	45070	,	-17480	,	-13784	,	45.723923	,	56
38,50	,	45102	,	-17471	,	-13783	,	49.948025	,	63
38,50	,	45118	,	-17478	,	-13783	,	50.51259	,	67
38,50	,	45150	,	-17483	,	-13779	,	47.690475	,	66
38,50	,	45165	,	-17471	,	-13775	,	42.15119	,	62
38,50	,	45182	,	-17469	,	-13781	,	34.926987	,	55
38,50	,	45214	,	-17472	,	-13772	,	27.16961	,	45
38,50	,	45230	,	-17454	,	-13771	,	19.843578	,	33
38,50	,	45245	,	-17453	,	-13771	,	13.72974	,	21
38,50	,	45277	,	-17459	,	-13762	,	9.297655	,	11
38,50	,	45293	,	-17454	,	-13766	,	6.5045843	,	4
38,50	,	45326	,	-17454	,	-13766	,	5.0028014	,	0
38,50	,	45342	,	-17464	,	-13765	,	4.3673425	,	0
38,50	,	45357	,	-17458	,	-13762	,	4.1293325	,	0
38,50	,	45389	,	-17471	,	-13771	,	3.8774219	,	0
38,50	,	45405	,	-17465	,	-13769	,	3.3404531	,	0
38,50	,	45421	,	-17476	,	-13780	,	2.401116	,	0
38,50	,	45453	,	-17487	,	-13757	,	1.0071753	,	0
38,50	,	45470	,	-17499	,	-13780	,	-0.9596406	,	0
38,50	,	45486	,	-17499	,	-13780	,	-3.5770473	,	0
38,50	,	45518	,	-17508	,	-13778	,	-6.698441	,	0
38,50	,	45533	,	-17519	,	-13782	,	-10.041336	,	0
38,50	,	45565	,	-17527	,	-13783	,	-13.3873005	,	0
38,50	,	45581	,	-17520	,	-13784	,	-16.52024	,	0
38,50	,	45597	,	-17518	,	-13779	,	-19.038994	,	0
38,50	,	45629	,	-17493	,	-13772	,	-20.350357	,	0
38,50	,	45645	,	-17454	,	-13757	,	-19.670576	,	0
38,51	,	45661	,	-17423	,	-13752	,	-16.087059	,	0
38,51	,	45693	,	-17402	,	-13727	,	-9.025464	,	3
38,51	,	45710	,	-17382	,	-13726	,	1.2609844	,	10
38,51	,	45741	,	-17364	,	-13721	,	13.739296	,	20
38,51	,	45757	,	-17364	,	-13722	,	26.92247	,	32
38,51	,	45773	,	-17351	,	-13714	,	39.166767	,	45
38,51	,	45805	,	-17351	,	-13718	,	49.038723	,	57
38,51	,	45821	,	-17342	,	-13711	,	55.613705	,	66
38,51	,	45853	,	-17352	,	-13713	,	58.501976	,	72
38,51	,	45869	,	-17354	,	-13711	,	57.69841	,	74
38,51	,	45885	,	-17343	,	-13712	,	53.582108	,	71
38,51	,	45917	,	-17346	,	-13718	,	47.00679	,	64
38,51	,	45933	,	-17337	,	-13699	,	39.089127	,	54
38,51	,	45949	,	-17340	,	-13704	,	30.89011	,	42
38,51	,	45981	,	-17336	,	-13706	,	23.235273	,	29
38,51	,	45997	,	-17334	,	-13700	,	16.651833	,	17
38,51	,	46013	,	-17329	,	-13702	,	11.434093	,	8
38,51	,	46045	,	-17332	,	-13700	,	7.676653	,	2
38,51	,	46061	,	-17334	,	-13708	,	5.2318473	,	0
38,51	,	46093	,	-17342	,	-13711	,	3.7293916	,	0
38,51	,	46109	,	-17351	,	-13704	,	2.6634638	,	0
38,51	,	46125	,	-17352	,	-13709	,	1.5493302	,	0
38,51	,	46157	,	-17354	,	-13702	,	0.13451421	,	0
38,51	,	46173	,	-17366	,	-13716	,	-1.5965731	,	0
38,51	,	46189	,	-17380	,	-13725	,	-3.6668584	,	0
38,51	,	46221	,	-17388	,	-13721	,	-6.1950836	,	0
38,51	,	46237	,	-17383	,	-13733	,	-9.153461	,	0
38,51	,	46269	,	-17408	,	-13732	,	-12.282848	,	0
38,51	,	46285	,	-17404	,	-13737	,	-15.354555	,	0
38,51	,	46301	,	-17418	,	-13743	,	-18.231255	,	0
38,51	,	46333	,	-17405	,	-13742	,	-20.68386	,	0
38,51	,	46349	,	-17372	,	-13722	,	-22.157717	,	0
38,51	,	46365	,	-17344	,	-13718	,	-21.65984	,	0
38,51	,	46397	,	-17322	,	-13700	,	-18.19754	,	0
38,51	,	46413	,	-17298	,	-13695	,	-11.3888035	,	3
38,51	,	46445	,	-17274	,	-13691	,	-1.5867882	,	9
38,51	,	46461	,	-17262	,	-13679	,	10.302854	,	18
38,51	,	46477	,	-17259	,	-13675	,	22.946709	,	29
38,51	,	46509	,	-17252	,	-13675	,	34.77026	,	41
38,51	,	46525	,	-17250	,	-13672	,	44.347984	,	52
38,51	,	46541	,	-17241	,	-13675	,	50.75705	,	61
38,51	,	46573	,	-17248	,	-13672	,	53.658447	,	67
38,51	,	46589	,	-17250	,	-13678	,	53.12395	,	69
38,51	,	46605	,	-17245	,	-13671	,	49.531223	,	66
38,51	,	46637	,	-17244	,	-13680	,	43.615448	,	60
38,51	,	46653	,	-17249	,	-13662	,	36.311417	,	51
38,52	,	46685	,	-17242	,	-13674	,	28.489616	,	40
38,52	,	46701	,	-17243	,	-13668	,	20.90993	,	28
38,52	,	46717	,	-17239	,	-13672	,	14.201006	,	17
38,52	,	46749	,	-17237	,	-13673	,	8.774569	,	8
38,52	,	46765	,	-17246	,	-13671	,	4.7647305	,	2
38,52	,	46781	,	-17246	,	-13667	,	2.0075989	,	0
38,52	,	46813	,	-17253	,	-13681	,	0.15745592	,	0
38,52	,	46829	,	-17260	,	-13678	,	-1.1794319	,	0
38,52	,	46861	,	-17269	,	-13684	,	-2.4008365	,	0
38,52	,	46877	,	-17267	,	-13694	,	-3.7913313	,	0
38,52	,	46893	,	-17279	,	-13680	,	-5.420373	,	0
38,52	,	46925	,	-17299	,	-13697	,	-7.3210983	,	0
38,52	,	46941	,	-17301	,	-13700	,	-9.639939	,	0
38,52	,	46957	,	-17314	,	-13703	,	-12.43501	,	0
38,52	,	46989	,	-17319	,	-13707	,	-15.546597	,	0
38,52	,	47005	,	-17328	,	-13716	,	-18.705328	,	0
38,52	,	47021	,	-17339	,	-13716	,	-21.652027	,	0
38,52	,	47053	,	-17338	,	-13720	,	-24.181557	,	0
38,52	,	47069	,	-17341	,	-13719	,	-26.067204	,	0
38,52	,	47100	,	-17304	,	-13714	,	-26.878872	,	0
38,52	,	47116	,	-17279	,	-13705	,	-25.814236	,	0
38,52	,	47133	,	-17257	,	-13689	,	-21.974834	,	1
38,52	,	47165	,	-17215	,	-13677	,	-14.873325	,	4
38,52	,	47181	,	-17222	,	-13676	,	-4.686776	,	11
38,52	,	47197	,	-17204	,	-13667	,	7.5640793	,	21
38,52	,	47229	,	-17204	,	-13669	,	20.23521	,	33
38,52	,	47245	,	-17186	,	-13668	,	31.726982	,	45
38,52	,	47276	,	-17184	,	-13661	,	40.918114	,	56
38,52	,	47293	,	-17185	,	-13666	,	47.16683	,	65
38,52	,	47309	,	-17190	,	-13661	,	50.131542	,	71
38,52	,	47341	,	-17192	,	-13664	,	49.740017	,	72
38,52	,	47357	,	-17194	,	-13667	,	46.27729	,	69
38,52	,	47373	,	-17191	,	-13665	,	40.39476	,	62
38,52	,	47405	,	-17183	,	-13671	,	33.04756	,	52
38,52	,	47421	,	-17178	,	-13662	,	25.345217	,	40
38,52	,	47436	,	-17187	,	-13666	,	18.235199	,	28
38,52	,	47469	,	-17200	,	-13671	,	12.148056	,	17
38,52	,	47485	,	-17188	,	-13673	,	7.0564995	,	8
38,52	,	47516	,	-17193	,	-13675	,	2.9088278	,	2
38,52	,	47533	,	-17187	,	-13679	,	-0.2222476	,	0
38,52	,	47548	,	-17196	,	-13676	,	-2.3237858	,	0
38,52	,	47581	,	-17207	,	-13683	,	-3.6054907	,	0
38,52	,	47597	,	-17223	,	-13683	,	-4.545995	,	0
38,52	,	47612	,	-17224	,	-13693	,	-5.690789	,	0
38,52	,	47645	,	-17228	,	-13692	,	-7.3058095	,	0
38,53	,	47661	,	-17248	,	-13703	,	-9.365587	,	0
38,53	,	47692	,	-17262	,	-13707	,	-11.871281	,	0
38,53	,	47708	,	-17276	,	-13713	,	-14.92436	,	0
38,53	,	47724	,	-17283	,	-13718	,	-18.50579	,	0
38,53	,	47756	,	-17286	,	-13722	,	-22.33235	,	0
38,53	,	47772	,	-17293	,	-13727	,	-25.919827	,	0
38,53	,	47788	,	-17306	,	-13728	,	-28.833822	,	0
38,53	,	47821	,	-17313	,	-13736	,	-30.890743	,	0
38,53	,	47836	,	-17314	,	-13737	,	-32.071083	,	0
38,53	,	47868	,	-17327	,	-13752	,	-32.388622	,	0
38,53	,	47884	,	-17313	,	-13730	,	-31.858921	,	0
38,53	,	47900	,	-17241	,	-13710	,	-30.049269	,	0
38,53	,	47932	,	-17227	,	-13703	,	-25.760334	,	1
38,53	,	47948	,	-17208	,	-13705	,	-17.986023	,	5
38,53	,	47964	,	-17206	,	-13694	,	-6.995672	,	12
38,53	,	47996	,	-17188	,	-13694	,	5.844224	,	22
38,53	,	48012	,	-17186	,	-13682	,	18.829033	,	34
38,53	,	48028	,	-17179	,	-13687	,	30.411434	,	46
38,53	,	48060	,	-17178	,	-13685	,	39.412304	,	57
38,53	,	48077	,	-17164	,	-13682	,	45.187912	,	66
38,53	,	48108	,	-17168	,	-13692	,	47.688324	,	71
38,53	,	48124	,	-17179	,	-13680	,	47.179523	,	72
38,53	,	48140	,	-17175	,	-13690	,	43.980965	,	68
38,53	,	48172	,	-17179	,	-13684	,	38.580994	,	61
38,53	,	48188	,	-17179	,	-13685	,	31.719088	,	51
38,53	,	48204	,	-17179	,	-13688	,	24.22295	,	39
38,53	,	48236	,	-17177	,	-13687	,	16.864931	,	27
38,53	,	48252	,	-17183	,	-13692	,	10.251739	,	16
38,53	,	48284	,	-17176	,	-13692	,	4.7609797	,	7
38,53	,	48300	,	-17178	,	-13694	,	0.59487486	,	2
38,53	,	48316	,	-17183	,	-13699	,	-2.218267	,	0
38,53	,	48348	,	-17195	,	-13705	,	-3.9213932	,	0
38,53	,	48364	,	-17196	,	-13690	,	-4.973283	,	0
38,53	,	48380	,	-17220	,	-13706	,	-5.886263	,	0
38,53	,	48412	,	-17224	,	-13706	,	-7.157694	,	0
38,53	,	48428	,	-17234	,	-13714	,	-9.112482	,	0
38,53	,	48444	,	-17254	,	-13716	,	-11.80176	,	0
38,53	,	48476	,	-17252	,	-13726	,	-15.104822	,	0
38,53	,	48492	,	-17269	,	-13728	,	-18.743725	,	0
38,53	,	48524	,	-17274	,	-13734	,	-22.356308	,	0
38,53	,	48540	,	-17281	,	-13737	,	-25.620834	,	0
38,53	,	48556	,	-17274	,	-13742	,	-28.186905	,	0
38,53	,	48588	,	-17296	,	-13745	,	-29.733276	,	0
38,53	,	48604	,	-17307	,	-13748	,	-30.277393	,	0
38,53	,	48620	,	-17313	,	-13749	,	-30.18216	,	0
38,53	,	48652	,	-17332	,	-13761	,	-29.846954	,	0
38,54	,	48668	,	-17352	,	-13768	,	-29.662893	,	0
38,54	,	48700	,	-17362	,	-13778	,	-30.026194	,	0
38,54	,	48716	,	-17356	,	-13776	,	-31.028759	,	0
38,54	,	48732	,	-17338	,	-13763	,	-32.149837	,	0
38,54	,	48764	,	-17291	,	-13744	,	-32.212402	,	0
38,54	,	48780	,	-17261	,	-13739	,	-29.670315	,	0
38,54	,	48796	,	-17252	,	-13733	,	-23.406878	,	2
38,54	,	48828	,	-17239	,	-13727	,	-13.515538	,	8
38,54	,	48844	,	-17232	,	-13729	,	-1.2171812	,	17
38,54	,	48860	,	-17219	,	-13719	,	11.81007	,	29
38,54	,	48892	,	-17215	,	-13717	,	23.981968	,	42
38,54	,	48908	,	-17206	,	-13715	,	34.07631	,	54
38,54	,	48940	,	-17208	,	-13715	,	41.310925	,	64
38,54	,	48956	,	-17204	,	-13717	,	45.321236	,	71
38,54	,	48972	,	-17222	,	-13719	,	46.05454	,	75
38,54	,	49004	,	-17219	,	-13727	,	43.667206	,	73
38,54	,	49020	,	-17219	,	-13717	,	38.618523	,	67
38,54	,	49036	,	-17221	,	-13713	,	31.736988	,	58
38,54	,	49068	,	-17206	,	-13715	,	24.064968	,	46
38,54	,	49084	,	-17212	,	-13721	,	16.662493	,	33
38,54	,	49116	,	-17216	,	-13708	,	10.301396	,	21
38,54	,	49132	,	-17219	,	-13713	,	5.254593	,	11
38,54	,	49148	,	-17222	,	-13721	,	1.4519315	,	4
38,54	,	49180	,	-17228	,	-13713	,	-1.3195319	,	0
38,54	,	49196	,	-17230	,	-13724	,	-3.3354251	,	0
38,54	,	49212	,	-17236	,	-13720	,	-4.860775	,	0
38,54	,	49244	,	-17253	,	-13727	,	-6.165125	,	0
38,54	,	49260	,	-17260	,	-13727	,	-7.5841613	,	0
38,54	,	49276	,	-17269	,	-13735	,	-9.396097	,	0
38,54	,	49308	,	-17271	,	-13734	,	-11.639463	,	0
38,54	,	49324	,	-17278	,	-13746	,	-14.112112	,	0
38,54	,	49356	,	-17293	,	-13736	,	-16.5606	,	0
38,54	,	49372	,	-17311	,	-13755	,	-18.92065	,	0
38,54	,	49388	,	-17325	,	-13753	,	-21.350716	,	0
38,54	,	49420	,	-17326	,	-13762	,	-23.972443	,	0
38,54	,	49436	,	-17339	,	-13762	,	-26.642338	,	0
38,54	,	49452	,	-17349	,	-13775	,	-29.083063	,	0
38,54	,	49484	,	-17367	,	-13776	,	-31.15129	,	0
38,54	,	49499	,	-17358	,	-13779	,	-32.801228	,	0
38,54	,	49532	,	-17372	,	-13780	,	-33.87661	,	0
38,54	,	49548	,	-17381	,	-13790	,	-34.21943	,	0
38,54	,	49564	,	-17394	,	-13798	,	-33.91227	,	0
38,54	,	49596	,	-17406	,	-13799	,	-33.242104	,	0
38,54	,	49612	,	-17415	,	-13804	,	-32.524704	,	0
38,54	,	49628	,	-17376	,	-13782	,	-31.737316	,	0
38,55	,	49660	,	-17346	,	-13774	,	-30.08642	,	0
38,55	,	49675	,	-17317	,	-13767	,	-26.283642	,	1
38,55	,	49692	,	-17308	,	-13765	,	-19.465317	,	4
38,55	,	49724	,	-17302	,	-13761	,	-9.823991	,	10
38,55	,	49740	,	-17293	,	-13756	,	1.4991894	,	19
38,55	,	49771	,	-17280	,	-13751	,	13.036076	,	30
38,55	,	49787	,	-17283	,	-13751	,	23.49272	,	41
38,55	,	49804	,	-17278	,	-13748	,	31.850574	,	51
38,55	,	49836	,	-17288	,	-13754	,	37.378162	,	59
38,55	,	49852	,	-17293	,	-13747	,	39.66039	,	64
38,55	,	49868	,	-17295	,	-13756	,	38.65766	,	65
38,55	,	49899	,	-17299	,	-13753	,	34.785385	,	62
38,55	,	49915	,	-17304	,	-13757	,	28.797134	,	56
38,55	,	49947	,	-17295	,	-13750	,	21.602564	,	47
38,55	,	49964	,	-17301	,	-13754	,	14.175339	,	36
38,55	,	49979	,	-17303	,	-13756	,	7.347885	,	25
38,55	,	50012	,	-17289	,	-13757	,	1.6955919	,	15
38,55	,	50028	,	-17291	,	-13753	,	-2.3616629	,	7
38,55	,	50044	,	-17301	,	-13756	,	-4.6846004	,	2
38,55	,	50075	,	-17310	,	-13767	,	-5.6274486	,	0
38,55	,	50091	,	-17313	,	-13750	,	-5.8455553	,	0
38,55	,	50123	,	-17321	,	-13763	,	-5.925932	,	0
38,55	,	50139	,	-17344	,	-13760	,	-6.3281393	,	0
38,55	,	50155	,	-17342	,	-13765	,	-7.446312	,	0
38,55	,	50187	,	-17351	,	-13769	,	-9.408115	,	0
38,55	,	50204	,	-17357	,	-13767	,	-11.985365	,	0
38,55	,	50220	,	-17371	,	-13777	,	-14.852661	,	0
38,55	,	50251	,	-17374	,	-13781	,	-17.762999	,	0
38,55	,	50267	,	-17385	,	-13788	,	-20.506254	,	0
38,55	,	50283	,	-17393	,	-13787	,	-22.90059	,	0
38,55	,	50315	,	-17408	,	-13800	,	-24.880444	,	0
38,55	,	50331	,	-17416	,	-13786	,	-26.514662	,	0
38,55	,	50363	,	-17426	,	-13802	,	-27.89767	,	0
38,55	,	50379	,	-17436	,	-13811	,	-29.071407	,	0
38,55	,	50396	,	-17442	,	-13808	,	-30.029324	,	0
38,55	,	50427	,	-17450	,	-13814	,	-30.718441	,	0
38,55	,	50443	,	-17464	,	-13819	,	-31.102997	,	0
38,55	,	50459	,	-17477	,	-13817	,	-31.273209	,	0
38,55	,	50491	,	-17483	,	-13820	,	-31.393885	,	0
38,55	,	50507	,	-17492	,	-13827	,	-31.541939	,	0
38,55	,	50539	,	-17477	,	-13815	,	-31.565742	,	0
38,55	,	50555	,	-17436	,	-13799	,	-30.832668	,	0
38,55	,	50571	,	-17399	,	-13785	,	-28.127811	,	0
38,55	,	50603	,	-17376	,	-13780	,	-22.228725	,	2
38,55	,	50619	,	-17365	,	-13784	,	-12.775304	,	7
38,55	,	50635	,	-17364	,	-13780	,	-0.62213135	,	16
38,56	,	50667	,	-17362	,	-13779	,	12.491174	,	28
38,56	,	50683	,	-17353	,	-13776	,	24.649324	,	41
38,56	,	50699	,	-17367	,	-13771	,	34.321007	,	53
38,56	,	50731	,	-17363	,	-13771	,	40.497536	,	62
38,56	,	50747	,	-17368	,	-13775	,	42.76297	,	68
38,56	,	50779	,	-17374	,	-13775	,	41.32102	,	70
38,56	,	50795	,	-17377	,	-13779	,	36.80403	,	68
38,56	,	50811	,	-17385	,	-13778	,	30.06661	,	63
38,56	,	50843	,	-17378	,	-13784	,	22.079508	,	54
38,56	,	50859	,	-17380	,	-13775	,	13.878334	,	42
38,56	,	50875	,	-17373	,	-13772	,	6.4317837	,	29
38,56	,	50907	,	-17383	,	-13777	,	0.41678333	,	17
38,56	,	50923	,	-17381	,	-13780	,	-3.912356	,	8
38,56	,	50955	,	-17391	,	-13782	,	-6.671225	,	2
38,56	,	50971	,	-17390	,	-13777	,	-8.19238	,	0
38,56	,	50987	,	-17402	,	-13784	,	-8.897091	,	0
38,56	,	51019	,	-17400	,	-13787	,	-9.193581	,	0
38,56	,	51035	,	-17406	,	-13786	,	-9.359117	,	0
38,56	,	51051	,	-17415	,	-13791	,	-9.54615	,	0
38,56	,	51083	,	-17429	,	-13790	,	-9.943793	,	0
38,56	,	51099	,	-17438	,	-13800	,	-10.806945	,	0
38,56	,	51115	,	-17455	,	-13798	,	-12.338989	,	0
38,56	,	51147	,	-17460	,	-13799	,	-14.60902	,	0
38,56	,	51163	,	-17465	,	-13806	,	-17.458645	,	0
38,56	,	51195	,	-17474	,	-13810	,	-20.50596	,	0
38,56	,	51211	,	-17480	,	-13814	,	-23.339401	,	0
38,56	,	51227	,	-17497	,	-13813	,	-25.706799	,	0
38,56	,	51259	,	-17499	,	-13823	,	-27.550581	,	0
38,56	,	51275	,	-17501	,	-13823	,	-28.84398	,	0
38,56	,	51291	,	-17517	,	-13838	,	-29.515491	,	0
38,56	,	51323	,	-17523	,	-13817	,	-29.622572	,	0
38,56	,	51339	,	-17538	,	-13840	,	-29.39468	,	0
38,56	,	51371	,	-17548	,	-13836	,	-29.108688	,	0
38,56	,	51387	,	-17557	,	-13842	,	-28.982197	,	0
38,56	,	51403	,	-17542	,	-13837	,	-28.978165	,	0
38,56	,	51435	,	-17504	,	-13816	,	-28.493534	,	0
38,56	,	51451	,	-17466	,	-13802	,	-26.29651	,	0
38,56	,	51467	,	-17443	,	-13800	,	-21.100206	,	2
38,56	,	51499	,	-17431	,	-13798	,	-12.419206	,	7
38,56	,	51515	,	-17417	,	-13784	,	-0.906909	,	15
38,56	,	51531	,	-17427	,	-13797	,	11.924932	,	26
38,56	,	51563	,	-17427	,	-13770	,	24.146667	,	38
38,56	,	51579	,	-17431	,	-13785	,	33.937256	,	50
38,56	,	51611	,	-17430	,	-13782	,	40.10385	,	59
38,56	,	51626	,	-17433	,	-13787	,	42.267757	,	65
38,56	,	51643	,	-17448	,	-13793	,	40.67059	,	67
38,57	,	51675	,	-17454	,	-13801	,	35.858727	,	65
38,57	,	51691	,	-17459	,	-13789	,	28.583084	,	60
38,57	,	51707	,	-17463	,	-13795	,	19.819967	,	52
38,57	,	51739	,	-17453	,	-13789	,	10.699522	,	41
38,57	,	51755	,	-17451	,	-13782	,	2.3812609	,	29
38,57	,	51786	,	-17449	,	-13784	,	-4.1913757	,	17
38,57	,	51803	,	-17447	,	-13781	,	-8.526474	,	8
38,57	,	51819	,	-17461	,	-13784	,	-10.656443	,	2
38,57	,	51851	,	-17468	,	-13789	,	-11.117883	,	0
38,57	,	51867	,	-17457	,	-13788	,	-10.630618	,	0
38,57	,	51883	,	-17466	,	-13789	,	-9.674316	,	0
38,57	,	51915	,	-17473	,	-13791	,	-8.542267	,	0
38,57	,	51931	,	-17481	,	-13795	,	-7.574901	,	1
38,57	,	51962	,	-17489	,	-13793	,	-7.11543	,	1
38,57	,	51978	,	-17495	,	-13805	,	-7.3698163	,	1
38,57	,	51995	,	-17498	,	-13804	,	-8.334407	,	1
38,57	,	52027	,	-17518	,	-13804	,	-9.881558	,	1
38,57	,	52043	,	-17520	,	-13815	,	-11.925727	,	1
38,57	,	52058	,	-17532	,	-13812	,	-14.383611	,	1
38,57	,	52091	,	-17539	,	-13811	,	-17.082047	,	1
38,57	,	52107	,	-17557	,	-13819	,	-19.851355	,	1
38,57	,	52123	,	-17558	,	-13823	,	-22.579668	,	0
38,57	,	52155	,	-17568	,	-13824	,	-25.104012	,	0
38,57	,	52170	,	-17569	,	-13825	,	-27.174595	,	0
38,57	,	52202	,	-17584	,	-13831	,	-28.591625	,	0
38,57	,	52218	,	-17588	,	-13834	,	-29.325367	,	0
38,57	,	52234	,	-17587	,	-13835	,	-29.428043	,	0
38,57	,	52267	,	-17551	,	-13815	,	-28.69442	,	0
38,57	,	52283	,	-17521	,	-13812	,	-26.386162	,	0
38,57	,	52299	,	-17493	,	-13788	,	-21.52247	,	2
38,57	,	52330	,	-17462	,	-13783	,	-13.510653	,	6
38,57	,	52346	,	-17464	,	-13784	,	-2.5778904	,	14
38,57	,	52378	,	-17459	,	-13781	,	10.075227	,	24
38,57	,	52394	,	-17461	,	-13781	,	22.599834	,	36
38,57	,	52410	,	-17454	,	-13784	,	33.218933	,	48
38,57	,	52442	,	-17458	,	-13776	,	40.734398	,	58
38,57	,	52458	,	-17474	,	-13782	,	44.52883	,	65
38,57	,	52475	,	-17488	,	-13786	,	44.338547	,	68
38,57	,	52506	,	-17485	,	-13791	,	40.30764	,	66
38,57	,	52522	,	-17493	,	-13795	,	33.19075	,	62
38,57	,	52538	,	-17494	,	-13772	,	24.181803	,	54
38,57	,	52570	,	-17484	,	-13783	,	14.595406	,	44
38,57	,	52586	,	-17480	,	-13785	,	5.725232	,	32
38,57	,	52618	,	-17484	,	-13782	,	-1.3956871	,	20
38,57	,	52635	,	-17476	,	-13780	,	-6.2513046	,	10
38,57	,	52650	,	-17486	,	-13789	,	-8.828649	,	3
38,58	,	52682	,	-17495	,	-13787	,	-9.55385	,	0
38,58	,	52698	,	-17488	,	-13788	,	-9.117966	,	0
38,58	,	52714	,	-17503	,	-13782	,	-8.152309	,	0
38,58	,	52746	,	-17509	,	-13792	,	-7.185082	,	0
38,58	,	52762	,	-17511	,	-13798	,	-6.662279	,	0
38,58	,	52794	,	-17519	,	-13783	,	-6.790342	,	0
38,58	,	52810	,	-17523	,	-13799	,	-7.5437946	,	0
38,58	,	52826	,	-17543	,	-13808	,	-8.85558	,	0
38,58	,	52858	,	-17549	,	-13801	,	-10.744036	,	0
38,58	,	52874	,	-17561	,	-13810	,	-13.223272	,	0
38,58	,	52890	,	-17576	,	-13802	,	-16.200026	,	0
38,58	,	52922	,	-17571	,	-13809	,	-19.465351	,	0
38,58	,	52938	,	-17588	,	-13817	,	-22.664719	,	0
38,58	,	52954	,	-17595	,	-13820	,	-25.45581	,	0
38,58	,	52986	,	-17602	,	-13818	,	-27.673832	,	0
38,58	,	53002	,	-17598	,	-13823	,	-29.193787	,	0
38,58	,	53034	,	-17576	,	-13809	,	-29.690567	,	0
38,58	,	53050	,	-17523	,	-13788	,	-28.389233	,	0
38,58	,	53066	,	-17478	,	-13761	,	-24.04065	,	1
38,58	,	53098	,	-17460	,	-13761	,	-15.601011	,	5
38,58	,	53114	,	-17460	,	-13755	,	-3.247715	,	13
38,58	,	53130	,	-17455	,	-13764	,	11.3758955	,	25
38,58	,	53162	,	-17443	,	-13754	,	25.977432	,	39
38,58	,	53178	,	-17450	,	-13753	,	38.535385	,	53
38,58	,	53210	,	-17451	,	-13754	,	47.60264	,	65
38,58	,	53226	,	-17456	,	-13747	,	52.347076	,	74
38,58	,	53242	,	-17464	,	-13759	,	52.59539	,	78
38,58	,	53274	,	-17471	,	-13765	,	48.73789	,	77
38,58	,	53290	,	-17478	,	-13755	,	41.576416	,	73
38,58	,	53306	,	-17460	,	-13757	,	32.282883	,	65
38,58	,	53338	,	-17454	,	-13754	,	22.376947	,	53
38,58	,	53354	,	-17462	,	-13752	,	13.328249	,	39
38,58	,	53370	,	-17452	,	-13753	,	6.048794	,	25
38,58	,	53402	,	-17465	,	-13751	,	0.8515787	,	13
38,58	,	53418	,	-17451	,	-13749	,	-2.3516455	,	4
38,58	,	53450	,	-17468	,	-13751	,	-3.8972998	,	0
38,58	,	53466	,	-17460	,	-13750	,	-4.278389	,	0
38,58	,	53482	,	-17462	,	-13755	,	-3.9874606	,	0
38,58	,	53514	,	-17466	,	-13760	,	-3.3642287	,	0
38,58	,	53530	,	-17470	,	-13748	,	-2.6749449	,	0
38,58	,	53546	,	-17484	,	-13761	,	-2.2305899	,	0
38,58	,	53578	,	-17492	,	-13758	,	-2.3880453	,	0
38,58	,	53594	,	-17507	,	-13761	,	-3.4578092	,	0
38,58	,	53626	,	-17512	,	-13768	,	-5.575938	,	0
38,58	,	53642	,	-17523	,	-13772	,	-8.632244	,	0
38,59	,	53658	,	-17525	,	-13775	,	-12.285227	,	0
38,59	,	53690	,	-17531	,	-13770	,	-16.047428	,	0
38,59	,	53706	,	-17542	,	-13775	,	-19.451921	,	0
38,59	,	53722	,	-17547	,	-13775	,	-22.224337	,	0
38,59	,	53754	,	-17530	,	-13781	,	-24.15813	,	0
38,59	,	53770	,	-17496	,	-13743	,	-24.723219	,	0
38,59	,	53786	,	-17422	,	-13727	,	-22.75983	,	0
38,59	,	53818	,	-17419	,	-13723	,	-16.87288	,	1
38,59	,	53834	,	-17399	,	-13719	,	-6.6522856	,	6
38,59	,	53866	,	-17393	,	-13711	,	6.759492	,	16
38,59	,	53882	,	-17385	,	-13703	,	21.341137	,	29
38,59	,	53898	,	-17377	,	-13706	,	35.004356	,	43
38,59	,	53930	,	-17372	,	-13702	,	46.097393	,	56
38,59	,	53946	,	-17373	,	-13697	,	53.606445	,	67
38,59	,	53962	,	-17378	,	-13699	,	57.073433	,	74
38,59	,	53994	,	-17376	,	-13703	,	56.513176	,	77
38,59	,	54010	,	-17390	,	-13693	,	52.364113	,	76
38,59	,	54042	,	-17385	,	-13702	,	45.36883	,	71
38,59	,	54058	,	-17374	,	-13702	,	36.56829	,	61
38,59	,	54074	,	-17372	,	-13690	,	27.271215	,	48
38,59	,	54106	,	-17363	,	-13692	,	18.72434	,	34
38,59	,	54122	,	-17364	,	-13692	,	11.796608	,	21
38,59	,	54138	,	-17366	,	-13690	,	6.851925	,	10
38,59	,	54169	,	-17366	,	-13680	,	3.7674627	,	3
38,59	,	54186	,	-17370	,	-13692	,	2.1243987	,	0
38,59	,	54218	,	-17364	,	-13692	,	1.4434948	,	0
38,59	,	54233	,	-17372	,	-13697	,	1.3191165	,	0
38,59	,	54250	,	-17374	,	-13691	,	1.3988457	,	0
38,59	,	54281	,	-17378	,	-13696	,	1.3635349	,	0
38,59	,	54297	,	-17400	,	-13702	,	0.9084994	,	0
38,59	,	54314	,	-17399	,	-13700	,	-0.29221886	,	0
38,59	,	54346	,	-17402	,	-13700	,	-2.3637667	,	0
38,59	,	54362	,	-17415	,	-13712	,	-5.0919075	,	0
38,59	,	54378	,	-17431	,	-13712	,	-8.225826	,	0
38,59	,	54410	,	-17428	,	-13710	,	-11.622155	,	0
38,59	,	54425	,	-17431	,	-13717	,	-15.00421	,	0
38,59	,	54458	,	-17443	,	-13719	,	-17.964472	,	0
38,59	,	54474	,	-17412	,	-13704	,	-20.092815	,	0
38,59	,	54490	,	-17376	,	-13701	,	-20.669216	,	0
38,59	,	54522	,	-17336	,	-13672	,	-18.536343	,	0
38,59	,	54538	,	-17296	,	-13664	,	-12.628078	,	2
38,59	,	54554	,	-17290	,	-13658	,	-2.6679993	,	7
38,59	,	54585	,	-17268	,	-13651	,	10.451423	,	16
38,59	,	54601	,	-17273	,	-13641	,	24.919989	,	29
38,59	,	54634	,	-17253	,	-13645	,	38.67236	,	43
38,59	,	54649	,	-17251	,	-13644	,	50.013706	,	56
39,0	,	54665	,	-17245	,	-13639	,	57.90493	,	67
39,0	,	54698	,	-17249	,	-13637	,	61.87597	,	74
39,0	,	54714	,	-17244	,	-13644	,	61.923317	,	77
39,0	,	54730	,	-17253	,	-13655	,	58.454384	,	75
39,0	,	54761	,	-17253	,	-13630	,	52.1389	,	70
39,0	,	54777	,	-17244	,	-13634	,	43.853043	,	61
39,0	,	54793	,	-17239	,	-13630	,	34.714752	,	48
39,0	,	54826	,	-17236	,	-13631	,	25.881828	,	34
39,0	,	54842	,	-17236	,	-13635	,	18.215385	,	21
39,0	,	54873	,	-17243	,	-13632	,	12.109016	,	10
39,0	,	54889	,	-17233	,	-13627	,	7.5695534	,	3
39,0	,	54906	,	-17247	,	-13633	,	4.4134398	,	0
39,0	,	54937	,	-17245	,	-13633	,	2.3155699	,	0
39,0	,	54953	,	-17247	,	-13632	,	0.88432	,	0
39,0	,	54969	,	-17259	,	-13648	,	-0.2161448	,	0
39,0	,	55002	,	-17266	,	-13633	,	-1.3228856	,	0
39,0	,	55018	,	-17273	,	-13647	,	-2.750861	,	0
39,0	,	55049	,	-17278	,	-13648	,	-4.6406164	,	0
39,0	,	55065	,	-17285	,	-13652	,	-6.9316463	,	0
39,0	,	55081	,	-17298	,	-13650	,	-9.479446	,	0
39,0	,	55114	,	-17314	,	-13658	,	-12.221258	,	0
39,0	,	55129	,	-17316	,	-13660	,	-15.169441	,	0
39,0	,	55145	,	-17323	,	-13670	,	-18.209364	,	0
39,0	,	55177	,	-17308	,	-13662	,	-20.954597	,	0
39,0	,	55193	,	-17274	,	-13646	,	-22.628159	,	0
39,0	,	55209	,	-17234	,	-13641	,	-22.03181	,	0
39,0	,	55241	,	-17205	,	-13616	,	-17.962517	,	0
39,0	,	55257	,	-17188	,	-13620	,	-9.926155	,	4
39,0	,	55289	,	-17156	,	-13600	,	1.5615253	,	12
39,0	,	55305	,	-17147	,	-13597	,	15.276641	,	23
39,0	,	55321	,	-17138	,	-13595	,	29.608582	,	36
39,0	,	55353	,	-17132	,	-13589	,	42.79464	,	50
39,0	,	55369	,	-17128	,	-13592	,	53.29925	,	63
39,0	,	55385	,	-17126	,	-13590	,	60.114937	,	73
39,0	,	55417	,	-17121	,	-13589	,	62.865345	,	79
39,0	,	55433	,	-17124	,	-13589	,	61.753773	,	81
39,0	,	55465	,	-17119	,	-13598	,	57.394096	,	77
39,0	,	55481	,	-17128	,	-13584	,	50.61927	,	69
39,0	,	55497	,	-17118	,	-13593	,	42.335613	,	58
39,0	,	55529	,	-17115	,	-13583	,	33.50183	,	45
39,0	,	55545	,	-17123	,	-13588	,	25.020008	,	31
39,0	,	55561	,	-17113	,	-13594	,	17.514866	,	18
39,0	,	55593	,	-17113	,	-13584	,	11.359467	,	8
39,0	,	55609	,	-17120	,	-13588	,	6.7185946	,	2
39,0	,	55641	,	-17119	,	-13590	,	3.4683542	,	0
39,1	,	55657	,	-17124	,	-13598	,	1.2994428	,	0
39,1	,	55673	,	-17124	,	-13593	,	-0.117123365	,	0
39,1	,	55705	,	-17139	,	-13609	,	-1.11765	,	0
39,1	,	55721	,	-17146	,	-13613	,	-2.1017797	,	0
39,1	,	55737	,	-17159	,	-13608	,	-3.4750226	,	0
39,1	,	55769	,	-17173	,	-13621	,	-5.5296783	,	0
39,1	,	55785	,	-17181	,	-13627	,	-8.387663	,	0
39,1	,	55801	,	-17187	,	-13629	,	-11.929106	,	0
39,1	,	55833	,	-17195	,	-13634	,	-15.797437	,	0
39,1	,	55849	,	-17212	,	-13643	,	-19.610472	,	0
39,1	,	55881	,	-17213	,	-13643	,	-23.120602	,	0
39,1	,	55897	,	-17232	,	-13645	,	-26.171572	,	0
39,1	,	55913	,	-17238	,	-13651	,	-28.690508	,	0
39,1	,	55945	,	-17218	,	-13642	,	-30.537243	,	0
39,1	,	55961	,	-17184	,	-13640	,	-31.086187	,	0
39,1	,	55977	,	-17147	,	-13604	,	-29.18858	,	0
39,1	,	56009	,	-17091	,	-13605	,	-23.620731	,	1
39,1	,	56025	,	-17085	,	-13596	,	-13.700248	,	6
39,1	,	56057	,	-17064	,	-13596	,	0.0704155	,	15
39,1	,	56073	,	-17058	,	-13589	,	16.001266	,	28
39,1	,	56089	,	-17051	,	-13583	,	31.904745	,	43
39,1	,	56121	,	-17050	,	-13585	,	45.71322	,	58
39,1	,	56137	,	-17033	,	-13580	,	55.9248	,	71
39,1	,	56153	,	-17016	,	-13583	,	61.972183	,	81
39,1	,	56185	,	-17011	,	-13586	,	64.17149	,	87
39,1	,	56201	,	-17050	,	-13593	,	63.02182	,	88
39,1	,	56217	,	-17020	,	-13580	,	58.757057	,	83
39,1	,	56249	,	-17043	,	-13586	,	51.803734	,	74
39,1	,	56265	,	-17037	,	-13585	,	42.984997	,	61
39,1	,	56297	,	-17018	,	-13583	,	33.32119	,	46
39,1	,	56313	,	-17004	,	-13586	,	24.099747	,	31
39,1	,	56329	,	-17044	,	-13589	,	16.393173	,	18
39,1	,	56361	,	-17045	,	-13590	,	10.281095	,	8
39,1	,	56377	,	-17044	,	-13595	,	5.212332	,	2
39,1	,	56393	,	-17049	,	-13604	,	0.8554759	,	0
39,1	,	56425	,	-17048	,	-13603	,	-2.8069968	,	0
39,1	,	56441	,	-17040	,	-13612	,	-5.668646	,	0
39,1	,	56473	,	-17066	,	-13605	,	-7.6636906	,	0
39,1	,	56489	,	-17083	,	-13616	,	-9.108777	,	0
39,1	,	56505	,	-17105	,	-13625	,	-10.711279	,	0
39,1	,	56537	,	-17112	,	-13632	,	-13.104698	,	0
39,1	,	56553	,	-17126	,	-13635	,	-16.48133	,	0
39,1	,	56569	,	-17136	,	-13633	,	-20.61174	,	0
39,1	,	56601	,	-17147	,	-13647	,	-25.062096	,	0
39,1	,	56617	,	-17157	,	-13642	,	-29.364365	,	0
39,1	,	56633	,	-17159	,	-13657	,	-33.076366	,	0
39,2	,	56665	,	-17169	,	-13659	,	-35.80864	,	0
39,2	,	56681	,	-17182	,	-13672	,	-37.36102	,	0
39,2	,	56712	,	-17189	,	-13678	,	-37.821594	,	0
39,2	,	56729	,	-17202	,	-13675	,	-37.453957	,	0
39,2	,	56745	,	-17200	,	-13685	,	-36.520664	,	0
39,2	,	56777	,	-17172	,	-13669	,	-34.990067	,	0
39,2	,	56793	,	-17125	,	-13658	,	-32.168137	,	1
39,2	,	56809	,	-17101	,	-13645	,	-26.8727	,	3
39,2	,	56841	,	-17090	,	-13635	,	-18.342995	,	8
39,2	,	56857	,	-17072	,	-13636	,	-6.918499	,	16
39,2	,	56889	,	-17067	,	-13636	,	6.1667347	,	27
39,2	,	56905	,	-17049	,	-13627	,	19.366594	,	40
39,2	,	56921	,	-17038	,	-13623	,	31.320286	,	53
39,2	,	56953	,	-17040	,	-13630	,	41.040768	,	64
39,2	,	56969	,	-17023	,	-13611	,	47.87525	,	73
39,2	,	56985	,	-17029	,	-13621	,	51.56318	,	78
39,2	,	57017	,	-17025	,	-13622	,	52.194305	,	79
39,2	,	57033	,	-17045	,	-13620	,	49.984215	,	74
39,2	,	57049	,	-17020	,	-13624	,	45.28693	,	66
39,2	,	57081	,	-17037	,	-13625	,	38.794037	,	55
39,2	,	57097	,	-17039	,	-13624	,	31.332108	,	42
39,2	,	57129	,	-17037	,	-13622	,	23.561493	,	29
39,2	,	57145	,	-17036	,	-13625	,	16.079647	,	18
39,2	,	57161	,	-17033	,	-13624	,	9.465433	,	9
39,2	,	57193	,	-17053	,	-13629	,	4.0510254	,	3
39,2	,	57209	,	-17019	,	-13621	,	-0.079174995	,	0
39,2	,	57224	,	-17059	,	-13635	,	-2.9043102	,	0
39,2	,	57257	,	-17069	,	-13637	,	-4.7529297	,	0
39,2	,	57273	,	-17071	,	-13646	,	-6.359813	,	0
39,2	,	57305	,	-17078	,	-13645	,	-8.224658	,	0
39,2	,	57321	,	-17094	,	-13651	,	-10.440722	,	0
39,2	,	57337	,	-17106	,	-13658	,	-13.027979	,	0
39,2	,	57369	,	-17122	,	-13665	,	-16.030977	,	0
39,2	,	57384	,	-17136	,	-13669	,	-19.453548	,	0
39,2	,	57400	,	-17139	,	-13671	,	-23.172623	,	0
39,2	,	57432	,	-17120	,	-13687	,	-26.72531	,	0
39,2	,	57449	,	-17165	,	-13677	,	-29.46722	,	0
39,2	,	57481	,	-17174	,	-13691	,	-31.285795	,	0
39,2	,	57497	,	-17193	,	-13709	,	-32.672905	,	0
39,2	,	57513	,	-17208	,	-13702	,	-34.114235	,	0
39,2	,	57544	,	-17216	,	-13710	,	-35.815186	,	0
39,2	,	57560	,	-17232	,	-13716	,	-37.717926	,	0
39,2	,	57576	,	-17239	,	-13724	,	-39.600704	,	0
39,2	,	57608	,	-17245	,	-13726	,	-41.17692	,	0
39,2	,	57625	,	-17258	,	-13727	,	-42.164917	,	0
39,2	,	57640	,	-17259	,	-13727	,	-42.39104	,	0
39,3	,	57673	,	-17228	,	-13723	,	-41.596172	,	0
39,3	,	57689	,	-17209	,	-13714	,	-39.129154	,	0
39,3	,	57720	,	-17185	,	-13706	,	-34.19741	,	2
39,3	,	57736	,	-17175	,	-13700	,	-26.450031	,	6
39,3	,	57752	,	-17163	,	-13696	,	-16.266567	,	13
39,3	,	57784	,	-17153	,	-13697	,	-4.626419	,	23
39,3	,	57800	,	-17151	,	-13693	,	7.2159433	,	34
39,3	,	57816	,	-17139	,	-13688	,	18.034203	,	45
39,3	,	57849	,	-17139	,	-13688	,	26.884123	,	55
39,3	,	57865	,	-17137	,	-13690	,	33.184116	,	63
39,3	,	57896	,	-17139	,	-13686	,	36.653023	,	69
39,3	,	57912	,	-17142	,	-13697	,	37.28912	,	70
39,3	,	57928	,	-17152	,	-13700	,	35.32	,	66
39,3	,	57960	,	-17149	,	-13689	,	31.158134	,	59
39,3	,	57976	,	-17152	,	-13692	,	25.435266	,	49
39,3	,	57992	,	-17155	,	-13692	,	18.917	,	38
39,3	,	58024	,	-17159	,	-13693	,	12.295792	,	27
39,3	,	58040	,	-17157	,	-13696	,	6.118476	,	17
39,3	,	58056	,	-17161	,	-13693	,	0.814785	,	9
39,3	,	58088	,	-17172	,	-13700	,	-3.394124	,	3
39,3	,	58104	,	-17171	,	-13697	,	-6.5608244	,	0
39,3	,	58136	,	-17169	,	-13703	,	-8.810706	,	0
39,3	,	58152	,	-17186	,	-13710	,	-10.244905	,	0
39,3	,	58168	,	-17196	,	-13720	,	-11.150971	,	0
39,3	,	58200	,	-17207	,	-13711	,	-12.005502	,	0
39,3	,	58216	,	-17225	,	-13721	,	-13.242903	,	0
39,3	,	58232	,	-17236	,	-13734	,	-15.155689	,	0
39,3	,	58264	,	-17251	,	-13741	,	-17.853558	,	0
39,3	,	58280	,	-17256	,	-13740	,	-21.205887	,	0
39,3	,	58312	,	-17270	,	-13751	,	-24.868183	,	0
39,3	,	58328	,	-17278	,	-13755	,	-28.431694	,	0
39,3	,	58344	,	-17289	,	-13750	,	-31.568089	,	0
39,3	,	58376	,	-17288	,	-13763	,	-34.01439	,	0
39,3	,	58392	,	-17301	,	-13767	,	-35.535946	,	0
39,3	,	58408	,	-17309	,	-13776	,	-36.045887	,	0
39,3	,	58440	,	-17322	,	-13760	,	-35.704353	,	0
39,3	,	58456	,	-17335	,	-13782	,	-34.853153	,	0
39,3	,	58472	,	-17353	,	-13785	,	-33.91974	,	0
39,3	,	58504	,	-17370	,	-13792	,	-33.34077	,	0
39,3	,	58520	,	-17378	,	-13790	,	-33.42177	,	0
39,3	,	58552	,	-17373	,	-13790	,	-34.1024	,	0
39,3	,	58568	,	-17364	,	-13788	,	-34.819702	,	0
39,3	,	58584	,	-17351	,	-13777	,	-34.69397	,	0
39,3	,	58616	,	-17314	,	-13774	,	-32.786522	,	0
39,3	,	58632	,	-17313	,	-13773	,	-28.33143	,	1
39,3	,	58648	,	-17305	,	-13772	,	-21.20709	,	5
39,4	,	58680	,	-17305	,	-13767	,	-12.1693735	,	12
39,4	,	58696	,	-17295	,	-13767	,	-2.4418802	,	21
39,4	,	58728	,	-17292	,	-13767	,	6.812932	,	30
39,4	,	58744	,	-17298	,	-13767	,	14.68338	,	39
39,4	,	58760	,	-17296	,	-13764	,	20.478508	,	46
39,4	,	58792	,	-17304	,	-13767	,	23.780197	,	51
39,4	,	58808	,	-17310	,	-13770	,	24.491896	,	54
39,4	,	58824	,	-17316	,	-13770	,	22.783861	,	53
39,4	,	58856	,	-17311	,	-13772	,	19.103266	,	49
39,4	,	58872	,	-17316	,	-13768	,	14.1688385	,	42
39,4	,	58888	,	-17314	,	-13773	,	8.792609	,	33
39,4	,	58920	,	-17312	,	-13774	,	3.7010584	,	24
39,4	,	58936	,	-17317	,	-13764	,	-0.56651974	,	15
39,4	,	58968	,	-17321	,	-13773	,	-3.772386	,	8
39,4	,	58984	,	-17330	,	-13777	,	-5.998805	,	3
39,4	,	59000	,	-17329	,	-13773	,	-7.5048933	,	0
39,4	,	59032	,	-17334	,	-13778	,	-8.532367	,	0
39,4	,	59048	,	-17345	,	-13779	,	-9.265923	,	0
39,4	,	59064	,	-17356	,	-13784	,	-9.950643	,	0
39,4	,	59096	,	-17363	,	-13783	,	-10.874782	,	0
39,4	,	59112	,	-17365	,	-13792	,	-12.176168	,	0
39,4	,	59144	,	-17377	,	-13788	,	-13.778515	,	0
39,4	,	59160	,	-17374	,	-13805	,	-15.501972	,	0
39,4	,	59176	,	-17401	,	-13790	,	-17.204205	,	0
39,4	,	59207	,	-17414	,	-13805	,	-18.972492	,	0
39,4	,	59224	,	-17424	,	-13811	,	-21.063713	,	0
39,4	,	59240	,	-17428	,	-13811	,	-23.537304	,	0
39,4	,	59272	,	-17425	,	-13819	,	-26.081501	,	0
39,4	,	59288	,	-17437	,	-13814	,	-28.188396	,	0
39,4	,	59304	,	-17452	,	-13824	,	-29.537878	,	0
39,4	,	59336	,	-17462	,	-13824	,	-30.207844	,	0
39,4	,	59352	,	-17477	,	-13834	,	-30.498962	,	0
39,4	,	59384	,	-17482	,	-13832	,	-30.690342	,	0
39,4	,	59400	,	-17483	,	-13852	,	-30.870687	,	0
39,4	,	59416	,	-17503	,	-13834	,	-30.962872	,	0
39,4	,	59448	,	-17494	,	-13845	,	-30.889866	,	0
39,4	,	59464	,	-17482	,	-13842	,	-30.43284	,	0
39,4	,	59480	,	-17463	,	-13832	,	-29.032284	,	0
39,4	,	59512	,	-17452	,	-13830	,	-26.028927	,	1
39,4	,	59527	,	-17444	,	-13818	,	-21.09218	,	4
39,4	,	59559	,	-17437	,	-13822	,	-14.431024	,	8
39,4	,	59576	,	-17434	,	-13822	,	-6.702386	,	14
39,4	,	59591	,	-17435	,	-13820	,	1.1997433	,	21
39,4	,	59624	,	-17435	,	-13816	,	8.343864	,	28
39,4	,	59640	,	-17433	,	-13821	,	13.9775715	,	35
39,4	,	59656	,	-17435	,	-13807	,	17.67751	,	40
39,5	,	59688	,	-17435	,	-13819	,	19.343485	,	43
39,5	,	59704	,	-17445	,	-13819	,	19.093191	,	43
39,5	,	59736	,	-17451	,	-13816	,	17.14087	,	40
39,5	,	59752	,	-17455	,	-13825	,	13.772243	,	36
39,5	,	59768	,	-17453	,	-13820	,	9.427942	,	30
39,5	,	59800	,	-17449	,	-13818	,	4.7411137	,	23
39,5	,	59816	,	-17449	,	-13818	,	0.41488218	,	16
39,5	,	59832	,	-17450	,	-13819	,	-3.012261	,	9
39,5	,	59863	,	-17451	,	-13814	,	-5.3054237	,	4
39,5	,	59879	,	-17451	,	-13819	,	-6.486109	,	1
39,5	,	59895	,	-17465	,	-13824	,	-6.7871885	,	0
39,5	,	59928	,	-17461	,	-13823	,	-6.6122813	,	0
39,5	,	59944	,	-17475	,	-13821	,	-6.3719215	,	0
39,5	,	59976	,	-17484	,	-13828	,	-6.4132895	,	0
39,5	,	59991	,	-17490	,	-13822	,	-7.0227304	,	0
39,5	,	60007	,	-17490	,	-13831	,	-8.275715	,	0
39,5	,	60040	,	-17506	,	-13837	,	-10.015906	,	0
39,5	,	60056	,	-17516	,	-13835	,	-12.097268	,	0
39,5	,	60071	,	-17514	,	-13838	,	-14.424641	,	0
39,5	,	60104	,	-17520	,	-13839	,	-16.754387	,	0
39,5	,	60120	,	-17532	,	-13841	,	-18.783657	,	0
39,5	,	60151	,	-17541	,	-13849	,	-20.414062	,	0
39,5	,	60167	,	-17548	,	-13844	,	-21.723846	,	0
39,5	,	60183	,	-17552	,	-13853	,	-22.772053	,	0
39,5	,	60215	,	-17571	,	-13861	,	-23.589336	,	0
39,5	,	60231	,	-17570	,	-13858	,	-24.271706	,	0
39,5	,	60247	,	-17578	,	-13864	,	-24.876705	,	0
39,5	,	60279	,	-17587	,	-13862	,	-25.346432	,	0
39,5	,	60295	,	-17585	,	-13865	,	-25.592903	,	0
39,5	,	60311	,	-17592	,	-13867	,	-25.50578	,	0
39,5	,	60343	,	-17593	,	-13864	,	-24.977512	,	0
39,5	,	60359	,	-17564	,	-13862	,	-23.817604	,	0
39,5	,	60391	,	-17552	,	-13862	,	-21.546442	,	1
39,5	,	60407	,	-17530	,	-13834	,	-17.591373	,	3
39,5	,	60423	,	-17507	,	-13835	,	-11.645564	,	6
39,5	,	60456	,	-17515	,	-13837	,	-3.874093	,	11
39,5	,	60472	,	-17513	,	-13833	,	4.888233	,	18
39,5	,	60488	,	-17510	,	-13833	,	13.357852	,	26
39,5	,	60520	,	-17510	,	-13832	,	20.38717	,	34
39,5	,	60535	,	-17509	,	-13827	,	25.259302	,	41
39,5	,	60567	,	-17515	,	-13832	,	27.66531	,	45
39,5	,	60583	,	-17517	,	-13834	,	27.613087	,	46
39,5	,	60599	,	-17530	,	-13831	,	25.336283	,	44
39,5	,	60631	,	-17526	,	-13843	,	21.241005	,	41
39,5	,	60647	,	-17529	,	-13820	,	15.929145	,	36
39,6	,	60663	,	-17518	,	-13829	,	10.194247	,	29
39,6	,	60695	,	-17524	,	-13831	,	4.8641872	,	21
39,6	,	60711	,	-17529	,	-13828	,	0.50844955	,	13
39,6	,	60743	,	-17528	,	-13826	,	-2.7111297	,	6
39,6	,	60759	,	-17528	,	-13830	,	-4.858554	,	2
39,6	,	60775	,	-17527	,	-13829	,	-6.032597	,	0
39,6	,	60807	,	-17538	,	-13825	,	-6.4058046	,	0
39,6	,	60823	,	-17535	,	-13833	,	-6.2842073	,	0
39,6	,	60839	,	-17541	,	-13836	,	-5.986006	,	0
39,6	,	60871	,	-17548	,	-13837	,	-5.7467685	,	0
39,6	,	60887	,	-17551	,	-13833	,	-5.7560773	,	0
39,6	,	60903	,	-17555	,	-13835	,	-6.119671	,	0
39,6	,	60935	,	-17568	,	-13838	,	-6.8575087	,	0
39,6	,	60951	,	-17582	,	-13842	,	-8.045761	,	0
39,6	,	60983	,	-17583	,	-13843	,	-9.798479	,	0
39,6	,	60999	,	-17586	,	-13847	,	-12.029553	,	0
39,6	,	61015	,	-17602	,	-13850	,	-14.4567795	,	0
39,6	,	61047	,	-17598	,	-13857	,	-16.824516	,	0
39,6	,	61063	,	-17613	,	-13854	,	-18.938795	,	0
39,6	,	61079	,	-17621	,	-13854	,	-20.693508	,	0
39,6	,	61111	,	-17626	,	-13864	,	-22.108086	,	0
39,6	,	61127	,	-17642	,	-13859	,	-23.24746	,	0
39,6	,	61159	,	-17634	,	-13857	,	-24.147732	,	0
39,6	,	61175	,	-17646	,	-13866	,	-24.729988	,	0
39,6	,	61191	,	-17623	,	-13861	,	-24.753454	,	0
39,6	,	61223	,	-17606	,	-13846	,	-23.746483	,	0
39,6	,	61239	,	-17577	,	-13834	,	-21.015743	,	1
39,6	,	61255	,	-17571	,	-13832	,	-16.016245	,	3
39,6	,	61287	,	-17553	,	-13828	,	-8.771476	,	7
39,6	,	61303	,	-17546	,	-13822	,	0.09966278	,	14
39,6	,	61319	,	-17536	,	-13817	,	9.638763	,	22
39,6	,	61351	,	-17531	,	-13811	,	18.80455	,	31
39,6	,	61367	,	-17538	,	-13821	,	26.617863	,	40
39,6	,	61399	,	-17535	,	-13813	,	32.242767	,	47
39,6	,	61415	,	-17553	,	-13815	,	35.095703	,	52
39,6	,	61431	,	-17549	,	-13821	,	34.93189	,	53
39,6	,	61463	,	-17548	,	-13816	,	31.976841	,	51
39,6	,	61479	,	-17549	,	-13808	,	26.960236	,	47
39,6	,	61495	,	-17546	,	-13817	,	20.843403	,	40
39,6	,	61527	,	-17550	,	-13816	,	14.526235	,	32
39,6	,	61543	,	-17547	,	-13812	,	8.701605	,	23
39,6	,	61575	,	-17547	,	-13812	,	3.821868	,	14
39,6	,	61590	,	-17540	,	-13804	,	0.15702105	,	7
39,6	,	61607	,	-17548	,	-13823	,	-2.1891541	,	2
39,6	,	61639	,	-17551	,	-13802	,	-3.3595264	,	0
39,6	,	61655	,	-17549	,	-13814	,	-3.6977067	,	0
39,7	,	61671	,	-17556	,	-13810	,	-3.5594187	,	0
39,7	,	61703	,	-17559	,	-13807	,	-3.259662	,	0
39,7	,	61720	,	-17569	,	-13812	,	-3.1105385	,	0
39,7	,	61735	,	-17569	,	-13816	,	-3.3702278	,	0
39,7	,	61766	,	-17577	,	-13815	,	-4.142999	,	0
39,7	,	61783	,	-17587	,	-13814	,	-5.408759	,	0
39,7	,	61815	,	-17590	,	-13823	,	-7.120962	,	0
39,7	,	61831	,	-17587	,	-13820	,	-9.121698	,	0
39,7	,	61863	,	-17603	,	-13836	,	-11.128596	,	0
39,7	,	61879	,	-17619	,	-13814	,	-13.027549	,	0
39,7	,	61894	,	-17618	,	-13828	,	-14.94061	,	0
39,7	,	61926	,	-17627	,	-13826	,	-16.9074	,	0
39,7	,	61942	,	-17626	,	-13836	,	-18.75245	,	0
39,7	,	61958	,	-17635	,	-13833	,	-20.235619	,	0
39,7	,	61991	,	-17626	,	-13829	,	-21.147991	,	0
39,7	,	62007	,	-17604	,	-13819	,	-21.168129	,	0
39,7	,	62022	,	-17572	,	-13804	,	-19.661312	,	0
39,7	,	62055	,	-17557	,	-13794	,	-15.880419	,	1
39,7	,	62071	,	-17547	,	-13788	,	-9.5374365	,	4
39,7	,	62102	,	-17541	,	-13793	,	-1.1376085	,	10
39,7	,	62118	,	-17518	,	-13778	,	8.30732	,	18
39,7	,	62135	,	-17530	,	-13783	,	17.713314	,	27
39,7	,	62167	,	-17519	,	-13776	,	26.012508	,	36
39,7	,	62183	,	-17525	,	-13778	,	32.269493	,	44
39,7	,	62199	,	-17522	,	-13772	,	35.913353	,	50
39,7	,	62231	,	-17529	,	-13778	,	36.770653	,	53
39,7	,	62246	,	-17543	,	-13782	,	34.938034	,	52
39,7	,	62278	,	-17547	,	-13771	,	30.667116	,	49
39,7	,	62294	,	-17529	,	-13773	,	24.530012	,	43
39,7	,	62310	,	-17525	,	-13784	,	17.606836	,	35
39,7	,	62343	,	-17525	,	-13765	,	11.122638	,	26
39,7	,	62359	,	-17529	,	-13772	,	5.8713045	,	17
39,7	,	62374	,	-17523	,	-13773	,	2.0974026	,	9
39,7	,	62406	,	-17530	,	-13769	,	-0.27446222	,	3
39,7	,	62422	,	-17536	,	-13766	,	-1.5283134	,	0
39,7	,	62438	,	-17531	,	-13771	,	-2.0744786	,	0
39,7	,	62470	,	-17537	,	-13775	,	-2.2504854	,	0
39,7	,	62486	,	-17536	,	-13772	,	-2.269712	,	0
39,7	,	62519	,	-17541	,	-13776	,	-2.2881045	,	0
39,7	,	62535	,	-17544	,	-13773	,	-2.4260437	,	0
39,7	,	62551	,	-17559	,	-13783	,	-2.8278203	,	0
39,7	,	62582	,	-17569	,	-13768	,	-3.7224946	,	0
39,7	,	62598	,	-17564	,	-13780	,	-5.2705173	,	0
39,7	,	62614	,	-17583	,	-13786	,	-7.38567	,	0
39,7	,	62646	,	-17586	,	-13783	,	-9.883103	,	0
39,8	,	62662	,	-17594	,	-13790	,	-12.602663	,	0
39,8	,	62694	,	-17603	,	-13795	,	-15.350378	,	0
39,8	,	62710	,	-17604	,	-13789	,	-17.911222	,	0
39,8	,	62726	,	-17580	,	-13784	,	-19.919764	,	0
39,8	,	62758	,	-17561	,	-13774	,	-20.66037	,	0
39,8	,	62774	,	-17520	,	-13760	,	-19.177048	,	0
39,8	,	62790	,	-17503	,	-13755	,	-14.648925	,	1
39,8	,	62822	,	-17481	,	-13739	,	-6.8539286	,	5
39,8	,	62838	,	-17472	,	-13730	,	3.594637	,	12
39,8	,	62854	,	-17461	,	-13721	,	15.43404	,	22
39,8	,	62886	,	-17456	,	-13723	,	27.133915	,	33
39,8	,	62902	,	-17453	,	-13721	,	37.257244	,	44
39,8	,	62934	,	-17450	,	-13723	,	44.720272	,	54
39,8	,	62950	,	-17453	,	-13720	,	48.910267	,	61
39,8	,	62966	,	-17457	,	-13725	,	49.65097	,	65
39,8	,	62998	,	-17456	,	-13723	,	47.147957	,	64
39,8	,	63014	,	-17466	,	-13724	,	41.94763	,	60
39,8	,	63030	,	-17449	,	-13716	,	34.88024	,	53
39,8	,	63062	,	-17458	,	-13714	,	26.991598	,	43
39,8	,	63078	,	-17444	,	-13711	,	19.319412	,	32
39,8	,	63110	,	-17443	,	-13708	,	12.688482	,	21
39,8	,	63126	,	-17443	,	-13708	,	7.6203995	,	11
39,8	,	63142	,	-17450	,	-13713	,	4.2085896	,	4
39,8	,	63174	,	-17446	,	-13713	,	2.1706934	,	0
39,8	,	63190	,	-17442	,	-13703	,	1.132843	,	0
39,8	,	63206	,	-17446	,	-13711	,	0.8025867	,	0
39,8	,	63238	,	-17444	,	-13706	,	0.92341053	,	0
39,8	,	63254	,	-17462	,	-13714	,	1.1744132	,	0
39,8	,	63270	,	-17462	,	-13716	,	1.1435202	,	0
39,8	,	63302	,	-17476	,	-13724	,	0.46062854	,	0
39,8	,	63318	,	-17475	,	-13710	,	-1.0379407	,	0
39,8	,	63350	,	-17485	,	-13715	,	-3.2726078	,	0
39,8	,	63366	,	-17487	,	-13724	,	-5.9935427	,	0
39,8	,	63382	,	-17496	,	-13726	,	-8.902129	,	0
39,8	,	63414	,	-17511	,	-13727	,	-11.786183	,	0
39,8	,	63430	,	-17497	,	-13725	,	-14.497466	,	0
39,8	,	63446	,	-17477	,	-13718	,	-16.612864	,	0
39,8	,	63478	,	-17442	,	-13695	,	-17.231224	,	0
39,8	,	63494	,	-17421	,	-13690	,	-15.298708	,	0
39,8	,	63526	,	-17398	,	-13687	,	-10.177107	,	1
39,8	,	63542	,	-17369	,	-13688	,	-1.9255381	,	6
39,8	,	63558	,	-17366	,	-13660	,	8.755333	,	14
39,8	,	63590	,	-17349	,	-13662	,	20.61775	,	24
39,8	,	63606	,	-17346	,	-13657	,	32.1467	,	35
39,8	,	63622	,	-17331	,	-13657	,	42.006294	,	46
39,8	,	63654	,	-17341	,	-13655	,	49.24848	,	55
39,9	,	63670	,	-17334	,	-13655	,	53.282154	,	62
39,9	,	63686	,	-17337	,	-13653	,	53.90718	,	66
39,9	,	63718	,	-17333	,	-13656	,	51.386024	,	65
39,9	,	63734	,	-17330	,	-13653	,	46.37565	,	60
39,9	,	63766	,	-17329	,	-13649	,	39.76506	,	52
39,9	,	63782	,	-17331	,	-13652	,	32.448048	,	42
39,9	,	63798	,	-17317	,	-13636	,	25.206005	,	31
39,9	,	63830	,	-17314	,	-13639	,	18.756962	,	20
39,9	,	63846	,	-17317	,	-13640	,	13.624731	,	11
39,9	,	63862	,	-17317	,	-13640	,	9.922148	,	4
39,9	,	63894	,	-17316	,	-13642	,	7.437231	,	0
39,9	,	63910	,	-17320	,	-13641	,	5.8500147	,	0
39,9	,	63942	,	-17328	,	-13643	,	4.7897067	,	0
39,9	,	63958	,	-17332	,	-13641	,	3.846809	,	0
39,9	,	63974	,	-17329	,	-13648	,	2.7251263	,	0
39,9	,	64006	,	-17345	,	-13646	,	1.3218911	,	0
39,9	,	64022	,	-17345	,	-13648	,	-0.4164642	,	0
39,9	,	64038	,	-17347	,	-13657	,	-2.4931788	,	0
39,9	,	64070	,	-17360	,	-13658	,	-4.784982	,	0
39,9	,	64086	,	-17372	,	-13667	,	-7.213199	,	0
39,9	,	64118	,	-17379	,	-13668	,	-9.824233	,	0
39,9	,	64134	,	-17385	,	-13670	,	-12.612749	,	0
39,9	,	64150	,	-17355	,	-13660	,	-15.251404	,	0
39,9	,	64182	,	-17325	,	-13643	,	-16.84064	,	0
39,9	,	64198	,	-17290	,	-13631	,	-16.081303	,	0
39,9	,	64214	,	-17265	,	-13624	,	-11.914772	,	0
39,9	,	64246	,	-17257	,	-13617	,	-4.1356993	,	4
39,9	,	64262	,	-17233	,	-13612	,	6.4636936	,	11
39,9	,	64278	,	-17232	,	-13614	,	18.472313	,	21
39,9	,	64310	,	-17217	,	-13595	,	30.308968	,	33
39,9	,	64326	,	-17200	,	-13595	,	40.619278	,	44
39,9	,	64357	,	-17191	,	-13589	,	48.594246	,	54
39,9	,	64374	,	-17193	,	-13580	,	53.862705	,	61
39,9	,	64389	,	-17186	,	-13586	,	56.247643	,	66
39,9	,	64422	,	-17185	,	-13590	,	55.79914	,	68
39,9	,	64438	,	-17182	,	-13589	,	52.853195	,	64
39,9	,	64454	,	-17174	,	-13583	,	47.981438	,	57
39,9	,	64486	,	-17170	,	-13585	,	41.935715	,	47
39,9	,	64501	,	-17168	,	-13588	,	35.494904	,	35
39,9	,	64534	,	-17171	,	-13595	,	29.248997	,	24
39,9	,	64550	,	-17169	,	-13569	,	23.52391	,	14
39,9	,	64566	,	-17163	,	-13583	,	18.495874	,	7
39,9	,	64597	,	-17166	,	-13586	,	14.293371	,	2
39,9	,	64613	,	-17167	,	-13587	,	10.93501	,	0
39,9	,	64629	,	-17171	,	-13586	,	8.285806	,	0
39,10	,	64662	,	-17178	,	-13588	,	6.1120257	,	0
39,10	,	64677	,	-17196	,	-13591	,	4.0717444	,	0
39,10	,	64694	,	-17195	,	-13599	,	1.7677131	,	0
39,10	,	64726	,	-17202	,	-13597	,	-0.99431896	,	0
39,10	,	64741	,	-17196	,	-13605	,	-4.0512304	,	0
39,10	,	64774	,	-17218	,	-13617	,	-7.0814314	,	0
39,10	,	64790	,	-17220	,	-13601	,	-9.923986	,	0
39,10	,	64806	,	-17238	,	-13613	,	-12.629527	,	0
39,10	,	64837	,	-17252	,	-13624	,	-15.344643	,	0
39,10	,	64853	,	-17245	,	-13629	,	-18.146679	,	0
39,10	,	64870	,	-17258	,	-13633	,	-20.845516	,	0
39,10	,	64902	,	-17244	,	-13626	,	-23.038765	,	0
39,10	,	64918	,	-17213	,	-13612	,	-24.105549	,	0
39,10	,	64949	,	-17181	,	-13602	,	-23.073364	,	0
39,10	,	64965	,	-17155	,	-13591	,	-18.959343	,	1
39,10	,	64981	,	-17135	,	-13588	,	-11.370286	,	5
39,10	,	65013	,	-17117	,	-13593	,	-0.75944614	,	12
39,10	,	65029	,	-17107	,	-13569	,	11.72278	,	22
39,10	,	65045	,	-17094	,	-13573	,	24.573513	,	34
39,10	,	65077	,	-17065	,	-13560	,	36.425022	,	46
39,10	,	65094	,	-17026	,	-13557	,	46.5766	,	57
39,10	,	65125	,	-17058	,	-13553	,	54.81407	,	67
39,10	,	65141	,	-17051	,	-13560	,	60.588036	,	75
39,10	,	65157	,	-17052	,	-13564	,	63.079613	,	79
39,10	,	65189	,	-17052	,	-13556	,	61.96623	,	77
39,10	,	65205	,	-17052	,	-13556	,	57.569363	,	70
39,10	,	65221	,	-17047	,	-13557	,	50.640823	,	60
39,10	,	65253	,	-17019	,	-13562	,	42.32907	,	48
39,10	,	65269	,	-17033	,	-13548	,	33.988724	,	36
39,10	,	65285	,	-17037	,	-13556	,	26.552248	,	25
39,10	,	65317	,	-17022	,	-13562	,	20.305618	,	15
39,10	,	65333	,	-17043	,	-13561	,	15.265823	,	7
39,10	,	65365	,	-17041	,	-13558	,	11.24316	,	2
39,10	,	65381	,	-17054	,	-13561	,	7.8324604	,	0
39,10	,	65397	,	-17048	,	-13572	,	4.691216	,	0
39,10	,	65429	,	-17056	,	-13577	,	1.7059441	,	0
39,10	,	65445	,	-17051	,	-13579	,	-1.0483658	,	0
39,10	,	65461	,	-17078	,	-13583	,	-3.5217514	,	0
39,10	,	65493	,	-17074	,	-13589	,	-5.8712497	,	0
39,10	,	65509	,	-17097	,	-13593	,	-8.337344	,	0
39,10	,	65541	,	-17107	,	-13602	,	-11.114231	,	0
39,10	,	65557	,	-17124	,	-13609	,	-14.355125	,	0
39,10	,	65573	,	-17134	,	-13617	,	-18.087608	,	0
39,10	,	65605	,	-17147	,	-13616	,	-22.160976	,	0
39,10	,	65621	,	-17145	,	-13617	,	-26.250042	,	0
39,10	,	65637	,	-17159	,	-13633	,	-29.891907	,	0
39,11	,	65669	,	-17161	,	-13629	,	-32.668785	,	0
39,11	,	65685	,	-17174	,	-13639	,	-34.36839	,	0
39,11	,	65701	,	-17192	,	-13643	,	-35.06423	,	0
39,11	,	65733	,	-17183	,	-13646	,	-35.02048	,	0
39,11	,	65749	,	-17173	,	-13650	,	-34.276184	,	0
39,11	,	65781	,	-17130	,	-13625	,	-32.316643	,	0
39,11	,	65797	,	-17071	,	-13606	,	-28.038473	,	1
39,11	,	65813	,	-17058	,	-13598	,	-20.21825	,	5
39,11	,	65845	,	-17035	,	-13597	,	-8.525894	,	12
39,11	,	65861	,	-17045	,	-13590	,	5.946702	,	23
39,11	,	65877	,	-17017	,	-13589	,	21.189247	,	37
39,11	,	65909	,	-16997	,	-13594	,	35.30416	,	52
39,11	,	65925	,	-17006	,	-13581	,	47.03904	,	66
39,11	,	65957	,	-17002	,	-13582	,	55.490334	,	77
39,11	,	65973	,	-16975	,	-13574	,	60.139164	,	85
39,11	,	65989	,	-16985	,	-13590	,	61.192192	,	88
39,11	,	66021	,	-16993	,	-13574	,	59.18184	,	85
39,11	,	66037	,	-16983	,	-13583	,	54.557762	,	78
39,11	,	66053	,	-16980	,	-13580	,	47.95233	,	67
39,11	,	66085	,	-16984	,	-13584	,	40.245136	,	53
39,11	,	66101	,	-16973	,	-13584	,	32.278107	,	38
39,11	,	66117	,	-16991	,	-13584	,	24.69899	,	24
39,11	,	66149	,	-16982	,	-13591	,	17.867226	,	13
39,11	,	66165	,	-16989	,	-13586	,	11.928372	,	5
39,11	,	66197	,	-16985	,	-13592	,	6.976672	,	1
39,11	,	66213	,	-16986	,	-13588	,	3.071639	,	0
39,11	,	66229	,	-16991	,	-13604	,	0.2005248	,	0
39,11	,	66261	,	-17003	,	-13595	,	-1.8201504	,	0
39,11	,	66277	,	-17041	,	-13612	,	-3.5256732	,	0
39,11	,	66293	,	-17040	,	-13622	,	-5.725599	,	0
39,11	,	66325	,	-17064	,	-13625	,	-8.998953	,	0
39,11	,	66341	,	-17051	,	-13632	,	-13.313574	,	0
39,11	,	66373	,	-17076	,	-13626	,	-18.136108	,	0
39,11	,	66389	,	-17079	,	-13641	,	-22.851604	,	0
39,11	,	66405	,	-17092	,	-13646	,	-27.044777	,	0
39,11	,	66437	,	-17113	,	-13646	,	-30.523632	,	0
39,11	,	66453	,	-17113	,	-13655	,	-33.289383	,	0
39,11	,	66469	,	-17125	,	-13658	,	-35.3567	,	0
39,11	,	66501	,	-17143	,	-13658	,	-36.718353	,	0
39,11	,	66517	,	-17152	,	-13670	,	-37.512573	,	0
39,11	,	66533	,	-17179	,	-13680	,	-38.01976	,	0
39,11	,	66565	,	-17182	,	-13683	,	-38.54648	,	0
39,11	,	66581	,	-17190	,	-13690	,	-39.207756	,	0
39,11	,	66613	,	-17198	,	-13696	,	-39.822594	,	0
39,11	,	66629	,	-17198	,	-13692	,	-40.080727	,	0
39,11	,	66645	,	-17182	,	-13688	,	-39.57583	,	0
39,12	,	66677	,	-17150	,	-13673	,	-37.639202	,	0
39,12	,	66693	,	-17128	,	-13665	,	-33.406685	,	1
39,12	,	66708	,	-17113	,	-13669	,	-26.303747	,	5
39,12	,	66741	,	-17106	,	-13661	,	-16.528294	,	12
39,12	,	66757	,	-17100	,	-13651	,	-5.06396	,	21
39,12	,	66789	,	-17089	,	-13659	,	6.726632	,	32
39,12	,	66805	,	-17078	,	-13657	,	17.603035	,	43
39,12	,	66821	,	-17055	,	-13650	,	26.793179	,	53
39,12	,	66853	,	-17075	,	-13653	,	33.91764	,	62
39,12	,	66869	,	-17080	,	-13656	,	38.547234	,	69
39,12	,	66885	,	-17081	,	-13649	,	40.187725	,	72
39,12	,	66916	,	-17063	,	-13652	,	38.845074	,	69
39,12	,	66933	,	-17083	,	-13647	,	35.161953	,	62
39,12	,	66965	,	-17072	,	-13655	,	29.934628	,	53
39,12	,	66981	,	-17081	,	-13666	,	23.860598	,	42
39,12	,	66997	,	-17073	,	-13641	,	17.596893	,	31
39,12	,	67028	,	-17084	,	-13653	,	11.699604	,	21
39,12	,	67045	,	-17079	,	-13656	,	6.529913	,	12
39,12	,	67061	,	-17091	,	-13657	,	2.2458973	,	5
39,12	,	67092	,	-17100	,	-13660	,	-1.2235208	,	1
39,12	,	67108	,	-17104	,	-13666	,	-4.13128	,	0
39,12	,	67125	,	-17106	,	-13666	,	-6.686947	,	0
39,12	,	67157	,	-17121	,	-13673	,	-8.974592	,	0
39,12	,	67173	,	-17128	,	-13679	,	-11.104554	,	0
39,12	,	67205	,	-17127	,	-13687	,	-13.175681	,	0
39,12	,	67221	,	-17137	,	-13691	,	-15.119061	,	0
39,12	,	67237	,	-17153	,	-13681	,	-16.851894	,	0
39,12	,	67268	,	-17166	,	-13700	,	-18.498	,	0
39,12	,	67284	,	-17182	,	-13705	,	-20.311935	,	0
39,12	,	67300	,	-17191	,	-13714	,	-22.485538	,	0
39,12	,	67333	,	-17197	,	-13714	,	-24.994537	,	0
39,12	,	67349	,	-17200	,	-13717	,	-27.543089	,	0
39,12	,	67381	,	-17217	,	-13722	,	-29.745874	,	0
39,12	,	67397	,	-17225	,	-13727	,	-31.405552	,	0
39,12	,	67413	,	-17238	,	-13726	,	-32.550198	,	0
39,12	,	67444	,	-17239	,	-13738	,	-33.25178	,	0
39,12	,	67461	,	-17252	,	-13747	,	-33.51629	,	0
39,12	,	67477	,	-17266	,	-13745	,	-33.391636	,	0
39,12	,	67508	,	-17275	,	-13748	,	-33.065315	,	0
39,12	,	67524	,	-17269	,	-13750	,	-32.66397	,	0
39,12	,	67541	,	-17254	,	-13739	,	-31.946285	,	0
39,12	,	67572	,	-17226	,	-13737	,	-30.234324	,	0
39,12	,	67588	,	-17221	,	-13734	,	-26.734638	,	1
39,12	,	67620	,	-17212	,	-13729	,	-21.101086	,	4
39,12	,	67637	,	-17210	,	-13723	,	-13.702764	,	9
39,12	,	67652	,	-17200	,	-13729	,	-5.38317	,	16
39,13	,	67684	,	-17202	,	-13723	,	2.9040241	,	24
39,13	,	67700	,	-17199	,	-13729	,	10.28844	,	32
39,13	,	67717	,	-17201	,	-13729	,	16.07765	,	39
39,13	,	67749	,	-17205	,	-13721	,	19.828459	,	44
39,13	,	67764	,	-17214	,	-13726	,	21.333706	,	47
39,13	,	67796	,	-17219	,	-13730	,	20.590927	,	47
39,13	,	67812	,	-17213	,	-13729	,	17.889389	,	44
39,13	,	67828	,	-17220	,	-13728	,	13.84348	,	39
39,13	,	67861	,	-17218	,	-13730	,	9.179923	,	32
39,13	,	67877	,	-17220	,	-13732	,	4.537359	,	24
39,13	,	67892	,	-17218	,	-13729	,	0.42549658	,	16
39,13	,	67924	,	-17213	,	-13729	,	-2.7797494	,	9
39,13	,	67940	,	-17219	,	-13735	,	-4.8679104	,	4
39,13	,	67956	,	-17228	,	-13744	,	-5.914972	,	1
39,13	,	67988	,	-17239	,	-13730	,	-6.328437	,	0
39,13	,	68004	,	-17249	,	-13741	,	-6.669702	,	0
39,13	,	68036	,	-17260	,	-13743	,	-7.43091	,	0
39,13	,	68052	,	-17262	,	-13747	,	-8.871432	,	0
39,13	,	68068	,	-17257	,	-13746	,	-10.873381	,	0
39,13	,	68100	,	-17275	,	-13758	,	-13.038104	,	0
39,13	,	68116	,	-17293	,	-13755	,	-15.134222	,	0
39,13	,	68132	,	-17292	,	-13760	,	-17.242691	,	0
39,13	,	68164	,	-17305	,	-13760	,	-19.405579	,	0
39,13	,	68180	,	-17307	,	-13775	,	-21.483984	,	0
39,13	,	68212	,	-17321	,	-13786	,	-23.310806	,	0
39,13	,	68228	,	-17328	,	-13764	,	-24.802904	,	0
39,13	,	68244	,	-17345	,	-13781	,	-26.006065	,	0
39,13	,	68276	,	-17349	,	-13787	,	-27.048176	,	0
39,13	,	68292	,	-17355	,	-13786	,	-27.983147	,	0
39,13	,	68308	,	-17368	,	-13796	,	-28.7442	,	0
39,13	,	68340	,	-17370	,	-13801	,	-29.26389	,	0
39,13	,	68356	,	-17386	,	-13801	,	-29.52977	,	0
39,13	,	68388	,	-17389	,	-13810	,	-29.581148	,	0
39,13	,	68404	,	-17395	,	-13806	,	-29.45853	,	0
39,13	,	68420	,	-17391	,	-13805	,	-29.083302	,	0
39,13	,	68452	,	-17377	,	-13808	,	-28.172619	,	0
39,13	,	68468	,	-17357	,	-13782	,	-26.22393	,	0
39,13	,	68484	,	-17328	,	-13772	,	-22.599287	,	1
39,13	,	68516	,	-17329	,	-13770	,	-16.84858	,	4
39,13	,	68532	,	-17324	,	-13770	,	-9.190568	,	9
39,13	,	68548	,	-17314	,	-13767	,	-0.518898	,	16
39,13	,	68580	,	-17312	,	-13767	,	8.106351	,	24
39,13	,	68596	,	-17306	,	-13765	,	15.788147	,	32
39,13	,	68628	,	-17308	,	-13757	,	21.850811	,	39
39,13	,	68644	,	-17302	,	-13765	,	25.881912	,	45
39,14	,	68660	,	-17307	,	-13762	,	27.762611	,	49
39,14	,	68692	,	-17310	,	-13764	,	27.585995	,	49
39,14	,	68708	,	-17311	,	-13755	,	25.572994	,	46
39,14	,	68724	,	-17310	,	-13762	,	22.114979	,	41
39,14	,	68756	,	-17302	,	-13769	,	17.801422	,	34
39,14	,	68772	,	-17312	,	-13767	,	13.283264	,	26
39,14	,	68804	,	-17323	,	-13769	,	8.973499	,	18
39,14	,	68820	,	-17318	,	-13769	,	4.973051	,	11
39,14	,	68836	,	-17318	,	-13765	,	1.3726602	,	5
39,14	,	68868	,	-17327	,	-13769	,	-1.6590543	,	1
39,14	,	68884	,	-17328	,	-13767	,	-4.0728984	,	0
39,14	,	68900	,	-17335	,	-13771	,	-5.956149	,	0
39,14	,	68932	,	-17336	,	-13775	,	-7.426327	,	0
39,14	,	68948	,	-17347	,	-13774	,	-8.609635	,	0
39,14	,	68964	,	-17341	,	-13770	,	-9.609803	,	0
39,14	,	68996	,	-17360	,	-13777	,	-10.480402	,	0
39,14	,	69012	,	-17372	,	-13782	,	-11.370686	,	0
39,14	,	69044	,	-17370	,	-13787	,	-12.522171	,	0
39,14	,	69060	,	-17381	,	-13785	,	-13.991236	,	0
39,14	,	69076	,	-17387	,	-13791	,	-15.638931	,	0
39,14	,	69108	,	-17394	,	-13795	,	-17.314587	,	0
39,14	,	69124	,	-17404	,	-13798	,	-18.903027	,	0
39,14	,	69140	,	-17405	,	-13800	,	-20.31497	,	0
39,14	,	69172	,	-17418	,	-13805	,	-21.477459	,	0
39,14	,	69188	,	-17424	,	-13816	,	-22.376202	,	0
39,14	,	69219	,	-17433	,	-13809	,	-23.070183	,	0
39,14	,	69236	,	-17448	,	-13811	,	-23.664753	,	0
39,14	,	69251	,	-17457	,	-13823	,	-24.318863	,	0
39,14	,	69284	,	-17454	,	-13826	,	-25.104366	,	0
39,14	,	69300	,	-17475	,	-13826	,	-25.906784	,	0
39,14	,	69316	,	-17474	,	-13836	,	-26.609966	,	0
39,14	,	69348	,	-17455	,	-13823	,	-27.025486	,	0
39,14	,	69364	,	-17425	,	-13817	,	-26.51915	,	0
39,14	,	69380	,	-17402	,	-13806	,	-24.08712	,	0
39,14	,	69411	,	-17394	,	-13800	,	-18.992626	,	2
39,14	,	69427	,	-17387	,	-13803	,	-11.334408	,	7
39,14	,	69460	,	-17370	,	-13777	,	-1.9681988	,	14
39,14	,	69476	,	-17363	,	-13786	,	8.012562	,	23
39,14	,	69492	,	-17359	,	-13782	,	17.567305	,	32
39,14	,	69524	,	-17355	,	-13779	,	25.76042	,	41
39,14	,	69540	,	-17343	,	-13774	,	31.925688	,	49
39,14	,	69556	,	-17345	,	-13773	,	35.800648	,	55
39,14	,	69587	,	-17352	,	-13778	,	37.355663	,	58
39,14	,	69603	,	-17359	,	-13773	,	36.583023	,	57
39,14	,	69635	,	-17353	,	-13774	,	33.613113	,	52
39,14	,	69652	,	-17348	,	-13774	,	28.943998	,	45
39,15	,	69668	,	-17343	,	-13781	,	23.40204	,	36
39,15	,	69700	,	-17353	,	-13762	,	17.808613	,	27
39,15	,	69716	,	-17344	,	-13768	,	12.703889	,	18
39,15	,	69731	,	-17350	,	-13768	,	8.379848	,	10
39,15	,	69763	,	-17349	,	-13767	,	4.958357	,	4
39,15	,	69779	,	-17346	,	-13766	,	2.4213657	,	1
39,15	,	69812	,	-17351	,	-13764	,	0.69224	,	0
39,15	,	69828	,	-17355	,	-13774	,	-0.38297892	,	0
39,15	,	69843	,	-17366	,	-13770	,	-1.1013657	,	0
39,15	,	69875	,	-17369	,	-13770	,	-1.8393426	,	0
39,15	,	69891	,	-17374	,	-13777	,	-2.875215	,	0
39,15	,	69907	,	-17379	,	-13782	,	-4.284769	,	0
39,15	,	69939	,	-17383	,	-13777	,	-5.9967947	,	0
39,15	,	69955	,	-17396	,	-13781	,	-7.9063826	,	0
39,15	,	69971	,	-17407	,	-13787	,	-9.994637	,	0
39,15	,	70004	,	-17417	,	-13791	,	-12.331859	,	0
39,15	,	70019	,	-17422	,	-13788	,	-14.9270935	,	0
39,15	,	70051	,	-17433	,	-13789	,	-17.644466	,	0
39,15	,	70068	,	-17435	,	-13800	,	-20.261576	,	0
39,15	,	70083	,	-17445	,	-13803	,	-22.545189	,	0
39,15	,	70115	,	-17450	,	-13796	,	-24.316502	,	0
39,15	,	70131	,	-17454	,	-13802	,	-25.473583	,	0
39,15	,	70147	,	-17456	,	-13810	,	-25.944817	,	0
39,15	,	70180	,	-17470	,	-13802	,	-25.735844	,	0
39,15	,	70196	,	-17474	,	-13815	,	-25.03202	,	0
39,15	,	70227	,	-17488	,	-13821	,	-24.14107	,	0
39,15	,	70244	,	-17469	,	-13817	,	-23.245476	,	0
39,15	,	70259	,	-17448	,	-13806	,	-22.059563	,	0
39,15	,	70291	,	-17420	,	-13792	,	-19.77903	,	1
39,15	,	70307	,	-17402	,	-13783	,	-15.537834	,	3
39,15	,	70323	,	-17388	,	-13772	,	-8.957985	,	7
39,15	,	70355	,	-17386	,	-13776	,	-0.4144287	,	13
39,15	,	70371	,	-17381	,	-13769	,	9.062331	,	21
39,15	,	70388	,	-17372	,	-13767	,	18.204031	,	30
39,15	,	70419	,	-17358	,	-13773	,	26.010332	,	39
39,15	,	70436	,	-17360	,	-13752	,	31.941872	,	46
39,15	,	70467	,	-17352	,	-13755	,	35.7632	,	51
39,15	,	70483	,	-17353	,	-13761	,	37.427406	,	53
39,15	,	70499	,	-17363	,	-13763	,	37.008297	,	52
39,15	,	70531	,	-17360	,	-13757	,	34.622074	,	48
39,15	,	70547	,	-17355	,	-13757	,	30.577501	,	42
39,15	,	70563	,	-17357	,	-13750	,	25.480606	,	34
39,15	,	70595	,	-17347	,	-13746	,	20.056105	,	25
39,15	,	70611	,	-17349	,	-13751	,	14.970449	,	16
39,15	,	70643	,	-17347	,	-13747	,	10.691628	,	9
39,15	,	70659	,	-17343	,	-13755	,	7.423007	,	4
39,16	,	70675	,	-17347	,	-13738	,	5.172992	,	1
39,16	,	70707	,	-17341	,	-13747	,	3.8142705	,	0
39,16	,	70723	,	-17345	,	-13750	,	3.144741	,	0
39,16	,	70739	,	-17354	,	-13749	,	2.8847091	,	0
39,16	,	70771	,	-17364	,	-13754	,	2.6151834	,	0
39,16	,	70787	,	-17365	,	-13758	,	1.9135029	,	0
39,16	,	70803	,	-17368	,	-13752	,	0.6001743	,	0
39,16	,	70835	,	-17376	,	-13755	,	-1.244334	,	0
39,16	,	70851	,	-17380	,	-13766	,	-3.4545283	,	0
39,16	,	70883	,	-17388	,	-13760	,	-5.8746233	,	0
39,16	,	70899	,	-17391	,	-13775	,	-8.354378	,	0
39,16	,	70915	,	-17404	,	-13767	,	-10.771153	,	0
39,16	,	70947	,	-17415	,	-13772	,	-13.101629	,	0
39,16	,	70963	,	-17417	,	-13783	,	-15.380777	,	0
39,16	,	70979	,	-17436	,	-13778	,	-17.605515	,	0
39,16	,	71011	,	-17439	,	-13788	,	-19.775764	,	0
39,16	,	71027	,	-17448	,	-13787	,	-21.866339	,	0
39,16	,	71059	,	-17448	,	-13785	,	-23.724255	,	0
39,16	,	71075	,	-17455	,	-13790	,	-25.115498	,	0
39,16	,	71091	,	-17469	,	-13787	,	-25.904804	,	0
39,16	,	71123	,	-17475	,	-13795	,	-26.183208	,	0
39,16	,	71139	,	-17477	,	-13797	,	-26.127125	,	0
39,16	,	71155	,	-17454	,	-13789	,	-25.671171	,	0
39,16	,	71187	,	-17432	,	-13772	,	-24.291813	,	0
39,16	,	71203	,	-17374	,	-13756	,	-21.017094	,	1
39,16	,	71219	,	-17370	,	-13752	,	-14.827931	,	4
39,16	,	71251	,	-17357	,	-13745	,	-5.5064583	,	10
39,16	,	71267	,	-17351	,	-13744	,	5.9746923	,	19
39,16	,	71299	,	-17348	,	-13741	,	17.980877	,	30
39,16	,	71315	,	-17342	,	-13738	,	28.866547	,	42
39,16	,	71331	,	-17345	,	-13736	,	37.343548	,	52
39,16	,	71363	,	-17338	,	-13733	,	42.653355	,	60
39,16	,	71379	,	-17339	,	-13732	,	44.613907	,	65
39,16	,	71395	,	-17340	,	-13741	,	43.515884	,	65
39,16	,	71427	,	-17350	,	-13725	,	39.873486	,	62
39,16	,	71443	,	-17341	,	-13729	,	34.305214	,	56
39,16	,	71475	,	-17337	,	-13729	,	27.621157	,	47
39,16	,	71491	,	-17337	,	-13729	,	20.760138	,	36
39,16	,	71507	,	-17340	,	-13727	,	14.473618	,	24
39,16	,	71539	,	-17338	,	-13732	,	9.158468	,	14
39,16	,	71555	,	-17333	,	-13726	,	4.989379	,	6
39,16	,	71571	,	-17336	,	-13732	,	2.0378618	,	1
39,16	,	71603	,	-17332	,	-13726	,	0.24465847	,	0
39,16	,	71619	,	-17336	,	-13729	,	-0.5776682	,	0
39,16	,	71635	,	-17349	,	-13738	,	-0.7612985	,	0
39,17	,	71667	,	-17356	,	-13722	,	-0.82250774	,	0
39,17	,	71683	,	-17360	,	-13736	,	-1.2708019	,	0
39,17	,	71715	,	-17373	,	-13738	,	-2.3873947	,	0
39,17	,	71731	,	-17379	,	-13739	,	-4.2508206	,	0
39,17	,	71747	,	-17389	,	-13747	,	-6.802167	,	0
39,17	,	71779	,	-17391	,	-13742	,	-9.835932	,	0
39,17	,	71795	,	-17403	,	-13749	,	-13.049062	,	0
39,17	,	71811	,	-17400	,	-13749	,	-16.121117	,	0
39,17	,	71843	,	-17422	,	-13761	,	-18.796818	,	0
39,17	,	71859	,	-17419	,	-13756	,	-20.978563	,	0
39,17	,	71891	,	-17435	,	-13764	,	-22.67915	,	0
39,17	,	71907	,	-17441	,	-13756	,	-23.950958	,	0
39,17	,	71923	,	-17447	,	-13773	,	-24.875553	,	0
39,17	,	71955	,	-17457	,	-13777	,	-25.509464	,	0
39,17	,	71971	,	-17463	,	-13777	,	-25.897753	,	0
39,17	,	71987	,	-17462	,	-13783	,	-26.052532	,	0
39,17	,	72018	,	-17455	,	-13775	,	-25.81517	,	0
39,17	,	72034	,	-17424	,	-13758	,	-24.732365	,	0
39,17	,	72067	,	-17404	,	-13746	,	-22.069626	,	1
39,17	,	72083	,	-17389	,	-13737	,	-17.18198	,	3
39,17	,	72099	,	-17366	,	-13734	,	-9.942747	,	7
39,17	,	72131	,	-17358	,	-13734	,	-0.7863512	,	14
39,17	,	72147	,	-17356	,	-13722	,	9.38055	,	23
39,17	,	72163	,	-17350	,	-13728	,	19.322035	,	33
39,17	,	72195	,	-17353	,	-13730	,	27.811665	,	42
39,17	,	72211	,	-17352	,	-13730	,	33.913315	,	50
39,17	,	72226	,	-17356	,	-13726	,	37.100655	,	56
39,17	,	72258	,	-17363	,	-13732	,	37.263638	,	58
39,17	,	72274	,	-17368	,	-13736	,	34.62233	,	56
39,17	,	72307	,	-17369	,	-13736	,	29.68029	,	52
39,17	,	72323	,	-17366	,	-13730	,	23.218414	,	45
39,17	,	72339	,	-17366	,	-13726	,	16.193226	,	36
39,17	,	72371	,	-17362	,	-13728	,	9.526131	,	26
39,17	,	72387	,	-17361	,	-13721	,	3.9186478	,	17
39,17	,	72403	,	-17365	,	-13725	,	-0.25005865	,	9
39,17	,	72434	,	-17365	,	-13727	,	-2.9460826	,	3
39,17	,	72451	,	-17364	,	-13722	,	-4.3688745	,	0
39,17	,	72482	,	-17374	,	-13722	,	-4.835307	,	0
39,17	,	72499	,	-17370	,	-13727	,	-4.729183	,	0
39,17	,	72515	,	-17377	,	-13725	,	-4.394846	,	0
39,17	,	72546	,	-17384	,	-13729	,	-4.1097803	,	0
39,17	,	72562	,	-17392	,	-13732	,	-4.1487856	,	0
39,17	,	72578	,	-17401	,	-13731	,	-4.7478704	,	0
39,17	,	72610	,	-17402	,	-13740	,	-5.9986663	,	0
39,17	,	72626	,	-17419	,	-13744	,	-7.8321147	,	0
39,17	,	72642	,	-17419	,	-13742	,	-10.1173115	,	0
39,18	,	72674	,	-17434	,	-13750	,	-12.696311	,	0
39,18	,	72691	,	-17444	,	-13753	,	-15.416203	,	0
39,18	,	72722	,	-17449	,	-13755	,	-18.171532	,	0
39,18	,	72738	,	-17454	,	-13753	,	-20.802025	,	0
39,18	,	72754	,	-17468	,	-13759	,	-23.098265	,	0
39,18	,	72786	,	-17477	,	-13764	,	-24.973156	,	0
39,18	,	72802	,	-17467	,	-13759	,	-26.38509	,	0
39,18	,	72819	,	-17446	,	-13749	,	-26.991055	,	0
39,18	,	72851	,	-17411	,	-13744	,	-25.988928	,	0
39,18	,	72866	,	-17379	,	-13734	,	-22.366835	,	1
39,18	,	72898	,	-17375	,	-13713	,	-15.5119705	,	4
39,18	,	72914	,	-17344	,	-13718	,	-5.6975927	,	10
39,18	,	72930	,	-17343	,	-13713	,	6.0706816	,	19
39,18	,	72962	,	-17349	,	-13716	,	18.330837	,	30
39,18	,	72978	,	-17352	,	-13713	,	29.324287	,	42
39,18	,	72994	,	-17347	,	-13711	,	37.50829	,	52
39,18	,	73027	,	-17344	,	-13710	,	42.097557	,	60
39,18	,	73042	,	-17363	,	-13718	,	43.020206	,	64
39,18	,	73058	,	-17359	,	-13713	,	40.558647	,	63
39,18	,	73090	,	-17369	,	-13718	,	35.271706	,	60
39,18	,	73106	,	-17366	,	-13724	,	28.020922	,	54
39,18	,	73138	,	-17363	,	-13698	,	19.853863	,	45
39,18	,	73154	,	-17348	,	-13706	,	11.917871	,	34
39,18	,	73170	,	-17349	,	-13707	,	5.2866764	,	22
39,18	,	73202	,	-17358	,	-13706	,	0.57986546	,	12
39,18	,	73218	,	-17358	,	-13712	,	-2.237124	,	4
39,18	,	73234	,	-17361	,	-13716	,	-3.5953772	,	0
39,18	,	73266	,	-17363	,	-13712	,	-3.9894223	,	0
39,18	,	73282	,	-17370	,	-13713	,	-3.8765235	,	0
39,18	,	73314	,	-17370	,	-13720	,	-3.6522589	,	0
39,18	,	73330	,	-17378	,	-13717	,	-3.602168	,	0
39,18	,	73346	,	-17387	,	-13730	,	-3.9261863	,	0
39,18	,	73378	,	-17393	,	-13717	,	-4.7811165	,	0
39,18	,	73394	,	-17396	,	-13729	,	-6.202932	,	0
39,18	,	73410	,	-17409	,	-13731	,	-8.086098	,	0
39,18	,	73442	,	-17425	,	-13737	,	-10.350697	,	0
39,18	,	73458	,	-17420	,	-13744	,	-12.956513	,	0
39,18	,	73474	,	-17436	,	-13743	,	-15.724806	,	0
39,18	,	73506	,	-17451	,	-13752	,	-18.452196	,	0
39,18	,	73522	,	-17448	,	-13753	,	-21.05587	,	0
39,18	,	73554	,	-17447	,	-13744	,	-23.334702	,	0
39,18	,	73570	,	-17420	,	-13736	,	-24.750942	,	0
39,18	,	73586	,	-17383	,	-13727	,	-24.390188	,	0
39,18	,	73618	,	-17363	,	-13718	,	-21.199648	,	0
39,18	,	73634	,	-17344	,	-13708	,	-14.625165	,	3
39,18	,	73650	,	-17325	,	-13699	,	-4.9940443	,	9
39,19	,	73682	,	-17321	,	-13695	,	6.6424446	,	18
39,19	,	73698	,	-17312	,	-13691	,	18.80724	,	29
39,19	,	73730	,	-17315	,	-13687	,	29.926567	,	41
39,19	,	73746	,	-17302	,	-13685	,	38.704887	,	52
39,19	,	73762	,	-17308	,	-13683	,	44.384773	,	60
39,19	,	73794	,	-17311	,	-13682	,	46.700615	,	65
39,19	,	73810	,	-17309	,	-13678	,	45.741337	,	67
39,19	,	73826	,	-17307	,	-13680	,	41.988815	,	64
39,19	,	73858	,	-17308	,	-13684	,	36.26184	,	58
39,19	,	73874	,	-17307	,	-13666	,	29.469582	,	49
39,19	,	73906	,	-17300	,	-13677	,	22.45947	,	38
39,19	,	73922	,	-17295	,	-13671	,	16.0007	,	26
39,19	,	73938	,	-17290	,	-13671	,	10.718765	,	15
39,19	,	73970	,	-17300	,	-13673	,	6.918833	,	7
39,19	,	73986	,	-17303	,	-13671	,	4.459054	,	2
39,19	,	74002	,	-17299	,	-13671	,	2.9249763	,	0
39,19	,	74034	,	-17292	,	-13673	,	1.999496	,	0
39,19	,	74050	,	-17308	,	-13677	,	1.5161126	,	0
39,19	,	74066	,	-17303	,	-13675	,	1.2358565	,	0
39,19	,	74098	,	-17312	,	-13683	,	0.87306434	,	0
39,19	,	74114	,	-17322	,	-13674	,	0.20261908	,	0
39,19	,	74146	,	-17331	,	-13684	,	-0.99528545	,	0
39,19	,	74162	,	-17341	,	-13687	,	-2.893116	,	0
39,19	,	74178	,	-17359	,	-13694	,	-5.559894	,	0
39,19	,	74210	,	-17351	,	-13692	,	-8.91624	,	0
39,19	,	74226	,	-17363	,	-13692	,	-12.606778	,	0
39,19	,	74242	,	-17375	,	-13698	,	-16.169825	,	0
39,19	,	74274	,	-17365	,	-13695	,	-19.270748	,	0
39,19	,	74290	,	-17346	,	-13685	,	-21.465183	,	0
39,19	,	74322	,	-17305	,	-13668	,	-21.908892	,	0
39,19	,	74338	,	-17284	,	-13660	,	-19.546238	,	0
39,19	,	74354	,	-17262	,	-13650	,	-13.724357	,	2
39,19	,	74386	,	-17251	,	-13648	,	-4.675996	,	7
39,19	,	74402	,	-17228	,	-13636	,	6.598398	,	16
39,19	,	74418	,	-17219	,	-13636	,	18.781559	,	27
39,19	,	74450	,	-17210	,	-13630	,	30.534084	,	39
39,19	,	74466	,	-17208	,	-13631	,	40.611744	,	50
39,19	,	74482	,	-17203	,	-13629	,	48.026115	,	60
39,19	,	74514	,	-17202	,	-13621	,	52.2117	,	67
39,19	,	74530	,	-17208	,	-13631	,	53.03016	,	71
39,19	,	74562	,	-17207	,	-13623	,	50.67756	,	69
39,19	,	74578	,	-17203	,	-13626	,	45.68704	,	64
39,19	,	74594	,	-17204	,	-13619	,	38.90126	,	55
39,19	,	74626	,	-17198	,	-13624	,	31.282015	,	44
39,19	,	74642	,	-17194	,	-13619	,	23.743324	,	32
39,20	,	74658	,	-17190	,	-13615	,	17.047081	,	21
39,20	,	74690	,	-17193	,	-13615	,	11.67173	,	11
39,20	,	74706	,	-17190	,	-13619	,	7.7456646	,	4
39,20	,	74737	,	-17201	,	-13620	,	5.0927386	,	0
39,20	,	74753	,	-17199	,	-13621	,	3.3349557	,	0
39,20	,	74769	,	-17199	,	-13624	,	2.0959918	,	0
39,20	,	74802	,	-17211	,	-13628	,	1.1095042	,	0
39,20	,	74818	,	-17215	,	-13626	,	0.10465491	,	0
39,20	,	74834	,	-17213	,	-13638	,	-1.1418962	,	0
39,20	,	74866	,	-17230	,	-13629	,	-2.6876156	,	0
39,20	,	74882	,	-17247	,	-13642	,	-4.623468	,	0
39,20	,	74898	,	-17253	,	-13640	,	-7.1576867	,	0
39,20	,	74929	,	-17254	,	-13655	,	-10.307862	,	0
39,20	,	74945	,	-17265	,	-13657	,	-13.761429	,	0
39,20	,	74977	,	-17273	,	-13647	,	-17.128805	,	0
39,20	,	74993	,	-17267	,	-13653	,	-20.08582	,	0
39,20	,	75010	,	-17244	,	-13644	,	-22.150742	,	0
39,20	,	75042	,	-17202	,	-13632	,	-22.430668	,	0
39,20	,	75058	,	-17175	,	-13614	,	-19.783272	,	0
39,20	,	75073	,	-17157	,	-13619	,	-13.481008	,	2
39,20	,	75105	,	-17146	,	-13597	,	-3.79426	,	8
39,20	,	75121	,	-17123	,	-13595	,	8.130071	,	17
39,20	,	75153	,	-17114	,	-13592	,	20.831451	,	28
39,20	,	75170	,	-17106	,	-13582	,	32.88834	,	40
39,20	,	75185	,	-17097	,	-13585	,	43.064304	,	52
39,20	,	75217	,	-17092	,	-13582	,	50.493675	,	62
39,20	,	75233	,	-17091	,	-13573	,	54.74958	,	69
39,20	,	75249	,	-17065	,	-13579	,	55.880653	,	73
39,20	,	75281	,	-17093	,	-13580	,	54.33288	,	72
39,20	,	75297	,	-17088	,	-13581	,	50.51805	,	66
39,20	,	75329	,	-17086	,	-13583	,	44.75411	,	57
39,20	,	75346	,	-17084	,	-13565	,	37.6254	,	46
39,20	,	75361	,	-17072	,	-13576	,	29.989597	,	34
39,20	,	75393	,	-17075	,	-13575	,	22.734488	,	22
39,20	,	75409	,	-17081	,	-13575	,	16.473118	,	12
39,20	,	75425	,	-17076	,	-13584	,	11.394634	,	5
39,20	,	75457	,	-17074	,	-13582	,	7.486141	,	1
39,20	,	75473	,	-17087	,	-13577	,	4.645193	,	0
39,20	,	75490	,	-17093	,	-13586	,	2.5487967	,	0
39,20	,	75521	,	-17099	,	-13589	,	0.7384894	,	0
39,20	,	75537	,	-17100	,	-13595	,	-1.1074877	,	0
39,20	,	75569	,	-17109	,	-13597	,	-3.087339	,	0
39,20	,	75585	,	-17126	,	-13597	,	-5.243495	,	0
39,20	,	75601	,	-17138	,	-13607	,	-7.730022	,	0
39,20	,	75633	,	-17147	,	-13614	,	-10.713047	,	0
39,20	,	75649	,	-17151	,	-13618	,	-14.144047	,	0
39,21	,	75665	,	-17159	,	-13625	,	-17.722591	,	0
39,21	,	75697	,	-17170	,	-13630	,	-21.083519	,	0
39,21	,	75713	,	-17174	,	-13635	,	-23.962223	,	0
39,21	,	75745	,	-17180	,	-13638	,	-26.178892	,	0
39,21	,	75761	,	-17157	,	-13618	,	-27.473785	,	0
39,21	,	75777	,	-17126	,	-13614	,	-27.249962	,	0
39,21	,	75809	,	-17089	,	-13595	,	-24.546257	,	0
39,21	,	75825	,	-17075	,	-13591	,	-18.546173	,	2
39,21	,	75841	,	-17065	,	-13588	,	-9.269157	,	8
39,21	,	75873	,	-17042	,	-13579	,	2.3290558	,	17
39,21	,	75889	,	-17022	,	-13576	,	14.941784	,	28
39,21	,	75905	,	-16996	,	-13572	,	27.442806	,	40
39,21	,	75937	,	-16977	,	-13571	,	39.0216	,	52
39,21	,	75953	,	-16982	,	-13567	,	49.00019	,	63
39,21	,	75985	,	-16980	,	-13566	,	56.57456	,	72
39,21	,	76001	,	-16995	,	-13571	,	60.883495	,	79
39,21	,	76017	,	-16990	,	-13567	,	61.342285	,	81
39,21	,	76049	,	-17001	,	-13568	,	57.928474	,	75
39,21	,	76065	,	-17002	,	-13574	,	51.200905	,	66
39,21	,	76081	,	-16996	,	-13567	,	42.145668	,	55
39,21	,	76113	,	-16978	,	-13575	,	32.1074	,	43
39,21	,	76129	,	-16976	,	-13567	,	22.588888	,	31
39,21	,	76161	,	-16979	,	-13572	,	14.738235	,	20
39,21	,	76177	,	-17000	,	-13575	,	8.890475	,	11
39,21	,	76193	,	-17008	,	-13578	,	4.586899	,	4
39,21	,	76225	,	-16992	,	-13583	,	1.1837659	,	0
39,21	,	76241	,	-17010	,	-13583	,	-1.6022277	,	0
39,21	,	76257	,	-17022	,	-13591	,	-3.9189937	,	0
39,21	,	76289	,	-17022	,	-13589	,	-6.060218	,	0
39,21	,	76305	,	-17045	,	-13605	,	-8.295999	,	0
39,21	,	76321	,	-17051	,	-13588	,	-10.827325	,	0
39,21	,	76353	,	-17077	,	-13610	,	-13.847071	,	0
39,21	,	76369	,	-17075	,	-13612	,	-17.433493	,	0
39,21	,	76401	,	-17087	,	-13620	,	-21.380041	,	0
39,21	,	76417	,	-17101	,	-13623	,	-25.275724	,	0
39,21	,	76433	,	-17109	,	-13629	,	-28.793308	,	0
39,21	,	76465	,	-17121	,	-13637	,	-31.752306	,	0
39,21	,	76481	,	-17126	,	-13640	,	-34.032516	,	0
39,21	,	76497	,	-17138	,	-13641	,	-35.55612	,	0
39,21	,	76529	,	-17143	,	-13643	,	-36.307823	,	0
39,21	,	76545	,	-17142	,	-13653	,	-36.285583	,	0
39,21	,	76577	,	-17118	,	-13622	,	-35.294262	,	0
39,21	,	76593	,	-17052	,	-13612	,	-32.584976	,	0
39,21	,	76609	,	-17037	,	-13610	,	-26.90385	,	2
39,21	,	76641	,	-17029	,	-13606	,	-17.537504	,	7
39,21	,	76657	,	-17015	,	-13597	,	-5.150757	,	16
39,22	,	76673	,	-16998	,	-13592	,	8.70108	,	28
39,22	,	76705	,	-16982	,	-13591	,	22.427376	,	41
39,22	,	76721	,	-16986	,	-13595	,	34.692963	,	54
39,22	,	76753	,	-16970	,	-13587	,	44.417305	,	66
39,22	,	76769	,	-16952	,	-13588	,	51.0114	,	75
39,22	,	76785	,	-16984	,	-13594	,	54.372494	,	81
39,22	,	76817	,	-16970	,	-13592	,	54.440845	,	82
39,22	,	76833	,	-16979	,	-13593	,	51.288033	,	77
39,22	,	76849	,	-16961	,	-13594	,	45.518234	,	68
39,22	,	76881	,	-16982	,	-13592	,	38.11433	,	56
39,22	,	76896	,	-16963	,	-13592	,	30.036406	,	43
39,22	,	76913	,	-16965	,	-13596	,	22.148596	,	30
39,22	,	76945	,	-16996	,	-13591	,	15.057152	,	18
39,22	,	76961	,	-16972	,	-13599	,	8.87335	,	9
39,22	,	76993	,	-16988	,	-13595	,	3.5865297	,	3
39,22	,	77009	,	-16974	,	-13607	,	-0.64563704	,	0
39,22	,	77025	,	-16994	,	-13605	,	-3.7353387	,	0
39,22	,	77057	,	-16990	,	-13610	,	-5.8350163	,	0
39,22	,	77073	,	-17021	,	-13617	,	-7.348673	,	0
39,22	,	77089	,	-17050	,	-13630	,	-8.986783	,	0
39,22	,	77120	,	-17059	,	-13633	,	-11.587889	,	0
39,22	,	77136	,	-17071	,	-13632	,	-15.544907	,	0
39,22	,	77169	,	-17080	,	-13637	,	-20.571335	,	0
39,22	,	77184	,	-17076	,	-13641	,	-25.948296	,	0
39,22	,	77201	,	-17092	,	-13656	,	-30.819246	,	0
39,22	,	77233	,	-17110	,	-13655	,	-34.608257	,	0
39,22	,	77249	,	-17120	,	-13663	,	-37.2485	,	0
39,22	,	77265	,	-17117	,	-13668	,	-38.86286	,	0
39,22	,	77296	,	-17139	,	-13677	,	-39.494904	,	0
39,22	,	77313	,	-17137	,	-13667	,	-39.241226	,	0
39,22	,	77329	,	-17171	,	-13685	,	-38.388206	,	0
39,22	,	77361	,	-17179	,	-13689	,	-37.429874	,	0
39,22	,	77376	,	-17187	,	-13695	,	-36.83347	,	0
39,22	,	77408	,	-17177	,	-13698	,	-36.61335	,	0
39,22	,	77424	,	-17166	,	-13677	,	-36.220306	,	0
39,22	,	77440	,	-17131	,	-13671	,	-34.71734	,	0
39,22	,	77472	,	-17111	,	-13665	,	-31.049463	,	1
39,22	,	77488	,	-17109	,	-13657	,	-24.598932	,	4
39,22	,	77504	,	-17088	,	-13656	,	-15.630808	,	10
39,22	,	77537	,	-17091	,	-13666	,	-5.0972805	,	18
39,22	,	77553	,	-17086	,	-13650	,	5.73468	,	28
39,22	,	77585	,	-17074	,	-13649	,	15.611458	,	38
39,22	,	77601	,	-17067	,	-13654	,	23.684992	,	47
39,22	,	77617	,	-17075	,	-13650	,	29.527985	,	55
39,22	,	77648	,	-17079	,	-13648	,	32.848442	,	60
39,23	,	77664	,	-17082	,	-13645	,	33.47081	,	62
39,23	,	77680	,	-17088	,	-13657	,	31.512522	,	59
39,23	,	77713	,	-17086	,	-13654	,	27.420113	,	53
39,23	,	77729	,	-17091	,	-13652	,	21.88058	,	45
39,23	,	77745	,	-17087	,	-13654	,	15.686922	,	35
39,23	,	77776	,	-17085	,	-13664	,	9.616329	,	25
39,23	,	77793	,	-17093	,	-13650	,	4.2885675	,	16
39,23	,	77825	,	-17094	,	-13656	,	0.010271072	,	8
39,23	,	77840	,	-17086	,	-13669	,	-3.1441026	,	3
39,23	,	77857	,	-17106	,	-13666	,	-5.2232485	,	0
39,23	,	77889	,	-17122	,	-13671	,	-6.5843186	,	0
39,23	,	77905	,	-17124	,	-13669	,	-7.843545	,	0
39,23	,	77936	,	-17127	,	-13672	,	-9.398809	,	0
39,23	,	77952	,	-17133	,	-13679	,	-11.233793	,	0
39,23	,	77968	,	-17142	,	-13683	,	-13.16342	,	0
39,23	,	78000	,	-17146	,	-13689	,	-15.039036	,	0
39,23	,	78016	,	-17167	,	-13696	,	-16.815788	,	0
39,23	,	78032	,	-17172	,	-13691	,	-18.589771	,	0
39,23	,	78064	,	-17183	,	-13699	,	-20.477272	,	0
39,23	,	78080	,	-17206	,	-13713	,	-22.536871	,	0
39,23	,	78112	,	-17214	,	-13714	,	-24.86272	,	0
39,23	,	78128	,	-17226	,	-13719	,	-27.486553	,	0
39,23	,	78145	,	-17227	,	-13729	,	-30.19843	,	0
39,23	,	78176	,	-17243	,	-13728	,	-32.633415	,	0
39,23	,	78192	,	-17245	,	-13735	,	-34.49188	,	0
39,23	,	78208	,	-17253	,	-13732	,	-35.599674	,	0
39,23	,	78240	,	-17264	,	-13739	,	-35.88771	,	0
39,23	,	78256	,	-17280	,	-13737	,	-35.479416	,	0
39,23	,	78272	,	-17284	,	-13750	,	-34.668686	,	0
39,23	,	78305	,	-17279	,	-13743	,	-33.638878	,	0
39,23	,	78320	,	-17250	,	-13737	,	-32.134163	,	1
39,23	,	78352	,	-17228	,	-13728	,	-29.404501	,	2
39,23	,	78368	,	-17222	,	-13727	,	-24.674404	,	4
39,23	,	78384	,	-17211	,	-13721	,	-17.77184	,	8
39,23	,	78416	,	-17206	,	-13719	,	-9.241018	,	14
39,23	,	78432	,	-17202	,	-13722	,	-0.035679817	,	22
39,23	,	78448	,	-17200	,	-13714	,	8.78309	,	31
39,23	,	78480	,	-17188	,	-13719	,	16.32903	,	39
39,23	,	78496	,	-17197	,	-13715	,	22.048021	,	46
39,23	,	78528	,	-17193	,	-13713	,	25.630266	,	50
39,23	,	78544	,	-17207	,	-13720	,	26.917099	,	52
39,23	,	78560	,	-17211	,	-13713	,	25.902851	,	51
39,23	,	78592	,	-17210	,	-13711	,	22.814167	,	47
39,23	,	78608	,	-17208	,	-13710	,	18.219368	,	41
39,23	,	78624	,	-17204	,	-13713	,	12.940299	,	33
39,23	,	78656	,	-17208	,	-13713	,	7.781045	,	24
39,24	,	78672	,	-17210	,	-13715	,	3.2927198	,	16
39,24	,	78688	,	-17208	,	-13720	,	-0.2596364	,	9
39,24	,	78720	,	-17210	,	-13714	,	-2.7857778	,	4
39,24	,	78736	,	-17221	,	-13727	,	-4.3708715	,	1
39,24	,	78768	,	-17221	,	-13715	,	-5.3021455	,	0
39,24	,	78785	,	-17233	,	-13721	,	-5.939938	,	0
39,24	,	78800	,	-17246	,	-13726	,	-6.6490455	,	0
39,24	,	78832	,	-17257	,	-13730	,	-7.803604	,	0
39,24	,	78848	,	-17259	,	-13729	,	-9.62638	,	0
39,24	,	78864	,	-17273	,	-13737	,	-12.056314	,	0
39,24	,	78896	,	-17276	,	-13740	,	-14.853466	,	0
39,24	,	78912	,	-17290	,	-13738	,	-17.747305	,	0
39,24	,	78944	,	-17293	,	-13746	,	-20.502853	,	0
39,24	,	78960	,	-17304	,	-13751	,	-22.934978	,	0
39,24	,	78976	,	-17315	,	-13765	,	-24.937443	,	0
39,24	,	79008	,	-17324	,	-13746	,	-26.518826	,	0
39,24	,	79024	,	-17338	,	-13764	,	-27.770733	,	0
39,24	,	79040	,	-17342	,	-13770	,	-28.795364	,	0
39,24	,	79072	,	-17347	,	-13773	,	-29.599602	,	0
39,24	,	79088	,	-17364	,	-13776	,	-30.120018	,	0
39,24	,	79104	,	-17371	,	-13775	,	-30.39608	,	0
39,24	,	79136	,	-17368	,	-13775	,	-30.488817	,	0
39,24	,	79152	,	-17386	,	-13786	,	-30.333115	,	0
39,24	,	79184	,	-17397	,	-13793	,	-29.939564	,	0
39,24	,	79200	,	-17400	,	-13792	,	-29.475143	,	0
39,24	,	79216	,	-17398	,	-13801	,	-28.981865	,	0
39,24	,	79248	,	-17370	,	-13769	,	-28.125748	,	0
39,24	,	79264	,	-17327	,	-13772	,	-26.04601	,	0
39,24	,	79280	,	-17320	,	-13760	,	-21.638065	,	2
39,24	,	79312	,	-17305	,	-13760	,	-14.398587	,	6
39,24	,	79328	,	-17298	,	-13752	,	-4.8428087	,	13
39,24	,	79360	,	-17305	,	-13755	,	5.7872686	,	22
39,24	,	79376	,	-17296	,	-13755	,	15.959883	,	32
39,24	,	79392	,	-17300	,	-13749	,	24.338385	,	42
39,24	,	79424	,	-17295	,	-13747	,	30.100939	,	50
39,24	,	79440	,	-17294	,	-13749	,	32.97209	,	55
39,24	,	79456	,	-17308	,	-13752	,	33.076572	,	57
39,24	,	79488	,	-17298	,	-13746	,	30.753279	,	55
39,24	,	79504	,	-17311	,	-13746	,	26.533592	,	51
39,24	,	79536	,	-17304	,	-13744	,	21.091936	,	44
39,24	,	79552	,	-17295	,	-13742	,	15.195622	,	35
39,24	,	79568	,	-17297	,	-13743	,	9.676174	,	25
39,24	,	79600	,	-17301	,	-13743	,	5.146021	,	15
39,24	,	79616	,	-17303	,	-13744	,	1.7907405	,	7
39,24	,	79632	,	-17309	,	-13748	,	-0.5207734	,	2
39,25	,	79664	,	-17309	,	-13746	,	-2.059867	,	0
39,25	,	79680	,	-17321	,	-13747	,	-3.1348162	,	0
39,25	,	79695	,	-17317	,	-13750	,	-4.0327773	,	0
39,25	,	79728	,	-17326	,	-13758	,	-4.933797	,	0
39,25	,	79744	,	-17321	,	-13755	,	-5.8636007	,	0
39,25	,	79775	,	-17344	,	-13756	,	-6.818016	,	0
39,25	,	79792	,	-17353	,	-13761	,	-7.9738865	,	0
39,25	,	79807	,	-17357	,	-13763	,	-9.600303	,	0
39,25	,	79839	,	-17374	,	-13771	,	-11.787383	,	0
39,25	,	79856	,	-17379	,	-13768	,	-14.459789	,	0
39,25	,	79872	,	-17382	,	-13773	,	-17.416729	,	0
39,25	,	79904	,	-17388	,	-13779	,	-20.28644	,	0
39,25	,	79920	,	-17405	,	-13784	,	-22.730194	,	0
39,25	,	79951	,	-17411	,	-13786	,	-24.668255	,	0
39,25	,	79968	,	-17409	,	-13793	,	-26.128067	,	0
39,25	,	79984	,	-17414	,	-13778	,	-27.000988	,	0
39,25	,	80015	,	-17430	,	-13790	,	-27.185024	,	0
39,25	,	80032	,	-17439	,	-13792	,	-26.844563	,	0
39,25	,	80048	,	-17438	,	-13798	,	-26.27333	,	0
39,25	,	80079	,	-17453	,	-13803	,	-25.639477	,	0
39,25	,	80096	,	-17453	,	-13799	,	-25.013916	,	0
39,25	,	80111	,	-17473	,	-13800	,	-24.476135	,	0
39,25	,	80144	,	-17460	,	-13803	,	-24.072275	,	0
39,25	,	80160	,	-17444	,	-13792	,	-23.556858	,	0
39,25	,	80191	,	-17410	,	-13783	,	-22.186714	,	0
39,25	,	80207	,	-17394	,	-13787	,	-18.989603	,	1
39,25	,	80223	,	-17377	,	-13767	,	-13.3548355	,	4
39,25	,	80255	,	-17369	,	-13765	,	-5.415412	,	9
39,25	,	80271	,	-17365	,	-13764	,	4.001583	,	16
39,25	,	80287	,	-17362	,	-13756	,	13.67012	,	25
39,25	,	80319	,	-17364	,	-13762	,	22.31202	,	34
39,25	,	80336	,	-17366	,	-13758	,	28.870216	,	42
39,25	,	80367	,	-17355	,	-13754	,	32.73765	,	48
39,25	,	80383	,	-17362	,	-13757	,	33.87666	,	51
39,25	,	80399	,	-17368	,	-13753	,	32.59358	,	51
39,25	,	80431	,	-17367	,	-13758	,	29.29338	,	48
39,25	,	80447	,	-17369	,	-13755	,	24.515915	,	43
39,25	,	80463	,	-17367	,	-13752	,	18.937737	,	36
39,25	,	80495	,	-17362	,	-13755	,	13.265534	,	27
39,25	,	80511	,	-17354	,	-13749	,	8.18204	,	18
39,25	,	80527	,	-17368	,	-13748	,	4.184165	,	10
39,25	,	80559	,	-17368	,	-13743	,	1.3467035	,	4
39,25	,	80575	,	-17371	,	-13746	,	-0.58710027	,	1
39,25	,	80607	,	-17369	,	-13752	,	-1.8892398	,	0
39,25	,	80623	,	-17373	,	-13747	,	-2.7324345	,	0
39,25	,	80639	,	-17385	,	-13749	,	-3.3010292	,	0
39,26	,	80671	,	-17378	,	-13752	,	-3.8279288	,	0
39,26	,	80687	,	-17388	,	-13750	,	-4.4481936	,	0
39,26	,	80703	,	-17396	,	-13762	,	-5.2137775	,	0
39,26	,	80736	,	-17406	,	-13758	,	-6.246033	,	0
39,26	,	80751	,	-17424	,	-13773	,	-7.739208	,	0
39,26	,	80783	,	-17423	,	-13770	,	-9.844472	,	0
39,26	,	80799	,	-17430	,	-13772	,	-12.475818	,	0
39,26	,	80815	,	-17447	,	-13773	,	-15.3464775	,	0
39,26	,	80847	,	-17448	,	-13776	,	-18.216951	,	0
39,26	,	80863	,	-17452	,	-13775	,	-20.86593	,	0
39,26	,	80879	,	-17463	,	-13789	,	-23.02943	,	0
39,26	,	80911	,	-17466	,	-13785	,	-24.550495	,	0
39,26	,	80927	,	-17482	,	-13789	,	-25.44719	,	0
39,26	,	80943	,	-17484	,	-13802	,	-25.868309	,	0
39,26	,	80975	,	-17488	,	-13785	,	-25.957737	,	0
39,26	,	80991	,	-17506	,	-13799	,	-25.801823	,	0
39,26	,	81023	,	-17512	,	-13805	,	-25.567036	,	0
39,26	,	81039	,	-17508	,	-13803	,	-25.396873	,	0
39,26	,	81055	,	-17481	,	-13787	,	-25.033356	,	0
39,26	,	81087	,	-17451	,	-13779	,	-23.64543	,	0
39,26	,	81103	,	-17428	,	-13766	,	-20.16055	,	1
39,26	,	81119	,	-17412	,	-13759	,	-13.918338	,	4
39,26	,	81151	,	-17399	,	-13760	,	-5.0759172	,	10
39,26	,	81167	,	-17398	,	-13748	,	5.4407635	,	18
39,26	,	81199	,	-17390	,	-13762	,	16.244043	,	28
39,26	,	81215	,	-17386	,	-13740	,	25.94041	,	38
39,26	,	81231	,	-17380	,	-13747	,	33.512287	,	47
39,26	,	81263	,	-17383	,	-13750	,	38.401443	,	54
39,26	,	81279	,	-17385	,	-13747	,	40.4054	,	58
39,26	,	81295	,	-17400	,	-13748	,	39.54829	,	59
39,26	,	81327	,	-17398	,	-13740	,	36.03666	,	56
39,26	,	81343	,	-17402	,	-13747	,	30.364216	,	50
39,26	,	81359	,	-17397	,	-13737	,	23.347694	,	42
39,26	,	81391	,	-17389	,	-13735	,	15.993206	,	32
39,26	,	81407	,	-17392	,	-13737	,	9.274086	,	22
39,26	,	81439	,	-17383	,	-13740	,	3.887579	,	13
39,26	,	81455	,	-17396	,	-13729	,	0.12925482	,	6
39,26	,	81471	,	-17396	,	-13736	,	-2.1275525	,	2
39,26	,	81503	,	-17401	,	-13741	,	-3.2936754	,	0
39,26	,	81519	,	-17407	,	-13738	,	-3.833536	,	0
39,26	,	81535	,	-17405	,	-13743	,	-4.1329613	,	0
39,26	,	81567	,	-17417	,	-13741	,	-4.447982	,	0
39,26	,	81583	,	-17412	,	-13748	,	-4.9264154	,	0
39,26	,	81614	,	-17425	,	-13748	,	-5.6281576	,	0
39,26	,	81631	,	-17432	,	-13751	,	-6.59105	,	0
39,26	,	81647	,	-17434	,	-13753	,	-7.8678656	,	0
39,27	,	81679	,	-17450	,	-13756	,	-9.455231	,	0
39,27	,	81695	,	-17458	,	-13758	,	-11.344982	,	0
39,27	,	81711	,	-17477	,	-13762	,	-13.597899	,	0
39,27	,	81743	,	-17477	,	-13760	,	-16.24869	,	0
39,27	,	81759	,	-17491	,	-13766	,	-19.16998	,	0
39,27	,	81791	,	-17496	,	-13773	,	-22.099669	,	0
39,27	,	81807	,	-17494	,	-13774	,	-24.715672	,	0
39,27	,	81823	,	-17510	,	-13782	,	-26.691372	,	0
39,27	,	81855	,	-17522	,	-13778	,	-27.918823	,	0
39,27	,	81871	,	-17531	,	-13784	,	-28.587864	,	0
39,27	,	81887	,	-17527	,	-13784	,	-28.891094	,	0
39,27	,	81919	,	-17534	,	-13788	,	-28.796913	,	0
39,27	,	81935	,	-17541	,	-13803	,	-28.198908	,	0
39,27	,	81951	,	-17541	,	-13782	,	-27.107662	,	0
39,27	,	81983	,	-17478	,	-13759	,	-25.279785	,	1
39,27	,	81999	,	-17450	,	-13750	,	-21.716295	,	2
39,27	,	82031	,	-17427	,	-13745	,	-15.22464	,	5
39,27	,	82047	,	-17424	,	-13742	,	-5.5614834	,	11
39,27	,	82063	,	-17417	,	-13738	,	6.257922	,	20
39,27	,	82095	,	-17415	,	-13740	,	18.510239	,	31
39,27	,	82111	,	-17414	,	-13734	,	29.44833	,	43
39,27	,	82126	,	-17419	,	-13737	,	37.707485	,	53
39,27	,	82159	,	-17422	,	-13732	,	42.44511	,	61
39,27	,	82175	,	-17421	,	-13741	,	43.411068	,	64
39,27	,	82207	,	-17419	,	-13723	,	40.978264	,	63
39,27	,	82223	,	-17439	,	-13735	,	35.906128	,	60
39,27	,	82239	,	-17444	,	-13735	,	28.93266	,	54
39,27	,	82270	,	-17437	,	-13731	,	20.773174	,	45
39,27	,	82287	,	-17436	,	-13731	,	12.366838	,	34
39,27	,	82302	,	-17434	,	-13732	,	4.7271833	,	22
39,27	,	82334	,	-17434	,	-13734	,	-1.4042025	,	12
39,27	,	82350	,	-17439	,	-13726	,	-5.69983	,	4
39,27	,	82366	,	-17441	,	-13731	,	-8.226305	,	0
39,27	,	82399	,	-17435	,	-13731	,	-9.275515	,	0
39,27	,	82415	,	-17442	,	-13743	,	-9.177483	,	0
39,27	,	82447	,	-17442	,	-13725	,	-8.292419	,	0
39,27	,	82462	,	-17446	,	-13734	,	-7.016766	,	0
39,27	,	82479	,	-17461	,	-13732	,	-5.765334	,	1
39,27	,	82510	,	-17466	,	-13739	,	-4.9899693	,	2
39,27	,	82526	,	-17479	,	-13744	,	-5.070348	,	2
39,27	,	82542	,	-17483	,	-13746	,	-6.170313	,	2
39,27	,	82575	,	-17492	,	-13745	,	-8.203064	,	2
39,27	,	82591	,	-17512	,	-13745	,	-10.95482	,	2
39,27	,	82622	,	-17505	,	-13753	,	-14.200234	,	2
39,27	,	82638	,	-17508	,	-13751	,	-17.545198	,	2
39,27	,	82654	,	-17517	,	-13761	,	-20.441402	,	2
39,28	,	82686	,	-17524	,	-13754	,	-22.53558	,	1
39,28	,	82702	,	-17532	,	-13753	,	-23.789143	,	0
39,28	,	82718	,	-17538	,	-13760	,	-24.335663	,	0
39,28	,	82751	,	-17551	,	-13764	,	-24.392235	,	0
39,28	,	82767	,	-17552	,	-13772	,	-24.198864	,	0
39,28	,	82783	,	-17546	,	-13756	,	-23.834127	,	0
39,28	,	82814	,	-17511	,	-13749	,	-22.949568	,	0
39,28	,	82830	,	-17478	,	-13737	,	-20.664486	,	0
39,28	,	82862	,	-17455	,	-13736	,	-15.942158	,	2
39,28	,	82879	,	-17436	,	-13721	,	-8.280532	,	6
39,28	,	82894	,	-17427	,	-13718	,	1.9211006	,	13
39,28	,	82926	,	-17425	,	-13724	,	13.472882	,	23
39,28	,	82942	,	-17428	,	-13709	,	24.739235	,	34
39,28	,	82958	,	-17428	,	-13720	,	34.095528	,	45
39,28	,	82990	,	-17434	,	-13713	,	40.339806	,	54
39,28	,	83006	,	-17441	,	-13716	,	42.864895	,	60
39,28	,	83038	,	-17455	,	-13718	,	41.592995	,	62
39,28	,	83054	,	-17454	,	-13719	,	36.895924	,	60
39,28	,	83070	,	-17453	,	-13723	,	29.624214	,	56
39,28	,	83102	,	-17459	,	-13723	,	20.97784	,	49
39,28	,	83118	,	-17453	,	-13721	,	12.1670265	,	39
39,28	,	83134	,	-17448	,	-13711	,	4.237667	,	28
39,28	,	83166	,	-17442	,	-13726	,	-1.977767	,	17
39,28	,	83182	,	-17447	,	-13706	,	-6.023793	,	8
39,28	,	83198	,	-17446	,	-13713	,	-7.9431863	,	2
39,28	,	83231	,	-17461	,	-13715	,	-8.21436	,	0
39,28	,	83246	,	-17457	,	-13716	,	-7.5434613	,	0
39,28	,	83278	,	-17464	,	-13723	,	-6.5662336	,	0
39,28	,	83295	,	-17471	,	-13719	,	-5.716232	,	0
39,28	,	83311	,	-17471	,	-13720	,	-5.276964	,	0
39,28	,	83342	,	-17486	,	-13725	,	-5.4054747	,	0
39,28	,	83358	,	-17490	,	-13731	,	-6.1873093	,	0
39,28	,	83374	,	-17493	,	-13730	,	-7.61019	,	0
39,28	,	83406	,	-17492	,	-13740	,	-9.441782	,	0
39,28	,	83422	,	-17504	,	-13725	,	-11.3301325	,	0
39,28	,	83454	,	-17526	,	-13742	,	-13.133738	,	0
39,28	,	83470	,	-17538	,	-13748	,	-15.066565	,	0
39,28	,	83486	,	-17539	,	-13750	,	-17.37038	,	0
39,28	,	83518	,	-17541	,	-13747	,	-19.923307	,	0
39,28	,	83534	,	-17558	,	-13749	,	-22.35517	,	0
39,28	,	83550	,	-17561	,	-13757	,	-24.416714	,	0
39,28	,	83582	,	-17544	,	-13742	,	-25.902313	,	0
39,28	,	83598	,	-17505	,	-13735	,	-26.190098	,	0
39,28	,	83614	,	-17460	,	-13711	,	-24.100859	,	0
39,28	,	83646	,	-17446	,	-13709	,	-18.478909	,	2
39,29	,	83662	,	-17435	,	-13693	,	-9.117465	,	7
39,29	,	83694	,	-17418	,	-13692	,	2.985117	,	16
39,29	,	83710	,	-17405	,	-13688	,	16.235455	,	28
39,29	,	83726	,	-17405	,	-13682	,	29.00463	,	41
39,29	,	83758	,	-17398	,	-13685	,	39.82609	,	53
39,29	,	83774	,	-17397	,	-13681	,	47.604416	,	63
39,29	,	83790	,	-17406	,	-13687	,	51.739914	,	70
39,29	,	83822	,	-17408	,	-13683	,	52.055138	,	74
39,29	,	83838	,	-17420	,	-13690	,	48.75662	,	72
39,29	,	83870	,	-17414	,	-13680	,	42.455223	,	67
39,29	,	83886	,	-17414	,	-13678	,	34.15549	,	58
39,29	,	83902	,	-17411	,	-13678	,	25.084038	,	46
39,29	,	83934	,	-17401	,	-13675	,	16.41407	,	33
39,29	,	83952	,	-17401	,	-13668	,	9.095012	,	21
39,29	,	83966	,	-17400	,	-13672	,	3.6919699	,	11
39,29	,	83998	,	-17398	,	-13674	,	0.30133152	,	4
39,29	,	84014	,	-17392	,	-13667	,	-1.2893558	,	0
39,29	,	84046	,	-17398	,	-13671	,	-1.4390883	,	0
39,29	,	84062	,	-17407	,	-13672	,	-0.67985463	,	0
39,29	,	84078	,	-17421	,	-13675	,	0.26506877	,	0
39,29	,	84110	,	-17414	,	-13676	,	0.7208027	,	0
39,29	,	84126	,	-17415	,	-13676	,	0.42283547	,	0
39,29	,	84142	,	-17426	,	-13684	,	-0.5061642	,	0
39,29	,	84174	,	-17427	,	-13682	,	-1.8973361	,	0
39,29	,	84190	,	-17448	,	-13685	,	-3.7028556	,	0
39,29	,	84206	,	-17457	,	-13686	,	-6.0147505	,	0
39,29	,	84238	,	-17458	,	-13691	,	-8.901616	,	0
39,29	,	84254	,	-17469	,	-13696	,	-12.178266	,	0
39,29	,	84286	,	-17470	,	-13694	,	-15.486723	,	0
39,29	,	84302	,	-17490	,	-13692	,	-18.528091	,	0
39,29	,	84318	,	-17488	,	-13705	,	-21.161457	,	0
39,29	,	84350	,	-17493	,	-13698	,	-23.284483	,	0
39,29	,	84366	,	-17461	,	-13688	,	-24.559433	,	0
39,29	,	84382	,	-17433	,	-13687	,	-24.211622	,	0
39,29	,	84414	,	-17386	,	-13645	,	-21.153105	,	0
39,29	,	84430	,	-17346	,	-13647	,	-14.39999	,	3
39,29	,	84462	,	-17338	,	-13638	,	-3.6607075	,	9
39,29	,	84478	,	-17331	,	-13634	,	10.132787	,	19
39,29	,	84494	,	-17319	,	-13628	,	25.036133	,	32
39,29	,	84526	,	-17328	,	-13627	,	38.870464	,	46
39,29	,	84542	,	-17322	,	-13621	,	49.762245	,	59
39,29	,	84558	,	-17311	,	-13625	,	56.54997	,	69
39,29	,	84590	,	-17310	,	-13625	,	59.03202	,	75
39,29	,	84606	,	-17314	,	-13625	,	57.675934	,	77
39,29	,	84622	,	-17323	,	-13629	,	53.148033	,	74
39,29	,	84654	,	-17311	,	-13615	,	46.213375	,	68
39,30	,	84669	,	-17309	,	-13617	,	37.879345	,	58
39,30	,	84702	,	-17304	,	-13617	,	29.286358	,	45
39,30	,	84718	,	-17297	,	-13612	,	21.418472	,	31
39,30	,	84734	,	-17293	,	-13612	,	14.97624	,	18
39,30	,	84766	,	-17295	,	-13607	,	10.2993355	,	8
39,30	,	84782	,	-17305	,	-13612	,	7.2679358	,	2
39,30	,	84798	,	-17296	,	-13602	,	5.4304037	,	0
39,30	,	84829	,	-17304	,	-13610	,	4.329328	,	0
39,30	,	84845	,	-17306	,	-13613	,	3.6115346	,	0
39,30	,	84877	,	-17305	,	-13617	,	2.9844396	,	0
39,30	,	84894	,	-17315	,	-13608	,	2.2464123	,	0
39,30	,	84910	,	-17321	,	-13610	,	1.2317642	,	0
39,30	,	84942	,	-17327	,	-13623	,	-0.21549308	,	0
39,30	,	84958	,	-17345	,	-13620	,	-2.2030568	,	0
39,30	,	84974	,	-17352	,	-13624	,	-4.827771	,	0
39,30	,	85005	,	-17348	,	-13623	,	-8.039234	,	0
39,30	,	85021	,	-17360	,	-13632	,	-11.486675	,	0
39,30	,	85038	,	-17367	,	-13636	,	-14.751201	,	0
39,30	,	85070	,	-17362	,	-13638	,	-17.530449	,	0
39,30	,	85086	,	-17378	,	-13637	,	-19.589064	,	0
39,30	,	85117	,	-17380	,	-13640	,	-20.858757	,	0
39,30	,	85133	,	-17364	,	-13634	,	-21.362267	,	0
39,30	,	85149	,	-17331	,	-13616	,	-20.775671	,	0
39,30	,	85181	,	-17271	,	-13596	,	-18.148905	,	0
39,30	,	85197	,	-17245	,	-13590	,	-12.231112	,	2
39,30	,	85213	,	-17238	,	-13577	,	-2.4722338	,	7
39,30	,	85246	,	-17216	,	-13573	,	10.309719	,	16
39,30	,	85262	,	-17212	,	-13576	,	24.3861	,	28
39,30	,	85294	,	-17217	,	-13571	,	37.787025	,	42
39,30	,	85309	,	-17211	,	-13575	,	48.66857	,	55
39,30	,	85325	,	-17207	,	-13572	,	55.763725	,	65
39,30	,	85357	,	-17199	,	-13566	,	58.681442	,	72
39,30	,	85373	,	-17212	,	-13578	,	57.712894	,	74
39,30	,	85389	,	-17211	,	-13563	,	53.431046	,	72
39,30	,	85421	,	-17212	,	-13571	,	46.558884	,	67
39,30	,	85437	,	-17214	,	-13559	,	38.019196	,	58
39,30	,	85469	,	-17204	,	-13560	,	28.864624	,	46
39,30	,	85485	,	-17201	,	-13556	,	20.151594	,	32
39,30	,	85501	,	-17197	,	-13558	,	12.755066	,	19
39,30	,	85533	,	-17193	,	-13560	,	7.190916	,	9
39,30	,	85549	,	-17193	,	-13555	,	3.5961733	,	2
39,30	,	85565	,	-17204	,	-13554	,	1.7305217	,	0
39,30	,	85597	,	-17191	,	-13554	,	1.0839343	,	0
39,30	,	85613	,	-17204	,	-13563	,	1.1503603	,	0
39,30	,	85630	,	-17211	,	-13552	,	1.4611068	,	0
39,31	,	85661	,	-17228	,	-13563	,	1.45485	,	0
39,31	,	85677	,	-17231	,	-13577	,	0.6063834	,	0
39,31	,	85709	,	-17249	,	-13569	,	-1.356539	,	0
39,31	,	85725	,	-17249	,	-13580	,	-4.405294	,	0
39,31	,	85741	,	-17243	,	-13586	,	-8.157157	,	0
39,31	,	85773	,	-17264	,	-13587	,	-11.978726	,	0
39,31	,	85789	,	-17270	,	-13588	,	-15.429501	,	0
39,31	,	85805	,	-17273	,	-13597	,	-18.381283	,	0
39,31	,	85837	,	-17279	,	-13600	,	-20.738085	,	0
39,31	,	85853	,	-17296	,	-13600	,	-22.444313	,	0
39,31	,	85885	,	-17299	,	-13595	,	-23.630829	,	0
39,31	,	85901	,	-17289	,	-13589	,	-24.39258	,	0
39,31	,	85917	,	-17212	,	-13566	,	-24.156826	,	0
39,31	,	85949	,	-17185	,	-13557	,	-21.413662	,	0
39,31	,	85965	,	-17164	,	-13547	,	-14.7340765	,	2
39,31	,	85981	,	-17158	,	-13546	,	-4.0620317	,	8
39,31	,	86013	,	-17150	,	-13540	,	9.212834	,	18
39,31	,	86029	,	-17144	,	-13540	,	23.03218	,	31
39,31	,	86045	,	-17133	,	-13535	,	35.46504	,	44
39,31	,	86077	,	-17132	,	-13534	,	45.155025	,	56
39,31	,	86093	,	-17133	,	-13530	,	51.335	,	65
39,31	,	86125	,	-17142	,	-13531	,	53.67106	,	71
39,31	,	86141	,	-17150	,	-13538	,	52.17155	,	73
39,31	,	86157	,	-17150	,	-13539	,	47.221233	,	71
39,31	,	86189	,	-17138	,	-13533	,	39.70054	,	65
39,31	,	86205	,	-17138	,	-13535	,	30.913338	,	55
39,31	,	86221	,	-17139	,	-13534	,	22.156277	,	42
39,31	,	86253	,	-17130	,	-13535	,	14.374115	,	29
39,31	,	86269	,	-17123	,	-13520	,	8.205625	,	17
39,31	,	86301	,	-17125	,	-13534	,	4.017165	,	8
39,31	,	86317	,	-17131	,	-13536	,	1.7397618	,	2
39,31	,	86333	,	-17125	,	-13534	,	0.9167831	,	0
39,31	,	86365	,	-17139	,	-13546	,	0.9693744	,	0
39,31	,	86381	,	-17126	,	-13532	,	1.3715818	,	0
39,31	,	86397	,	-17154	,	-13543	,	1.6884162	,	0
39,31	,	86429	,	-17163	,	-13552	,	1.437717	,	0
39,31	,	86445	,	-17166	,	-13550	,	0.15818423	,	0
39,31	,	86461	,	-17173	,	-13561	,	-2.2332904	,	0
39,31	,	86493	,	-17179	,	-13562	,	-5.436779	,	0
39,31	,	86509	,	-17188	,	-13564	,	-9.043668	,	0
39,31	,	86541	,	-17197	,	-13568	,	-12.695847	,	0
39,31	,	86557	,	-17204	,	-13570	,	-16.131067	,	0
39,31	,	86573	,	-17209	,	-13574	,	-19.149376	,	0
39,31	,	86605	,	-17220	,	-13586	,	-21.603466	,	0
39,31	,	86621	,	-17224	,	-13572	,	-23.43737	,	0
39,31	,	86637	,	-17196	,	-13567	,	-24.49415	,	0
39,32	,	86669	,	-17153	,	-13556	,	-24.088789	,	0
39,32	,	86685	,	-17126	,	-13541	,	-21.058678	,	0
39,32	,	86717	,	-17107	,	-13539	,	-14.554992	,	3
39,32	,	86733	,	-17101	,	-13534	,	-4.7569056	,	9
39,32	,	86749	,	-17078	,	-13536	,	7.195794	,	18
39,32	,	86781	,	-17075	,	-13532	,	19.78338	,	29
39,32	,	86797	,	-17076	,	-13530	,	31.471735	,	41
39,32	,	86813	,	-17068	,	-13523	,	40.879204	,	52
39,32	,	86845	,	-17042	,	-13538	,	47.212196	,	61
39,32	,	86861	,	-17070	,	-13520	,	50.386734	,	67
39,32	,	86877	,	-17083	,	-13535	,	50.396812	,	70
39,32	,	86909	,	-17087	,	-13532	,	47.09028	,	67
39,32	,	86925	,	-17077	,	-13533	,	40.76548	,	61
39,32	,	86957	,	-17077	,	-13527	,	32.44597	,	52
39,32	,	86973	,	-17072	,	-13515	,	23.477457	,	41
39,32	,	86990	,	-17070	,	-13527	,	15.067499	,	29
39,32	,	87021	,	-17058	,	-13524	,	8.11522	,	18
39,32	,	87037	,	-17054	,	-13524	,	3.2053928	,	9
39,32	,	87053	,	-17068	,	-13522	,	0.472692	,	3
39,32	,	87085	,	-17072	,	-13529	,	-0.5463903	,	0
39,32	,	87101	,	-17080	,	-13524	,	-0.6728835	,	0
39,32	,	87132	,	-17079	,	-13536	,	-0.63841355	,	0
39,32	,	87149	,	-17089	,	-13540	,	-0.8830163	,	0
39,32	,	87165	,	-17107	,	-13537	,	-1.6872768	,	0
39,32	,	87197	,	-17103	,	-13551	,	-3.2698808	,	0
39,32	,	87213	,	-17113	,	-13555	,	-5.609542	,	0
39,32	,	87229	,	-17132	,	-13559	,	-8.490863	,	0
39,32	,	87261	,	-17140	,	-13563	,	-11.781776	,	0
39,32	,	87277	,	-17142	,	-13567	,	-15.354972	,	0
39,32	,	87309	,	-17155	,	-13568	,	-18.917078	,	0
39,32	,	87325	,	-17153	,	-13577	,	-22.106348	,	0
39,32	,	87340	,	-17164	,	-13574	,	-24.60877	,	0
39,32	,	87372	,	-17165	,	-13566	,	-26.224869	,	0
39,32	,	87388	,	-17088	,	-13545	,	-26.503635	,	0
39,32	,	87405	,	-17059	,	-13537	,	-24.186653	,	0
39,32	,	87436	,	-17047	,	-13530	,	-17.95831	,	2
39,32	,	87452	,	-17037	,	-13523	,	-7.812703	,	8
39,32	,	87468	,	-16997	,	-13516	,	5.038701	,	18
39,32	,	87501	,	-17021	,	-13514	,	18.983936	,	30
39,32	,	87517	,	-17005	,	-13517	,	32.18829	,	43
39,32	,	87549	,	-16982	,	-13518	,	43.010807	,	56
39,32	,	87565	,	-16976	,	-13512	,	50.69908	,	66
39,32	,	87581	,	-16985	,	-13520	,	55.149086	,	73
39,32	,	87613	,	-16977	,	-13508	,	56.364746	,	77
39,32	,	87629	,	-16993	,	-13520	,	54.468834	,	76
39,32	,	87644	,	-16985	,	-13522	,	49.8127	,	70
39,33	,	87677	,	-16983	,	-13517	,	43.044598	,	60
39,33	,	87693	,	-16999	,	-13515	,	35.02358	,	48
39,33	,	87725	,	-16974	,	-13520	,	26.60261	,	35
39,33	,	87741	,	-16973	,	-13515	,	18.697	,	22
39,33	,	87757	,	-16984	,	-13516	,	12.123039	,	12
39,33	,	87788	,	-16966	,	-13519	,	7.226639	,	5
39,33	,	87804	,	-16981	,	-13519	,	3.9860592	,	1
