RAW Data export file (comma separated)


Client:	John,Sample
Session:	Jarryd2 
Date:	24-07-2017
Time:	09:12:37
Duration:	163	Seconds.
Output rate:	128	Samples/sec.

128 SPS,32 SPS,
Sensor-G:BVP,Sensor-H:RSP,Events,


-46.958,893.342,,
-48.245,893.342,,
-46.702,893.342,,
-45.812,893.342,,
-45.341,890.924,,
-42.826,890.924,,
-43.000,890.924,,
-41.951,890.924,,
-41.276,890.740,,
-42.151,890.740,,
-41.098,890.740,,
-42.373,890.740,,
-42.437,890.490,,
-41.363,890.490,,
-42.527,890.490,,
-41.663,890.490,,
-42.345,890.367,,
-42.864,890.367,,
-42.316,890.367,,
-44.112,890.367,,
-43.943,890.285,,
-44.432,890.285,,
-45.503,890.285,,
-44.229,890.285,,
-45.212,890.187,,
-44.762,890.187,,
-44.664,890.187,,
-46.146,890.187,,
-45.310,890.097,,
-46.559,890.097,,
-46.875,890.097,,
-46.033,890.097,,
-46.522,889.996,,
-44.519,889.996,,
-44.509,889.996,,
-44.688,889.996,,
-43.497,889.935,,
-44.916,889.935,,
-44.350,889.935,,
-44.592,889.935,,
-45.826,890.019,,
-45.064,890.019,,
-46.324,890.019,,
-45.860,890.019,,
-45.265,890.050,,
-46.462,890.050,,
-45.059,890.050,,
-45.457,890.050,,
-45.505,889.988,,
-44.659,889.988,,
-46.053,889.988,,
-45.239,889.988,,
-45.338,889.591,,
-45.073,889.591,,
-42.835,889.591,,
-42.417,889.591,,
-39.698,889.214,,
-37.326,889.214,,
-35.805,889.214,,
-32.455,889.214,,
-31.983,889.168,,
-30.728,889.168,,
-29.520,889.168,,
-30.360,889.168,,
-29.716,889.274,,
-31.757,889.274,,
-33.355,889.274,,
-33.768,889.274,,
-35.920,889.544,,
-36.118,889.544,,
-37.696,889.544,,
-39.588,889.544,,
-39.741,889.878,,
-41.570,889.878,,
-40.907,889.878,,
-40.772,889.878,,
-41.795,890.111,,
-40.610,890.111,,
-41.788,890.111,,
-42.051,890.111,,
-42.185,890.429,,
-43.855,890.429,,
-42.857,890.429,,
-43.857,890.429,,
-44.384,890.994,,
-43.556,890.994,,
-44.948,890.994,,
-43.986,890.994,,
-43.979,891.374,,
-44.366,891.374,,
-43.208,891.374,,
-44.471,891.374,,
-44.134,891.802,,
-44.297,891.802,,
-45.466,891.802,,
-44.319,891.802,,
-45.558,892.406,,
-45.433,892.406,,
-44.811,892.406,,
-45.991,892.406,,
-44.639,892.960,,
-44.551,892.960,,
-43.773,892.960,,
-42.172,892.960,,
-43.408,893.676,,
-43.503,893.676,,
-44.986,893.676,,
-46.152,893.676,,
-44.685,894.449,,
-45.408,894.449,,
-44.703,894.449,,
-44.703,894.449,,
-46.059,895.233,,
-45.460,895.233,,
-47.732,895.233,,
-49.228,895.233,,
-49.869,896.041,,
-51.953,896.041,,
-51.101,896.041,,
-51.437,896.041,,
-51.600,896.892,,
-50.651,896.892,,
-52.047,896.892,,
-51.056,896.892,,
-50.898,897.694,,
-50.901,897.694,,
-48.743,897.694,,
-49.480,897.694,,
-49.391,898.645,,
-49.673,898.645,,
-51.139,898.645,,
-50.080,898.645,,
-51.145,899.528,,
-50.733,899.528,,
-49.347,899.528,,
-49.845,899.528,,
-48.018,900.385,,
-47.741,900.385,,
-47.186,900.385,,
-45.658,900.385,,
-47.091,901.438,,
-46.773,901.438,,
-47.353,901.438,,
-48.406,901.438,,
-46.969,902.331,,
-47.792,902.331,,
-47.201,902.331,,
-46.393,902.331,,
-46.817,903.333,,
-45.020,903.333,,
-45.392,903.333,,
-44.968,903.333,,
-43.718,904.337,,
-44.565,904.337,,
-43.622,904.337,,
-44.386,904.337,,
-45.459,905.213,,
-45.315,905.213,,
-47.869,905.213,,
-48.588,905.213,,
-49.346,906.185,,
-50.487,906.185,,
-49.441,906.185,,
-50.465,906.185,,
-49.609,907.461,,
-48.584,907.461,,
-49.316,907.461,,
-47.992,907.461,,
-48.871,908.641,,
-48.793,908.641,,
-47.297,908.641,,
-48.437,908.641,,
-47.939,909.854,,
-48.780,909.854,,
-49.535,909.854,,
-48.512,909.854,,
-49.772,910.763,,
-49.115,910.763,,
-49.304,910.763,,
-50.371,910.763,,
-49.073,911.148,,
-49.803,911.148,,
-49.098,911.148,,
-48.048,911.148,,
-48.625,911.818,,
-46.911,911.818,,
-46.758,911.818,,
-45.534,911.818,,
-43.374,912.845,,
-43.689,912.845,,
-41.984,912.845,,
-41.707,912.845,,
-41.643,913.939,,
-40.081,913.939,,
-41.228,913.939,,
-41.087,913.939,,
-41.602,915.191,,
-43.120,915.191,,
-42.650,915.191,,
-44.585,915.191,,
-44.957,916.346,,
-44.909,916.346,,
-46.702,916.346,,
-46.066,916.346,,
-47.192,917.352,,
-47.564,917.352,,
-46.480,917.352,,
-47.997,917.352,,
-47.486,918.490,,
-48.125,918.490,,
-48.802,918.490,,
-47.285,918.490,,
-47.663,919.439,,
-46.149,919.439,,
-45.480,919.439,,
-46.510,919.439,,
-45.672,920.220,,
-46.767,920.220,,
-46.193,920.220,,
-44.855,920.220,,
-45.538,921.158,,
-44.496,921.158,,
-45.337,921.158,,
-45.935,921.158,,
-45.084,922.216,,
-46.211,922.216,,
-45.056,922.216,,
-45.181,922.216,,
-45.580,923.083,,
-44.498,923.083,,
-46.813,923.083,,
-47.896,923.083,,
-49.418,924.114,,
-52.346,924.114,,
-52.186,924.114,,
-53.267,924.114,,
-52.566,925.457,,
-50.815,925.457,,
-50.999,925.457,,
-48.826,925.457,,
-48.752,926.877,,
-48.743,926.877,,
-47.612,926.877,,
-49.238,926.877,,
-49.267,927.930,,
-50.237,927.930,,
-51.627,927.930,,
-51.137,927.930,,
-52.574,928.632,,
-51.791,928.632,,
-50.528,928.632,,
-50.652,928.632,,
-48.911,928.979,,
-49.628,928.979,,
-49.442,928.979,,
-48.418,928.979,,
-49.309,929.038,,
-47.925,929.038,,
-48.553,929.038,,
-48.799,929.038,,
-47.127,928.909,,
-47.767,928.909,,
-46.368,928.909,,
-45.851,928.909,,
-46.124,928.764,,
-44.762,928.764,,
-45.765,928.764,,
-45.114,928.764,,
-44.698,928.590,,
-46.392,928.590,,
-46.080,928.590,,
-48.065,928.590,,
-49.181,928.523,,
-49.471,928.523,,
-51.468,928.523,,
-50.615,928.523,,
-51.205,928.387,,
-52.014,928.387,,
-51.559,928.387,,
-53.080,928.387,,
-52.135,928.160,,
-51.709,928.160,,
-52.010,928.160,,
-49.925,928.160,,
-50.209,927.824,,
-48.957,927.824,,
-48.244,927.824,,
-49.739,927.824,,
-49.107,927.449,,
-50.458,927.449,,
-50.928,927.449,,
-50.426,927.449,,
-52.006,926.768,,
-51.103,926.768,,
-51.650,926.768,,
-52.492,926.768,,
-51.848,925.860,,
-53.691,925.860,,
-53.525,925.860,,
-53.789,925.860,,
-54.929,925.087,,
-53.283,925.087,,
-53.570,925.087,,
-52.007,925.087,,
-49.699,924.588,,
-48.461,924.588,,
-45.068,924.588,,
-44.365,924.588,,
-43.507,924.074,,
-41.588,924.074,,
-41.691,924.074,,
-39.803,924.074,,
-39.685,923.453,,
-40.249,923.453,,
-39.488,923.453,,
-41.872,923.453,,
-42.895,922.618,,
-44.355,922.618,,
-46.481,922.618,,
-45.988,922.618,,
-46.983,921.630,,
-46.055,921.630,,
-44.616,921.630,,
-44.686,921.630,,
-42.610,920.770,,
-43.098,920.770,,
-43.929,920.770,,
-44.176,920.770,,
-45.996,920.025,,
-45.224,920.025,,
-45.744,920.025,,
-46.541,920.025,,
-45.523,919.083,,
-47.267,919.083,,
-47.130,919.083,,
-47.305,919.083,,
-48.241,918.225,,
-46.612,918.225,,
-47.287,918.225,,
-46.773,918.225,,
-45.731,917.421,,
-46.819,917.421,,
-45.458,917.421,,
-45.607,917.421,,
-45.199,916.552,,
-43.495,916.552,,
-43.870,916.552,,
-42.034,916.552,,
-41.538,915.583,,
-41.627,915.583,,
-40.110,915.583,,
-41.645,915.583,,
-41.377,914.626,,
-41.437,914.626,,
-43.197,914.626,,
-42.789,914.626,,
-44.716,913.701,,
-45.493,913.701,,
-45.442,913.701,,
-46.681,913.701,,
-45.152,912.838,,
-44.899,912.838,,
-44.540,912.838,,
-43.424,912.838,,
-45.170,911.988,,
-44.971,911.988,,
-45.769,911.988,,
-46.953,911.988,,
-45.880,910.966,,
-46.895,910.966,,
-46.383,910.966,,
-46.266,910.966,,
-47.375,910.018,,
-45.726,910.018,,
-46.313,910.018,,
-45.872,910.018,,
-44.798,909.154,,
-45.515,909.154,,
-43.791,909.154,,
-43.593,909.154,,
-43.340,908.179,,
-42.472,908.179,,
-44.630,908.179,,
-44.769,908.179,,
-45.578,907.226,,
-46.839,907.226,,
-45.577,907.226,,
-46.550,907.226,,
-46.255,906.457,,
-46.223,906.457,,
-47.753,906.457,,
-47.095,906.457,,
-48.154,905.656,,
-47.909,905.656,,
-47.143,905.656,,
-48.315,905.656,,
-46.735,905.134,,
-46.634,905.134,,
-46.740,905.134,,
-45.995,905.134,,
-47.799,904.735,,
-47.375,904.735,,
-46.927,904.735,,
-46.211,904.735,,
-43.207,903.838,,
-43.549,903.838,,
-43.287,903.838,,
-43.447,903.838,,
-44.970,902.648,,
-43.819,902.648,,
-44.338,902.648,,
-42.991,902.648,,
-39.997,901.648,,
-39.013,901.648,,
-35.614,901.648,,
-33.710,901.648,,
-32.043,900.859,,
-29.461,900.859,,
-30.251,900.859,,
-29.662,900.859,,
-30.487,900.309,,
-32.467,900.309,,
-32.711,900.309,,
-35.419,900.309,,
-36.048,899.863,,
-35.944,899.863,,
-37.462,899.863,,
-36.512,899.863,,
-37.667,899.367,,
-37.989,899.367,,
-37.252,899.367,,
-39.175,899.367,,
-38.910,898.877,,
-39.926,898.877,,
-40.687,898.877,,
-39.670,898.877,,
-41.370,898.359,,
-41.256,898.359,,
-41.376,898.359,,
-41.907,898.359,,
-40.390,897.808,,
-41.670,897.808,,
-41.652,897.808,,
-41.551,897.808,,
-43.041,897.347,,
-41.672,897.347,,
-41.858,897.347,,
-41.141,897.347,,
-38.974,896.923,,
-39.202,896.923,,
-38.154,896.923,,
-39.151,896.923,,
-40.277,896.671,,
-39.388,896.671,,
-41.022,896.671,,
-40.879,896.671,,
-41.202,896.449,,
-42.623,896.449,,
-41.673,896.449,,
-42.911,896.449,,
-42.857,896.155,,
-42.124,896.155,,
-43.306,896.155,,
-42.587,896.155,,
-44.155,895.898,,
-45.110,895.898,,
-44.348,895.898,,
-45.712,895.898,,
-45.010,895.651,,
-45.669,895.651,,
-46.390,895.651,,
-44.872,895.651,,
-45.558,895.431,,
-45.036,895.431,,
-45.032,895.431,,
-46.177,895.431,,
-45.022,895.312,,
-46.038,895.312,,
-45.665,895.312,,
-44.771,895.312,,
-46.015,895.159,,
-45.431,895.159,,
-46.705,895.159,,
-47.280,895.159,,
-46.223,894.932,,
-47.409,894.932,,
-46.316,894.932,,
-46.411,894.932,,
-47.399,894.805,,
-46.876,894.805,,
-48.793,894.805,,
-48.678,894.805,,
-48.659,894.583,,
-49.626,894.583,,
-47.686,894.583,,
-47.531,894.583,,
-46.571,894.410,,
-45.064,894.410,,
-45.604,894.410,,
-44.284,894.410,,
-44.933,894.276,,
-44.654,894.276,,
-42.890,894.276,,
-43.535,894.276,,
-42.194,894.082,,
-42.522,894.082,,
-43.840,894.082,,
-43.366,894.082,,
-45.300,894.089,,
-45.241,894.089,,
-45.098,894.089,,
-46.494,894.089,,
-45.590,894.104,,
-46.653,894.104,,
-46.254,894.104,,
-44.923,894.104,,
-45.553,894.214,,
-44.359,894.214,,
-45.817,894.214,,
-47.121,894.214,,
-46.352,894.113,,
-47.190,894.113,,
-45.506,894.113,,
-45.009,894.113,,
-45.700,893.588,,
-44.388,893.588,,
-45.106,893.588,,
-43.654,893.588,,
-41.946,892.922,,
-41.689,892.922,,
-38.907,892.922,,
-38.190,892.922,,
-36.495,892.521,,
-34.023,892.521,,
-33.928,892.521,,
-31.950,892.521,,
-31.862,892.244,,
-31.981,892.244,,
-31.270,892.244,,
-33.017,892.244,,
-32.674,892.006,,
-33.065,892.006,,
-34.539,892.006,,
-34.550,892.006,,
-37.165,891.958,,
-38.021,891.958,,
-38.476,891.958,,
-40.100,891.958,,
-38.989,891.723,,
-39.863,891.723,,
-39.963,891.723,,
-39.023,891.723,,
-39.829,891.469,,
-38.167,891.469,,
-38.632,891.469,,
-39.553,891.469,,
-39.142,891.312,,
-41.184,891.312,,
-41.275,891.312,,
-41.768,891.312,,
-42.769,891.105,,
-41.468,891.105,,
-42.761,891.105,,
-42.853,891.105,,
-42.708,890.893,,
-44.020,890.893,,
-42.817,890.893,,
-43.793,890.893,,
-44.219,890.810,,
-43.868,890.810,,
-45.168,890.810,,
-43.758,890.810,,
-43.707,890.693,,
-43.897,890.693,,
-42.670,890.693,,
-44.011,890.693,,
-43.452,890.601,,
-43.837,890.601,,
-45.322,890.601,,
-44.265,890.601,,
-45.256,890.515,,
-44.915,890.515,,
-44.312,890.515,,
-44.791,890.515,,
-42.415,890.349,,
-42.460,890.349,,
-42.521,890.349,,
-41.906,890.349,,
-43.497,890.294,,
-42.571,890.294,,
-42.904,890.294,,
-43.650,890.294,,
-42.835,890.174,,
-44.176,890.174,,
-43.639,890.174,,
-43.790,890.174,,
-45.359,889.947,,
-45.133,889.947,,
-47.394,889.947,,
-48.270,889.947,,
-48.509,889.859,,
-50.156,889.859,,
-49.089,889.859,,
-49.255,889.859,,
-48.999,889.813,,
-47.650,889.813,,
-48.213,889.813,,
-46.725,889.813,,
-47.107,889.703,,
-48.126,889.703,,
-46.741,889.703,,
-47.738,889.703,,
-47.210,889.617,,
-46.956,889.617,,
-47.932,889.617,,
-45.825,889.617,,
-45.297,889.459,,
-43.933,889.459,,
-42.396,889.459,,
-42.949,889.459,,
-41.734,889.313,,
-42.871,889.313,,
-43.703,889.313,,
-43.021,889.313,,
-44.692,889.216,,
-44.088,889.216,,
-44.490,889.216,,
-45.619,889.216,,
-44.414,888.988,,
-45.350,888.988,,
-44.804,888.988,,
-44.454,888.988,,
-45.214,888.872,,
-43.430,888.872,,
-43.816,888.872,,
-43.651,888.872,,
-43.330,888.684,,
-45.252,888.684,,
-44.947,888.684,,
-46.184,888.684,,
-47.222,888.506,,
-46.421,888.506,,
-47.899,888.506,,
-47.387,888.506,,
-47.528,888.304,,
-47.581,888.304,,
-45.665,888.304,,
-46.378,888.304,,
-45.801,887.781,,
-45.351,887.781,,
-45.666,887.781,,
-43.606,887.781,,
-43.721,887.124,,
-42.409,887.124,,
-40.064,887.124,,
-39.697,887.124,,
-36.837,886.945,,
-35.878,886.945,,
-35.411,886.945,,
-33.994,886.945,,
-35.259,887.167,,
-35.039,887.167,,
-36.505,887.167,,
-38.854,887.167,,
-38.571,887.755,,
-40.335,887.755,,
-40.674,887.755,,
-40.740,887.755,,
-42.078,888.628,,
-41.208,888.628,,
-42.476,888.628,,
-42.747,888.628,,
-41.898,889.306,,
-43.126,889.306,,
-42.243,889.306,,
-42.937,889.306,,
-43.697,889.947,,
-42.613,889.947,,
-44.079,889.947,,
-44.097,889.947,,
-45.294,890.678,,
-47.244,890.678,,
-46.582,890.678,,
-47.907,890.678,,
-47.609,891.228,,
-46.980,891.228,,
-47.807,891.228,,
-46.035,891.228,,
-46.143,891.797,,
-45.539,891.797,,
-44.162,891.797,,
-44.965,891.797,,
-43.423,892.513,,
-43.364,892.513,,
-43.827,892.513,,
-42.702,892.513,,
-44.342,893.226,,
-44.322,893.226,,
-44.689,893.226,,
-45.769,893.226,,
-44.507,894.003,,
-44.997,894.003,,
-43.971,894.003,,
-43.043,894.003,,
-43.948,894.851,,
-42.781,894.851,,
-43.940,894.851,,
-44.871,894.851,,
-44.800,895.523,,
-46.977,895.523,,
-46.760,895.523,,
-47.666,895.523,,
-48.376,896.305,,
-47.206,896.305,,
-48.126,896.305,,
-46.734,896.305,,
-45.528,897.081,,
-45.408,897.081,,
-43.649,897.081,,
-44.668,897.081,,
-44.908,897.692,,
-45.005,897.692,,
-47.040,897.692,,
-47.112,897.692,,
-48.919,898.406,,
-49.478,898.406,,
-48.205,898.406,,
-48.900,898.406,,
-47.572,899.233,,
-47.911,899.233,,
-48.563,899.233,,
-47.384,899.233,,
-48.514,899.994,,
-47.603,899.994,,
-46.988,899.994,,
-47.395,899.994,,
-45.769,900.818,,
-46.464,900.818,,
-46.075,900.818,,
-45.346,900.818,,
-46.998,901.655,,
-46.621,901.655,,
-47.939,901.655,,
-48.926,901.655,,
-48.738,902.475,,
-50.421,902.475,,
-49.494,902.475,,
-49.448,902.475,,
-49.702,903.347,,
-47.948,903.347,,
-48.610,903.347,,
-47.746,903.347,,
-47.261,904.070,,
-48.068,904.070,,
-46.964,904.070,,
-48.440,904.070,,
-48.602,905.107,,
-47.679,905.107,,
-48.750,905.107,,
-47.503,905.107,,
-48.002,906.066,,
-48.265,906.066,,
-47.260,906.066,,
-48.411,906.066,,
-47.135,906.981,,
-47.098,906.981,,
-47.937,906.981,,
-46.656,906.981,,
-47.534,907.742,,
-46.726,907.742,,
-46.264,907.742,,
-47.210,907.742,,
-46.305,907.991,,
-47.926,907.991,,
-48.324,907.991,,
-47.271,907.991,,
-47.571,908.290,,
-44.999,908.290,,
-43.969,908.290,,
-43.066,908.290,,
-41.176,909.053,,
-41.620,909.053,,
-39.875,909.053,,
-38.949,909.053,,
-38.908,909.884,,
-37.356,909.884,,
-38.373,909.884,,
-38.036,909.884,,
-37.944,910.666,,
-39.367,910.666,,
-38.482,910.666,,
-40.091,910.666,,
-41.148,911.486,,
-41.553,911.486,,
-43.589,911.486,,
-42.754,911.486,,
-43.355,912.040,,
-43.715,912.040,,
-42.539,912.040,,
-43.575,912.040,,
-42.290,912.574,,
-41.546,912.574,,
-41.728,912.574,,
-40.107,912.574,,
-41.351,912.999,,
-41.752,912.999,,
-42.569,912.999,,
-44.907,912.999,,
-44.746,912.966,,
-46.851,912.966,,
-48.366,912.966,,
-48.776,912.966,,
-50.853,912.833,,
-49.969,912.833,,
-50.156,912.833,,
-50.422,912.833,,
-48.732,912.663,,
-48.861,912.663,,
-46.726,912.663,,
-45.266,912.663,,
-44.959,912.348,,
-42.739,912.348,,
-43.068,912.348,,
-42.329,912.348,,
-41.462,911.954,,
-41.979,911.954,,
-40.401,911.954,,
-41.544,911.954,,
-42.295,911.639,,
-41.995,911.639,,
-43.553,911.639,,
-42.691,911.639,,
-43.397,911.275,,
-44.677,911.275,,
-44.211,911.275,,
-46.214,911.275,,
-46.375,910.973,,
-46.666,910.973,,
-47.438,910.973,,
-46.058,910.973,,
-47.306,910.618,,
-47.233,910.618,,
-46.562,910.618,,
-47.458,910.618,,
-45.886,910.056,,
-46.471,910.056,,
-46.470,910.056,,
-45.469,910.056,,
-46.645,909.582,,
-45.389,909.582,,
-45.586,909.582,,
-46.253,909.582,,
-44.704,909.047,,
-45.302,909.047,,
-44.134,909.047,,
-43.275,909.047,,
-44.122,908.494,,
-43.831,908.494,,
-46.185,908.494,,
-46.832,908.494,,
-46.159,908.073,,
-46.636,908.073,,
-44.459,908.073,,
-44.163,908.073,,
-43.634,907.612,,
-42.410,907.612,,
-43.743,907.612,,
-43.035,907.612,,
-43.458,907.020,,
-44.146,907.020,,
-43.174,907.020,,
-44.851,907.020,,
-45.109,906.569,,
-45.582,906.569,,
-46.896,906.569,,
-45.276,906.569,,
-45.714,906.213,,
-45.057,906.213,,
-44.050,906.213,,
-45.040,906.213,,
-43.465,905.761,,
-43.550,905.761,,
-43.231,905.761,,
-41.737,905.761,,
-42.604,905.589,,
-41.433,905.589,,
-41.337,905.589,,
-41.924,905.589,,
-40.860,905.102,,
-42.762,905.102,,
-43.386,905.102,,
-44.571,905.102,,
-46.367,904.187,,
-44.859,904.187,,
-45.169,904.187,,
-44.123,904.187,,
-42.771,903.130,,
-43.263,903.130,,
-40.915,903.130,,
-39.774,903.130,,
-37.680,902.330,,
-34.369,902.330,,
-34.078,902.330,,
-32.377,902.330,,
-32.126,901.730,,
-32.864,901.730,,
-31.997,901.730,,
-33.757,901.730,,
-34.335,901.321,,
-35.244,901.321,,
-37.178,901.321,,
-36.538,901.321,,
-37.857,900.859,,
-38.575,900.859,,
-38.915,900.859,,
-41.009,900.859,,
-40.390,900.318,,
-41.007,900.318,,
-41.297,900.318,,
-40.021,900.318,,
-41.006,899.883,,
-40.115,899.883,,
-39.795,899.883,,
-39.867,899.883,,
-38.222,899.442,,
-39.344,899.442,,
-39.262,899.442,,
-39.269,899.442,,
-40.307,899.017,,
-39.031,899.017,,
-40.181,899.017,,
-40.934,899.017,,
-41.202,898.582,,
-43.229,898.582,,
-42.491,898.582,,
-43.103,898.582,,
-43.576,898.272,,
-42.520,898.272,,
-43.536,898.272,,
-42.425,898.272,,
-42.204,898.061,,
-42.832,898.061,,
-41.685,898.061,,
-43.076,898.061,,
-42.749,897.798,,
-42.213,897.798,,
-43.137,897.798,,
-41.721,897.798,,
-41.977,897.487,,
-41.543,897.487,,
-40.655,897.487,,
-42.333,897.487,,
-41.839,897.239,,
-42.635,897.239,,
-43.624,897.239,,
-43.233,897.239,,
-45.003,896.987,,
-44.512,896.987,,
-44.469,896.987,,
-45.039,896.987,,
-43.195,896.745,,
-43.817,896.745,,
-43.259,896.745,,
-42.795,896.745,,
-44.204,896.540,,
-43.374,896.540,,
-44.489,896.540,,
-44.634,896.540,,
-43.686,896.215,,
-45.030,896.215,,
-44.218,896.215,,
-45.036,896.215,,
-45.891,895.951,,
-44.771,895.951,,
-46.188,895.951,,
-45.812,895.951,,
-46.007,895.683,,
-46.521,895.683,,
-44.606,895.683,,
-45.225,895.683,,
-44.679,895.342,,
-44.205,895.342,,
-45.466,895.342,,
-43.897,895.342,,
-43.372,895.089,,
-41.806,895.089,,
-39.774,895.089,,
-40.963,895.089,,
-40.842,894.847,,
-42.398,894.847,,
-44.073,894.847,,
-43.797,894.847,,
-45.767,894.647,,
-45.391,894.647,,
-45.468,894.647,,
-46.554,894.647,,
-45.567,894.519,,
-46.744,894.519,,
-46.657,894.519,,
-46.475,894.519,,
-47.804,894.324,,
-46.520,894.324,,
-46.930,894.324,,
-46.681,894.324,,
-45.173,894.145,,
-45.871,894.145,,
-44.467,894.145,,
-44.658,894.145,,
-45.455,894.142,,
-44.545,894.142,,
-46.255,894.142,,
-45.904,894.142,,
-45.485,894.119,,
-45.940,894.119,,
-44.369,894.119,,
-45.245,894.119,,
-44.842,894.083,,
-43.928,894.083,,
-44.683,894.083,,
-43.682,894.083,,
-45.111,893.814,,
-45.947,893.814,,
-45.260,893.814,,
-46.501,893.814,,
-45.481,893.049,,
-45.506,893.049,,
-45.569,893.049,,
-43.108,893.049,,
-42.614,892.465,,
-40.125,892.465,,
-38.051,892.465,,
-37.471,892.465,,
-35.314,892.109,,
-35.814,892.109,,
-35.239,892.109,,
-34.616,892.109,,
-36.275,891.870,,
-35.986,891.870,,
-37.823,891.870,,
-39.487,891.870,,
-39.728,891.792,,
-42.120,891.792,,
-41.763,891.792,,
-41.909,891.792,,
-42.354,891.745,,
-41.206,891.745,,
-42.242,891.745,,
-41.554,891.745,,
-41.394,891.531,,
-42.696,891.531,,
-41.724,891.531,,
-42.925,891.531,,
-43.158,891.473,,
-42.780,891.473,,
-44.244,891.473,,
-43.296,891.473,,
-43.854,891.450,,
-43.727,891.450,,
-41.935,891.450,,
-42.628,891.450,,
-41.810,891.239,,
-42.237,891.239,,
-43.023,891.239,,
-41.768,891.239,,
-42.910,891.106,,
-42.432,891.106,,
-42.237,891.106,,
-43.513,891.106,,
-42.393,890.977,,
-43.152,890.977,,
-42.717,890.977,,
-41.440,890.977,,
-42.328,890.949,,
-41.184,890.949,,
-41.849,890.949,,
-42.550,890.949,,
-41.745,890.978,,
-43.101,890.978,,
-42.402,890.978,,
-42.772,890.978,,
-43.729,890.997,,
-42.562,890.997,,
-44.006,890.997,,
-43.890,890.997,,
-43.663,891.007,,
-44.886,891.007,,
-43.977,891.007,,
-45.125,891.007,,
-45.187,891.061,,
-44.499,891.061,,
-46.306,891.061,,
-46.073,891.061,,
-47.481,891.001,,
-48.469,891.001,,
-47.515,891.001,,
-48.425,891.001,,
-47.067,890.942,,
-46.567,890.942,,
-46.623,890.942,,
-44.698,890.942,,
-45.479,890.928,,
-45.020,890.928,,
-44.547,890.928,,
-45.776,890.928,,
-44.571,890.791,,
-45.069,890.791,,
-44.435,890.791,,
-42.725,890.791,,
-43.469,890.754,,
-42.577,890.754,,
-43.367,890.754,,
-44.358,890.754,,
-44.273,890.700,,
-46.872,890.700,,
-47.064,890.700,,
-47.137,890.700,,
-47.675,890.599,,
-46.119,890.599,,
-46.848,890.599,,
-45.920,890.599,,
-44.784,890.568,,
-45.344,890.568,,
-43.796,890.568,,
-44.395,890.568,,
-44.475,890.582,,
-43.818,890.582,,
-45.047,890.582,,
-43.745,890.582,,
-43.800,890.511,,
-43.949,890.511,,
-42.759,890.511,,
-44.032,890.511,,
-43.165,890.455,,
-42.670,890.455,,
-43.163,890.455,,
-41.779,890.455,,
-42.681,890.420,,
-42.351,890.420,,
-42.383,890.420,,
-44.228,890.420,,
-43.771,890.414,,
-45.271,890.414,,
-46.140,890.414,,
-45.957,890.414,,
-47.556,890.556,,
-46.743,890.556,,
-47.216,890.556,,
-47.712,890.556,,
-46.140,890.658,,
-46.495,890.658,,
-45.043,890.658,,
-44.387,890.658,,
-45.247,890.565,,
-44.700,890.565,,
-46.683,890.565,,
-46.938,890.565,,
-46.551,890.174,,
-47.258,890.174,,
-45.183,890.174,,
-44.759,890.174,,
-43.379,889.740,,
-40.543,889.740,,
-39.749,889.740,,
-37.087,889.740,,
-35.901,889.487,,
-35.278,889.487,,
-33.469,889.487,,
-34.638,889.487,,
-33.927,889.408,,
-33.591,889.408,,
-34.298,889.408,,
-33.007,889.408,,
-34.069,889.341,,
-34.060,889.341,,
-34.297,889.341,,
-36.421,889.341,,
-36.470,889.360,,
-38.286,889.360,,
-39.086,889.360,,
-38.471,889.360,,
-40.192,889.333,,
-39.981,889.333,,
-40.837,889.333,,
-41.956,889.333,,
-41.265,889.256,,
-42.623,889.256,,
-42.102,889.256,,
-41.784,889.256,,
-42.358,889.376,,
-40.782,889.376,,
-41.699,889.376,,
-41.901,889.376,,
-42.192,889.390,,
-44.266,889.390,,
-43.751,889.390,,
-44.784,889.390,,
-45.390,889.404,,
-44.848,889.404,,
-46.089,889.404,,
-44.541,889.404,,
-43.690,889.603,,
-42.835,889.603,,
-40.348,889.603,,
-40.490,889.603,,
-39.293,889.803,,
-38.779,889.803,,
-39.795,889.803,,
-38.758,889.803,,
-40.069,890.034,,
-40.189,890.034,,
-39.845,890.034,,
-41.376,890.034,,
-40.764,890.377,,
-42.163,890.377,,
-43.029,890.377,,
-42.263,890.377,,
-43.465,890.799,,
-42.415,890.799,,
-42.448,890.799,,
-43.337,890.799,,
-42.870,891.184,,
-44.771,891.184,,
-44.581,891.184,,
-44.425,891.184,,
-45.468,891.675,,
-44.106,891.675,,
-45.287,891.675,,
-45.615,891.675,,
-45.006,892.019,,
-46.121,892.019,,
-45.046,892.019,,
-45.669,892.019,,
-45.929,892.504,,
-45.262,892.504,,
-46.997,892.504,,
-46.722,892.504,,
-47.515,893.094,,
-48.512,893.094,,
-47.524,893.094,,
-48.694,893.094,,
-47.939,893.574,,
-47.373,893.574,,
-48.039,893.574,,
-46.335,893.574,,
-46.966,894.168,,
-46.680,894.168,,
-45.818,894.168,,
-46.898,894.168,,
-45.556,894.810,,
-45.927,894.810,,
-46.215,894.810,,
-45.408,894.810,,
-46.833,895.502,,
-46.011,895.502,,
-46.281,895.502,,
-47.112,895.502,,
-46.038,896.355,,
-47.532,896.355,,
-47.381,896.355,,
-47.072,896.355,,
-48.229,897.263,,
-46.833,897.263,,
-47.288,897.263,,
-46.682,897.263,,
-46.058,898.053,,
-48.015,898.053,,
-47.849,898.053,,
-49.387,898.053,,
-50.750,898.958,,
-50.472,898.958,,
-52.072,898.958,,
-51.288,898.958,,
-50.786,899.976,,
-50.689,899.976,,
-48.354,899.976,,
-48.474,899.976,,
-47.516,900.910,,
-46.841,900.910,,
-47.651,900.910,,
-46.433,900.910,,
-47.708,901.951,,
-48.162,901.951,,
-47.249,901.951,,
-48.026,901.951,,
-46.116,902.793,,
-45.618,902.793,,
-45.288,902.793,,
-43.801,902.793,,
-45.216,903.128,,
-45.141,903.128,,
-46.404,903.128,,
-48.504,903.128,,
-47.817,903.326,,
-48.749,903.326,,
-47.428,903.326,,
-45.336,903.326,,
-44.239,903.920,,
-40.775,903.920,,
-39.597,903.920,,
-37.898,903.920,,
-35.752,904.643,,
-35.884,904.643,,
-33.961,904.643,,
-34.004,904.643,,
-34.753,905.524,,
-34.786,905.524,,
-37.374,905.524,,
-37.902,905.524,,
-39.165,906.441,,
-41.252,906.441,,
-41.325,906.441,,
-43.824,906.441,,
-44.726,907.246,,
-45.049,907.246,,
-46.576,907.246,,
-45.861,907.246,,
-47.395,908.053,,
-48.101,908.053,,
-47.637,908.053,,
-48.635,908.053,,
-46.607,908.866,,
-45.967,908.866,,
-46.051,908.866,,
-44.954,908.866,,
-46.540,909.575,,
-46.443,909.575,,
-47.156,909.575,,
-48.687,909.575,,
-47.952,910.321,,
-49.274,910.321,,
-49.081,910.321,,
-48.422,910.321,,
-49.035,911.178,,
-47.071,911.178,,
-47.179,911.178,,
-47.052,911.178,,
-46.248,912.057,,
-47.796,912.057,,
-47.237,912.057,,
-48.110,912.057,,
-49.210,912.830,,
-48.512,912.830,,
-49.833,912.830,,
-49.333,912.830,,
-49.229,913.446,,
-49.851,913.446,,
-48.446,913.446,,
-49.562,913.446,,
-49.373,914.065,,
-48.669,914.065,,
-49.600,914.065,,
-48.122,914.065,,
-48.249,914.471,,
-47.960,914.471,,
-46.938,914.471,,
-48.372,914.471,,
-47.561,914.571,,
-48.086,914.571,,
-48.819,914.571,,
-47.795,914.571,,
-49.094,914.603,,
-48.529,914.603,,
-48.193,914.603,,
-48.501,914.603,,
-46.644,914.442,,
-47.067,914.442,,
-46.202,914.442,,
-45.407,914.442,,
-46.486,914.209,,
-45.021,914.209,,
-45.675,914.209,,
-46.062,914.209,,
-45.596,914.011,,
-47.118,914.011,,
-46.423,914.011,,
-47.046,914.011,,
-47.731,913.773,,
-46.516,913.773,,
-47.807,913.773,,
-47.232,913.773,,
-46.499,913.546,,
-46.159,913.546,,
-43.850,913.546,,
-44.334,913.546,,
-44.267,913.295,,
-44.292,913.295,,
-46.234,913.295,,
-45.518,913.295,,
-46.107,912.939,,
-46.013,912.939,,
-44.723,912.939,,
-45.670,912.939,,
-44.391,912.695,,
-44.343,912.695,,
-44.846,912.695,,
-43.786,912.695,,
-45.084,912.544,,
-44.795,912.544,,
-44.842,912.544,,
-45.949,912.544,,
-44.925,912.138,,
-46.215,912.138,,
-46.293,912.138,,
-45.701,912.138,,
-46.609,911.940,,
-45.365,911.940,,
-45.866,911.940,,
-45.869,911.940,,
-44.175,911.474,,
-44.650,911.474,,
-43.145,911.474,,
-43.102,911.474,,
-43.846,910.549,,
-42.794,910.549,,
-44.212,910.549,,
-44.022,910.549,,
-43.652,909.688,,
-43.755,909.688,,
-41.053,909.688,,
-40.184,909.688,,
-38.308,909.169,,
-36.175,909.169,,
-35.878,909.169,,
-33.264,909.169,,
-32.652,908.587,,
-32.159,908.587,,
-30.949,908.587,,
-32.454,908.587,,
-32.536,908.196,,
-33.965,908.196,,
-35.621,908.196,,
-35.457,908.196,,
-37.959,907.733,,
-38.705,907.733,,
-39.236,907.733,,
-40.762,907.733,,
-40.107,907.112,,
-41.602,907.112,,
-41.764,907.112,,
-41.383,907.112,,
-42.874,906.776,,
-41.599,906.776,,
-42.084,906.776,,
-42.622,906.776,,
-41.896,906.361,,
-43.369,906.361,,
-42.866,906.361,,
-43.446,906.361,,
-44.324,905.812,,
-43.176,905.812,,
-44.808,905.812,,
-45.119,905.812,,
-45.328,905.328,,
-46.411,905.328,,
-44.572,905.328,,
-44.692,905.328,,
-43.990,904.876,,
-42.961,904.876,,
-44.073,904.876,,
-43.043,904.876,,
-43.392,904.409,,
-43.193,904.409,,
-41.645,904.409,,
-43.077,904.409,,
-42.904,903.881,,
-43.761,903.881,,
-44.928,903.881,,
-43.535,903.881,,
-44.085,903.247,,
-42.847,903.247,,
-41.847,903.247,,
-42.743,903.247,,
-41.760,902.615,,
-42.921,902.615,,
-43.218,902.615,,
-42.575,902.615,,
-43.897,902.164,,
-42.994,902.164,,
-43.317,902.164,,
-43.267,902.164,,
-41.869,901.648,,
-43.126,901.648,,
-42.636,901.648,,
-42.934,901.648,,
-43.832,901.075,,
-42.708,901.075,,
-43.846,901.075,,
-43.547,901.075,,
-43.338,900.387,,
-44.513,900.387,,
-43.315,900.387,,
-44.171,900.387,,
-43.965,899.822,,
-43.016,899.822,,
-44.396,899.822,,
-43.902,899.822,,
-45.316,899.369,,
-46.561,899.369,,
-45.906,899.369,,
-47.081,899.369,,
-45.576,898.883,,
-44.831,898.883,,
-45.254,898.883,,
-44.219,898.883,,
-45.929,898.460,,
-46.289,898.460,,
-46.599,898.460,,
-47.984,898.460,,
-46.170,898.050,,
-45.742,898.050,,
-44.197,898.050,,
-42.292,898.050,,
-43.094,897.500,,
-42.187,897.500,,
-42.934,897.500,,
-43.358,897.500,,
-42.382,896.882,,
-43.929,896.882,,
-43.400,896.882,,
-43.383,896.882,,
-44.125,896.567,,
-43.099,896.567,,
-44.131,896.567,,
-43.626,896.567,,
-42.723,896.214,,
-43.230,896.214,,
-41.628,896.214,,
-42.344,896.214,,
-42.445,896.119,,
-41.695,896.119,,
-43.282,896.119,,
-43.129,896.119,,
-44.097,895.961,,
-44.565,895.961,,
-43.005,895.961,,
-43.593,895.961,,
-42.291,895.271,,
-41.760,895.271,,
-42.278,895.271,,
-40.906,895.271,,
-41.749,894.492,,
-40.707,894.492,,
-39.390,894.492,,
-39.360,894.492,,
-36.948,893.953,,
-36.620,893.953,,
-35.766,893.953,,
-34.119,893.953,,
-34.539,893.524,,
-33.322,893.524,,
-34.031,893.524,,
-35.163,893.524,,
-34.902,893.334,,
-37.264,893.334,,
-37.766,893.334,,
-38.516,893.334,,
-39.815,893.205,,
-38.916,893.205,,
-40.447,893.205,,
-40.685,893.205,,
-40.688,892.921,,
-42.041,892.921,,
-41.042,892.921,,
-41.970,892.921,,
-41.891,892.747,,
-40.520,892.747,,
-41.233,892.747,,
-40.208,892.747,,
-40.656,892.575,,
-41.049,892.575,,
-39.639,892.575,,
-40.820,892.575,,
-40.472,892.381,,
-40.496,892.381,,
-41.386,892.381,,
-40.585,892.381,,
-42.233,892.248,,
-42.515,892.248,,
-42.590,892.248,,
-44.021,892.248,,
-42.811,892.104,,
-43.723,892.104,,
-43.907,892.104,,
-42.969,892.104,,
-44.372,892.108,,
-43.779,892.108,,
-44.634,892.108,,
-45.518,892.108,,
-44.662,892.120,,
-45.902,892.120,,
-44.846,892.120,,
-44.179,892.120,,
-44.695,892.077,,
-43.181,892.077,,
-44.025,892.077,,
-43.775,892.077,,
-43.585,892.041,,
-45.204,892.041,,
-44.064,892.041,,
-44.509,892.041,,
-44.650,892.072,,
-43.651,892.072,,
-44.842,892.072,,
-44.076,892.072,,
-44.315,891.980,,
-44.446,891.980,,
-43.104,891.980,,
-44.603,891.980,,
-44.400,891.917,,
-44.573,891.917,,
-45.744,891.917,,
-44.802,891.917,,
-46.273,891.888,,
-46.147,891.888,,
-45.296,891.888,,
-45.959,891.888,,
-44.166,891.791,,
-44.324,891.791,,
-44.225,891.791,,
-43.311,891.791,,
-44.851,891.783,,
-44.020,891.783,,
-44.051,891.783,,
-44.223,891.783,,
-42.928,891.747,,
-44.281,891.747,,
-43.811,891.747,,
-44.035,891.747,,
-45.407,891.665,,
-44.272,891.665,,
-45.402,891.665,,
-45.267,891.665,,
-44.644,891.577,,
-45.553,891.577,,
-44.060,891.577,,
-44.728,891.577,,
-45.378,891.527,,
-44.860,891.527,,
-46.202,891.527,,
-45.380,891.527,,
-45.441,891.450,,
-45.508,891.450,,
-44.132,891.450,,
-45.774,891.450,,
-45.743,891.438,,
-45.678,891.438,,
-46.172,891.438,,
-44.485,891.438,,
-45.463,891.346,,
-45.644,891.346,,
-45.400,891.346,,
-46.897,891.346,,
-45.716,891.369,,
-45.826,891.369,,
-45.582,891.369,,
-44.456,891.369,,
-45.808,891.556,,
-44.864,891.556,,
-44.844,891.556,,
-45.055,891.556,,
-43.518,891.692,,
-44.541,891.692,,
-44.094,891.692,,
-44.191,891.692,,
-45.192,891.613,,
-43.897,891.613,,
-45.029,891.613,,
-45.333,891.613,,
-45.083,891.181,,
-45.850,891.181,,
-43.431,891.181,,
-42.436,891.181,,
-41.135,890.656,,
-38.618,890.656,,
-38.489,890.656,,
-36.536,890.656,,
-35.979,890.321,,
-35.846,890.321,,
-34.274,890.321,,
-35.465,890.321,,
-34.949,890.139,,
-34.786,890.139,,
-36.116,890.139,,
-35.393,890.139,,
-37.007,890.115,,
-37.764,890.115,,
-38.052,890.115,,
-40.104,890.115,,
-39.488,890.171,,
-40.293,890.171,,
-40.874,890.171,,
-39.900,890.171,,
-41.200,890.149,,
-40.406,890.149,,
-40.429,890.149,,
-40.848,890.149,,
-39.545,890.057,,
-40.977,890.057,,
-40.698,890.057,,
-40.500,890.057,,
-41.526,890.209,,
-39.984,890.209,,
-40.643,890.209,,
-40.954,890.209,,
-41.395,890.250,,
-43.876,890.250,,
-43.572,890.250,,
-44.697,890.250,,
-45.801,890.190,,
-45.535,890.190,,
-47.264,890.190,,
-46.462,890.190,,
-45.806,890.315,,
-45.484,890.315,,
-43.539,890.315,,
-44.578,890.315,,
-44.291,890.458,,
-44.448,890.458,,
-45.956,890.458,,
-44.940,890.458,,
-46.078,890.604,,
-46.267,890.604,,
-45.660,890.604,,
-46.738,890.604,,
-45.294,890.857,,
-45.600,890.857,,
-45.855,890.857,,
-44.677,890.857,,
-45.510,891.105,,
-44.500,891.105,,
-44.655,891.105,,
-45.574,891.105,,
-44.418,891.343,,
-45.668,891.343,,
-45.370,891.343,,
-45.105,891.343,,
-45.852,891.659,,
-44.269,891.659,,
-45.328,891.659,,
-45.902,891.659,,
-45.848,891.848,,
-47.615,891.848,,
-46.936,891.848,,
-47.695,891.848,,
-47.914,892.105,,
-46.373,892.105,,
-46.974,892.105,,
-45.475,892.105,,
-45.016,892.529,,
-45.318,892.529,,
-43.774,892.529,,
-44.758,892.529,,
-44.352,892.983,,
-43.983,892.983,,
-45.074,892.983,,
-43.896,892.983,,
-44.645,893.497,,
-44.323,893.497,,
-43.134,893.497,,
-43.923,893.497,,
-42.715,893.979,,
-43.579,893.979,,
-44.697,893.979,,
-44.066,893.979,,
-45.382,894.527,,
-44.497,894.527,,
-44.198,894.527,,
-44.351,894.527,,
-42.547,895.394,,
-42.976,895.394,,
-42.030,895.394,,
-41.419,895.394,,
-42.420,896.501,,
-41.600,896.501,,
-43.196,896.501,,
-43.887,896.501,,
-43.345,897.259,,
-44.345,897.259,,
-43.003,897.259,,
-43.691,897.259,,
-44.815,897.991,,
-44.313,897.991,,
-45.551,897.991,,
-44.505,897.991,,
-44.227,898.539,,
-45.029,898.539,,
-43.893,898.539,,
-45.121,898.539,,
-44.690,898.981,,
-43.874,898.981,,
-44.341,898.981,,
-42.625,898.981,,
-43.163,899.829,,
-43.158,899.829,,
-42.442,899.829,,
-43.688,899.829,,
-42.778,900.722,,
-43.931,900.722,,
-45.098,900.722,,
-44.358,900.722,,
-45.476,901.635,,
-44.681,901.635,,
-44.403,901.635,,
-44.902,901.635,,
-43.734,902.187,,
-45.136,902.187,,
-44.984,902.187,,
-44.582,902.187,,
-44.938,902.254,,
-42.503,902.254,,
-42.246,902.254,,
-41.624,902.254,,
-40.017,902.417,,
-40.170,902.417,,
-38.171,902.417,,
-37.796,902.417,,
-37.433,902.986,,
-35.421,902.986,,
-35.708,902.986,,
-34.447,902.986,,
-34.537,903.530,,
-35.847,903.530,,
-35.363,903.530,,
-37.361,903.530,,
-38.070,904.205,,
-38.864,904.205,,
-41.178,904.205,,
-41.203,904.205,,
-42.914,904.957,,
-43.746,904.957,,
-43.460,904.957,,
-44.790,904.957,,
-43.972,905.461,,
-45.215,905.461,,
-46.872,905.461,,
-46.598,905.461,,
-47.841,906.204,,
-46.613,906.204,,
-45.660,906.204,,
-45.600,906.204,,
-44.039,907.019,,
-45.038,907.019,,
-44.924,907.019,,
-44.914,907.019,,
-46.194,907.697,,
-45.043,907.697,,
-45.893,907.697,,
-46.464,907.697,,
-46.431,908.435,,
-48.480,908.435,,
-47.751,908.435,,
-47.854,908.435,,
-47.840,909.201,,
-46.169,909.201,,
-46.839,909.201,,
-45.841,909.201,,
-45.469,909.723,,
-45.970,909.723,,
-44.589,909.723,,
-46.138,909.723,,
-46.638,910.290,,
-46.699,910.290,,
-47.975,910.290,,
-46.816,910.290,,
-47.729,910.763,,
-48.435,910.763,,
-48.356,910.763,,
-50.146,910.763,,
-48.887,911.094,,
-48.407,911.094,,
-48.312,911.094,,
-46.924,911.094,,
-47.649,911.367,,
-46.383,911.367,,
-45.719,911.367,,
-45.876,911.367,,
-44.363,911.257,,
-45.670,911.257,,
-45.800,911.257,,
-45.826,911.257,,
-47.339,910.953,,
-46.584,910.953,,
-47.695,910.953,,
-47.604,910.953,,
-46.707,910.697,,
-48.323,910.697,,
-47.678,910.697,,
-48.412,910.697,,
-49.253,910.354,,
-47.973,910.354,,
-48.344,910.354,,
-46.459,910.354,,
-45.238,910.012,,
-45.443,910.012,,
-44.093,910.012,,
-45.537,910.012,,
-46.062,909.718,,
-46.000,909.718,,
-47.234,909.718,,
-45.792,909.718,,
-46.008,909.285,,
-45.921,909.285,,
-45.296,909.285,,
-46.956,909.285,,
-45.720,908.859,,
-45.349,908.859,,
-45.764,908.859,,
-45.116,908.859,,
-47.254,908.494,,
-47.214,908.494,,
-47.141,908.494,,
-47.950,908.494,,
-46.342,907.992,,
-46.765,907.992,,
-46.222,907.992,,
-45.877,907.992,,
-47.181,907.641,,
-46.219,907.641,,
-47.127,907.641,,
-47.067,907.641,,
-45.372,907.289,,
-45.939,907.289,,
-44.272,907.289,,
-43.967,907.289,,
-44.192,906.898,,
-42.843,906.898,,
-43.452,906.898,,
-42.256,906.898,,
-42.068,906.456,,
-43.197,906.456,,
-41.893,906.456,,
-42.661,906.456,,
-42.447,906.081,,
-41.859,906.081,,
-42.811,906.081,,
-41.721,906.081,,
-42.742,905.389,,
-43.403,905.389,,
-42.962,905.389,,
-44.392,905.389,,
-43.230,904.321,,
-42.724,904.321,,
-42.512,904.321,,
-40.543,904.321,,
-40.665,903.297,,
-39.158,903.297,,
-38.061,903.297,,
-37.798,903.297,,
-35.118,902.527,,
-34.739,902.527,,
-33.433,902.527,,
-32.103,902.527,,
-33.016,901.926,,
-32.541,901.926,,
-34.546,901.926,,
-36.262,901.926,,
-37.020,901.357,,
-40.257,901.357,,
-41.177,901.357,,
-42.551,901.357,,
-43.636,900.739,,
-42.763,900.739,,
-44.205,900.739,,
-43.996,900.739,,
-44.223,900.104,,
-45.418,900.104,,
-43.759,900.104,,
-43.870,900.104,,
-42.781,899.572,,
-41.716,899.572,,
-42.585,899.572,,
-41.524,899.572,,
-42.336,899.035,,
-42.567,899.035,,
-41.260,899.035,,
-41.793,899.035,,
-40.329,898.431,,
-40.630,898.431,,
-41.861,898.431,,
-41.148,898.431,,
-42.184,897.918,,
-41.205,897.918,,
-40.599,897.918,,
-41.532,897.918,,
-40.422,897.534,,
-41.192,897.534,,
-40.871,897.534,,
-40.466,897.534,,
-42.101,897.208,,
-41.251,897.208,,
-42.172,897.208,,
-42.534,897.208,,
-41.636,896.767,,
-42.701,896.767,,
-41.660,896.767,,
-41.944,896.767,,
-42.870,896.461,,
-42.026,896.461,,
-43.313,896.461,,
-42.729,896.461,,
-42.500,896.159,,
-43.665,896.159,,
-42.541,896.159,,
-43.589,896.159,,
-43.085,895.822,,
-42.048,895.822,,
-43.268,895.822,,
-42.847,895.822,,
-44.263,895.568,,
-45.210,895.568,,
-44.844,895.568,,
-46.373,895.568,,
-45.657,895.270,,
-46.132,895.270,,
-46.902,895.270,,
-45.813,895.270,,
-46.940,894.946,,
-45.948,894.946,,
-44.925,894.946,,
-45.238,894.946,,
-43.733,894.693,,
-44.407,894.693,,
-43.973,894.693,,
-43.154,894.693,,
-44.188,894.387,,
-43.069,894.387,,
-43.675,894.387,,
-44.215,894.387,,
-43.311,894.016,,
-44.198,894.016,,
-42.769,894.016,,
-42.810,894.016,,
-43.743,893.782,,
-42.859,893.782,,
-43.834,893.782,,
-43.015,893.782,,
-42.770,893.520,,
-43.967,893.520,,
-42.829,893.520,,
-43.523,893.520,,
-43.106,893.318,,
-42.201,893.318,,
-43.109,893.318,,
-41.941,893.318,,
-42.403,893.185,,
-42.671,893.185,,
-42.243,893.185,,
-43.986,893.185,,
-43.367,892.942,,
-43.522,892.942,,
-44.090,892.942,,
-42.938,892.942,,
-44.088,892.835,,
-43.664,892.835,,
-43.601,892.835,,
-44.770,892.835,,
-43.546,892.832,,
-44.618,892.832,,
-44.481,892.832,,
-43.361,892.832,,
-43.716,892.839,,
-42.379,892.839,,
-43.107,892.839,,
-43.482,892.839,,
-42.590,892.844,,
-43.914,892.844,,
-43.398,892.844,,
-44.316,892.844,,
-45.861,892.620,,
-45.082,892.620,,
-45.879,892.620,,
-44.696,892.620,,
-43.398,891.930,,
-43.391,891.930,,
-41.484,891.930,,
-41.502,891.930,,
-40.404,891.459,,
-38.388,891.459,,
-38.143,891.459,,
-36.124,891.459,,
-36.383,891.112,,
-36.579,891.112,,
-35.239,891.112,,
-36.136,891.112,,
-35.129,890.894,,
-34.796,890.894,,
-35.133,890.894,,
-33.859,890.894,,
-35.338,890.877,,
-35.883,890.877,,
-36.877,890.877,,
-39.223,890.877,,
-39.297,890.771,,
-40.958,890.771,,
-41.286,890.771,,
-40.800,890.771,,
-41.883,890.574,,
-40.462,890.574,,
-40.572,890.574,,
-40.515,890.574,,
-39.136,890.499,,
-40.319,890.499,,
-39.753,890.499,,
-39.603,890.499,,
-40.131,890.427,,
-39.431,890.427,,
-41.535,890.427,,
-42.299,890.427,,
-42.975,890.234,,
-44.504,890.234,,
-43.390,890.234,,
-44.382,890.234,,
-44.758,890.132,,
-44.404,890.132,,
-45.758,890.132,,
-44.409,890.132,,
-44.667,890.046,,
-45.021,890.046,,
-43.654,890.046,,
-44.244,890.046,,
-42.736,889.956,,
-41.868,889.956,,
-41.950,889.956,,
-40.671,889.956,,
-41.393,889.956,,
-40.016,889.956,,
-38.640,889.956,,
-39.045,889.956,,
-37.887,889.916,,
-39.510,889.916,,
-40.583,889.916,,
-40.726,889.916,,
-42.501,889.949,,
-41.747,889.949,,
-42.207,889.949,,
-42.395,889.949,,
-41.373,889.970,,
-42.496,889.970,,
-41.559,889.970,,
-41.294,889.970,,
-41.779,889.913,,
-40.966,889.913,,
-42.936,889.913,,
-43.224,889.913,,
-43.060,889.864,,
-44.238,889.864,,
-43.107,889.864,,
-43.968,889.864,,
-44.436,889.873,,
-44.126,889.873,,
-45.131,889.873,,
-43.515,889.873,,
-43.529,889.790,,
-43.519,889.790,,
-42.300,889.790,,
-43.544,889.790,,
-42.665,889.764,,
-42.358,889.764,,
-42.514,889.764,,
-40.718,889.764,,
-41.431,889.735,,
-40.894,889.735,,
-40.222,889.735,,
-41.148,889.735,,
-40.286,889.624,,
-41.518,889.624,,
-41.774,889.624,,
-41.044,889.624,,
-42.093,889.682,,
-41.129,889.682,,
-41.936,889.682,,
-42.809,889.682,,
-42.080,889.704,,
-43.172,889.704,,
-42.321,889.704,,
-42.352,889.704,,
-43.289,889.669,,
-42.313,889.669,,
-43.153,889.669,,
-42.380,889.669,,
-41.584,889.696,,
-42.366,889.696,,
-41.121,889.696,,
-41.522,889.696,,
-40.971,889.788,,
-39.656,889.788,,
-40.128,889.788,,
-38.133,889.788,,
-37.673,889.896,,
-37.768,889.896,,
-36.808,889.896,,
-38.217,889.896,,
-37.938,890.213,,
-38.314,890.213,,
-39.230,890.213,,
-38.156,890.213,,
-39.228,890.518,,
-39.258,890.518,,
-39.602,890.518,,
-41.627,890.518,,
-41.431,890.481,,
-43.063,890.481,,
-43.989,890.481,,
-43.939,890.481,,
-45.479,890.312,,
-44.183,890.312,,
-43.777,890.312,,
-42.740,890.312,,
-39.755,890.244,,
-38.997,890.244,,
-36.462,890.244,,
-34.738,890.244,,
-34.114,890.401,,
-31.866,890.401,,
-32.276,890.401,,
-31.738,890.401,,
-31.656,890.789,,
-33.796,890.789,,
-33.906,890.789,,
-35.928,890.789,,
-36.849,891.290,,
-36.831,891.290,,
-38.769,891.290,,
-38.326,891.290,,
-38.883,891.797,,
-39.480,891.797,,
-38.603,891.797,,
-39.659,891.797,,
-38.791,892.301,,
-38.808,892.301,,
-39.690,892.301,,
-38.533,892.301,,
-39.376,892.867,,
-38.652,892.867,,
-38.015,892.867,,
-39.411,892.867,,
-38.981,893.413,,
-40.265,893.413,,
-40.755,893.413,,
-40.397,893.413,,
-41.991,893.756,,
-41.331,893.756,,
-41.707,893.756,,
-41.875,893.756,,
-40.381,893.998,,
-41.375,893.998,,
-40.924,893.998,,
-41.294,893.998,,
-42.389,894.439,,
-41.339,894.439,,
-42.150,894.439,,
-41.387,894.439,,
-40.737,895.805,,
-41.967,895.805,,
-41.013,895.805,,
-41.905,895.805,,
-42.112,897.162,,
-40.998,897.162,,
-41.703,897.162,,
-40.579,897.162,,
-40.972,896.045,,
-41.315,896.045,,
-40.033,896.045,,
-40.807,896.045,,
-39.673,894.570,,
-39.306,894.570,,
-39.926,894.570,,
-38.540,894.570,,
-39.054,893.429,,
-38.273,893.429,,
-37.024,893.429,,
-37.368,893.429,,
-35.877,893.066,,
-36.533,893.066,,
-36.504,893.066,,
-35.516,893.066,,
-36.548,893.365,,
-35.705,893.365,,
-36.557,893.365,,
-37.791,893.365,,
-37.734,893.355,,
-39.848,893.355,,
-39.953,893.355,,
-40.212,893.355,,
-40.831,893.271,,
-39.331,893.271,,
-39.827,893.271,,
-38.755,893.271,,
-37.268,892.901,,
-37.790,892.901,,
-36.546,892.901,,
-36.930,892.901,,
-36.366,892.475,,
-34.927,892.475,,
-35.972,892.475,,
-35.158,892.475,,
-35.881,892.120,,
-36.792,892.120,,
-35.674,892.120,,
-36.382,892.120,,
-35.394,891.667,,
-35.201,891.667,,
-35.972,891.667,,
-34.531,891.667,,
-34.903,891.422,,
-34.084,891.422,,
-33.532,891.422,,
-34.990,891.422,,
-34.507,891.218,,
-35.740,891.218,,
-36.066,891.218,,
-35.256,891.218,,
-36.754,890.774,,
-36.422,890.774,,
-37.534,890.774,,
-38.771,890.774,,
-38.356,890.519,,
-39.912,890.519,,
-39.677,890.519,,
-39.873,890.519,,
-41.165,890.611,,
-40.587,890.611,,
-42.176,890.611,,
-42.419,890.611,,
-42.017,890.753,,
-42.707,890.753,,
-40.819,890.753,,
-40.478,890.753,,
-39.885,890.844,,
-39.131,890.844,,
-40.799,890.844,,
-40.539,890.844,,
-41.529,890.603,,
-42.741,890.603,,
-41.835,890.603,,
-42.624,890.603,,
-41.572,890.063,,
-40.884,890.063,,
-41.292,890.063,,
-39.630,890.063,,
-39.471,889.753,,
-37.605,889.753,,
-35.379,889.753,,
-35.382,889.753,,
-33.768,889.455,,
-34.253,889.455,,
-34.308,889.455,,
-33.449,889.455,,
-35.315,889.201,,
-35.529,889.201,,
-37.068,889.201,,
-38.965,889.201,,
-39.243,888.985,,
-41.700,888.985,,
-42.324,888.985,,
-43.090,888.985,,
-44.195,888.698,,
-42.776,888.698,,
-43.246,888.698,,
-42.625,888.698,,
-41.886,888.453,,
-42.700,888.453,,
-41.311,888.453,,
-41.492,888.453,,
-41.034,888.369,,
-39.784,888.369,,
-40.859,888.369,,
-40.107,888.369,,
-40.730,888.148,,
-42.069,888.148,,
-41.792,888.148,,
-43.365,888.148,,
-42.886,888.003,,
-42.512,888.003,,
-43.337,888.003,,
-42.403,888.003,,
-43.342,888.016,,
-42.986,888.016,,
-42.090,888.016,,
-43.051,888.016,,
-42.159,888.020,,
-43.130,888.020,,
-43.770,888.020,,
-43.431,888.020,,
-44.951,888.099,,
-44.284,888.099,,
-44.746,888.099,,
-45.216,888.099,,
-43.725,888.198,,
-44.331,888.198,,
-43.339,888.198,,
-42.860,888.198,,
-43.805,888.299,,
-42.961,888.299,,
-44.105,888.299,,
-43.966,888.299,,
-43.335,888.405,,
-44.457,888.405,,
-43.525,888.405,,
-44.132,888.405,,
-44.463,888.538,,
-43.833,888.538,,
-45.257,888.538,,
-44.352,888.538,,
-44.201,888.596,,
-44.376,888.596,,
-42.970,888.596,,
-43.842,888.596,,
-43.037,888.630,,
-42.183,888.630,,
-42.583,888.630,,
-41.494,888.630,,
-42.811,888.641,,
-43.090,888.641,,
-42.650,888.641,,
-43.743,888.641,,
-42.804,888.583,,
-43.826,888.583,,
-44.758,888.583,,
-44.552,888.583,,
-46.025,888.676,,
-45.041,888.676,,
-44.564,888.676,,
-44.222,888.676,,
-41.924,888.678,,
-42.032,888.678,,
-40.774,888.678,,
-40.002,888.678,,
-40.612,888.616,,
-39.418,888.616,,
-40.680,888.616,,
-41.406,888.616,,
-41.675,888.579,,
-43.534,888.579,,
-42.756,888.579,,
-43.024,888.579,,
-43.132,888.526,,
-42.640,888.526,,
-44.808,888.526,,
-45.008,888.526,,
-45.630,888.587,,
-46.251,888.587,,
-44.787,888.587,,
-45.400,888.587,,
-44.568,889.040,,
-43.904,889.040,,
-44.471,889.040,,
-42.886,889.040,,
-43.399,889.694,,
-43.179,889.694,,
-42.675,889.694,,
-44.204,889.694,,
-43.684,890.494,,
-44.613,890.494,,
-45.027,890.494,,
-43.840,890.494,,
-44.343,891.522,,
-42.950,891.522,,
-42.936,891.522,,
-43.731,891.522,,
-42.991,892.024,,
-44.509,892.024,,
-44.286,892.024,,
-43.797,892.024,,
-44.019,892.270,,
-41.749,892.270,,
-41.243,892.270,,
-39.783,892.270,,
-38.171,892.886,,
-38.835,892.886,,
-37.292,892.886,,
-37.086,892.886,,
-36.597,893.853,,
-35.306,893.853,,
-36.922,893.853,,
-37.093,893.853,,
-38.482,894.993,,
-40.346,894.993,,
-39.947,894.993,,
-41.805,894.993,,
-42.077,896.173,,
-42.373,896.173,,
-43.556,896.173,,
-42.464,896.173,,
-43.259,897.259,,
-42.941,897.259,,
-41.984,897.259,,
-43.153,897.259,,
-42.093,898.503,,
-42.536,898.503,,
-42.942,898.503,,
-42.292,898.503,,
-43.944,899.810,,
-43.513,899.810,,
-43.739,899.810,,
-44.181,899.810,,
-42.770,900.788,,
-43.740,900.788,,
-43.253,900.788,,
-43.207,900.788,,
-44.449,901.863,,
-43.659,901.863,,
-45.189,901.863,,
-45.726,901.863,,
-45.445,903.041,,
-47.180,903.041,,
-46.781,903.041,,
-47.755,903.041,,
-48.394,904.258,,
-47.387,904.258,,
-48.392,904.258,,
-47.622,904.258,,
-47.580,905.380,,
-48.206,905.380,,
-46.969,905.380,,
-47.810,905.380,,
-46.981,906.451,,
-46.660,906.451,,
-47.980,906.451,,
-47.210,906.451,,
-48.232,907.339,,
-48.145,907.339,,
-47.298,907.339,,
-48.481,907.339,,
-47.390,907.966,,
-47.794,907.966,,
-48.077,907.966,,
-46.807,907.966,,
-47.925,908.152,,
-47.624,908.152,,
-48.231,908.152,,
-48.962,908.152,,
-47.419,907.939,,
-48.216,907.939,,
-47.729,907.939,,
-47.193,907.939,,
-48.028,907.611,,
-47.041,907.611,,
-47.968,907.611,,
-47.779,907.611,,
-46.798,906.962,,
-47.962,906.962,,
-47.361,906.962,,
-47.954,906.962,,
-48.381,906.289,,
-47.179,906.289,,
-47.904,906.289,,
-46.509,906.289,,
-45.769,905.689,,
-46.016,905.689,,
-44.593,905.689,,
-45.383,905.689,,
-44.774,905.031,,
-44.185,905.031,,
-44.939,905.031,,
-43.609,905.031,,
-43.915,904.349,,
-43.323,904.349,,
-41.871,904.349,,
-42.639,904.349,,
-41.654,903.654,,
-42.048,903.654,,
-42.453,903.654,,
-41.272,903.654,,
-42.261,902.994,,
-41.125,902.994,,
-40.427,902.994,,
-40.219,902.994,,
-38.084,902.296,,
-38.563,902.296,,
-37.904,902.296,,
-37.242,902.296,,
-38.157,901.721,,
-37.161,901.721,,
-38.176,901.721,,
-38.717,901.721,,
-38.516,900.972,,
-40.086,900.972,,
-39.612,900.972,,
-40.757,900.972,,
-41.799,899.922,,
-40.959,899.922,,
-42.228,899.922,,
-41.197,899.922,,
-40.475,898.606,,
-40.170,898.606,,
-37.536,898.606,,
-36.967,898.606,,
-35.218,897.663,,
-33.481,897.663,,
-33.138,897.663,,
-30.981,897.663,,
-31.369,897.209,,
-31.779,897.209,,
-31.619,897.209,,
-33.504,897.209,,
-33.554,897.039,,
-35.161,897.039,,
-36.798,897.039,,
-36.859,897.039,,
-38.769,896.980,,
-38.136,896.980,,
-38.068,896.980,,
-38.957,896.980,,
-38.048,896.984,,
-39.366,896.984,,
-39.287,896.984,,
-38.926,896.984,,
-39.989,896.874,,
-38.951,896.874,,
-40.065,896.874,,
-40.429,896.874,,
-39.683,895.812,,
-40.801,895.812,,
-39.858,895.812,,
-40.461,895.812,,
-41.170,894.373,,
-40.379,894.373,,
-41.806,894.373,,
-41.478,894.373,,
-42.018,893.129,,
-43.498,893.129,,
-42.891,893.129,,
-44.291,893.129,,
-43.991,892.771,,
-43.294,892.771,,
-43.873,892.771,,
-42.135,892.771,,
-42.219,892.580,,
-41.801,892.580,,
-40.529,892.580,,
-41.200,892.580,,
-39.777,891.794,,
-39.602,891.794,,
-39.710,891.794,,
-38.327,891.794,,
-39.428,890.780,,
-39.068,890.780,,
-39.190,890.780,,
-39.687,890.780,,
-38.261,889.886,,
-39.433,889.886,,
-39.284,889.886,,
-38.765,889.886,,
-39.678,890.183,,
-38.505,890.183,,
-39.632,890.183,,
-40.385,890.183,,
-39.920,890.502,,
-41.206,890.502,,
-40.320,890.502,,
-40.475,890.502,,
-40.505,890.339,,
-38.962,890.339,,
-39.900,890.339,,
-39.335,890.339,,
-39.442,889.710,,
-40.348,889.710,,
-39.042,889.710,,
-39.996,889.710,,
-39.865,889.383,,
-39.452,889.383,,
-40.284,889.383,,
-38.946,889.383,,
-39.701,889.512,,
-39.805,889.512,,
-39.060,889.512,,
-40.592,889.512,,
-40.221,889.583,,
-41.192,889.583,,
-42.473,889.583,,
-42.098,889.583,,
-43.800,889.420,,
-43.362,889.420,,
-43.328,889.420,,
-44.272,889.420,,
-43.176,888.887,,
-44.479,888.887,,
-44.631,888.887,,
-44.518,888.887,,
-45.913,888.402,,
-45.026,888.402,,
-45.954,888.402,,
-46.287,888.402,,
-45.525,888.141,,
-46.551,888.141,,
-45.083,888.141,,
-44.570,888.141,,
-44.282,888.103,,
-42.642,888.103,,
-43.778,888.103,,
-43.557,888.103,,
-43.604,888.206,,
-44.579,888.206,,
-43.594,888.206,,
-45.008,888.206,,
-44.997,888.973,,
-44.345,888.973,,
-45.158,888.973,,
-43.557,888.973,,
-43.791,890.312,,
-43.443,890.312,,
-41.835,890.312,,
-42.428,890.312,,
-40.721,891.332,,
-39.944,891.332,,
-39.206,891.332,,
-37.315,891.332,,
-38.314,892.175,,
-37.764,892.175,,
-37.712,892.175,,
-38.669,892.175,,
-37.735,892.794,,
-39.650,892.794,,
-40.442,892.794,,
-40.633,892.794,,
-42.151,893.589,,
-41.277,893.589,,
-42.182,893.589,,
-42.559,893.589,,
-42.099,895.327,,
-44.094,895.327,,
-43.614,895.327,,
-43.590,895.327,,
-43.539,896.922,,
-41.838,896.922,,
-42.590,896.922,,
-41.912,896.922,,
-41.833,897.854,,
-42.633,897.854,,
-41.063,897.854,,
-41.747,897.854,,
-41.417,897.703,,
-40.665,897.703,,
-41.500,897.703,,
-40.213,897.703,,
-40.917,896.778,,
-41.403,896.778,,
-41.186,896.778,,
-43.301,896.778,,
-43.073,895.861,,
-44.015,895.861,,
-44.992,895.861,,
-43.681,895.861,,
-44.731,895.177,,
-44.199,895.177,,
-43.910,895.177,,
-44.439,895.177,,
-42.838,894.727,,
-43.708,894.727,,
-43.510,894.727,,
-42.740,894.727,,
-43.749,894.718,,
-42.621,894.718,,
-43.132,894.718,,
-43.110,894.718,,
-42.013,894.620,,
-43.420,894.620,,
-42.697,894.620,,
-42.841,894.620,,
-43.050,894.234,,
-41.506,894.234,,
-42.835,894.234,,
-43.052,894.234,,
-43.641,893.869,,
-44.832,893.869,,
-43.298,893.869,,
-43.886,893.869,,
-43.468,893.672,,
-42.610,893.672,,
-43.599,893.672,,
-42.771,893.672,,
-43.947,893.500,,
-44.691,893.500,,
-44.256,893.500,,
-46.344,893.500,,
-46.564,893.593,,
-47.783,893.593,,
-49.271,893.593,,
-48.436,893.593,,
-49.482,893.612,,
-49.082,893.612,,
-49.200,893.612,,
-50.408,893.612,,
-49.409,893.294,,
-50.522,893.294,,
-50.703,893.294,,
-50.398,893.294,,
-51.521,893.039,,
-50.298,893.039,,
-50.646,893.039,,
-50.467,893.039,,
-48.884,893.102,,
-49.608,893.102,,
-48.181,893.102,,
-47.877,893.102,,
-48.325,893.609,,
-46.915,893.609,,
-47.899,893.609,,
-47.722,893.609,,
-47.978,894.444,,
-49.438,894.444,,
-48.688,894.444,,
-49.863,894.444,,
-49.609,894.993,,
-48.266,894.993,,
-48.824,894.993,,
-47.566,894.993,,
-47.517,895.250,,
-46.909,895.250,,
-44.733,895.250,,
-44.673,895.250,,
-42.884,895.810,,
-42.257,895.810,,
-41.986,895.810,,
-39.377,895.810,,
-38.960,896.355,,
-37.636,896.355,,
-37.074,896.355,,
-38.208,896.355,,
-37.430,896.883,,
-38.572,896.883,,
-38.543,896.883,,
-37.993,896.883,,
-39.929,897.645,,
-40.095,897.645,,
-41.769,897.645,,
-43.322,897.645,,
-43.746,897.989,,
-46.426,897.989,,
-47.109,897.989,,
-48.305,897.989,,
-49.619,898.526,,
-48.659,898.526,,
-49.736,898.526,,
-49.332,898.526,,
-48.720,899.234,,
-49.146,899.234,,
-47.172,899.234,,
-47.007,899.234,,
-46.043,899.989,,
-44.594,899.989,,
-45.439,899.989,,
-44.468,899.989,,
-44.676,901.148,,
-44.796,901.148,,
-44.014,901.148,,
-45.726,901.148,,
-45.556,902.718,,
-46.651,902.718,,
-48.500,902.718,,
-48.117,902.718,,
-49.656,904.295,,
-49.490,904.295,,
-49.409,904.295,,
-50.408,904.295,,
-48.998,905.389,,
-49.739,905.389,,
-49.508,905.389,,
-48.526,905.389,,
-49.872,906.003,,
-49.706,906.003,,
-50.762,906.003,,
-51.117,906.003,,
-49.870,906.558,,
-50.704,906.558,,
-49.227,906.558,,
-48.350,906.558,,
-48.310,907.363,,
-46.882,907.363,,
-48.158,907.363,,
-47.860,907.363,,
-47.464,908.140,,
-48.864,908.140,,
-48.308,908.140,,
-49.712,908.140,,
-50.260,908.964,,
-49.955,908.964,,
-51.654,908.964,,
-51.147,908.964,,
-51.796,910.234,,
-52.259,910.234,,
-51.281,910.234,,
-52.353,910.234,,
-51.570,911.549,,
-51.832,911.549,,
-53.035,911.549,,
-52.181,911.549,,
-53.745,912.928,,
-53.823,912.928,,
-53.618,912.928,,
-54.530,912.928,,
-52.988,914.285,,
-53.232,914.285,,
-52.784,914.285,,
-51.421,914.285,,
-52.314,915.414,,
-51.507,915.414,,
-51.856,915.414,,
-52.032,915.414,,
-50.523,916.463,,
-51.146,916.463,,
-49.694,916.463,,
-48.878,916.463,,
-49.189,917.536,,
-47.955,917.536,,
-49.735,917.536,,
-50.473,917.536,,
-50.803,917.998,,
-52.326,917.998,,
-51.889,917.998,,
-53.706,917.998,,
-54.523,918.537,,
-53.908,918.537,,
-55.242,918.537,,
-54.241,918.537,,
-54.515,919.296,,
-54.864,919.296,,
-53.605,919.296,,
-54.376,919.296,,
-52.962,920.351,,
-52.026,920.351,,
-52.178,920.351,,
-50.637,920.351,,
-51.419,922.104,,
-50.453,922.104,,
-48.643,922.104,,
-48.074,922.104,,
-45.591,924.497,,
-45.110,924.497,,
-43.985,924.497,,
-41.785,924.497,,
-41.684,927.237,,
-39.863,927.237,,
-39.945,927.237,,
-40.748,927.237,,
-40.709,930.514,,
-43.656,930.514,,
-44.733,930.514,,
-46.137,930.514,,
-48.296,933.947,,
-48.380,933.947,,
-50.603,933.947,,
-51.124,933.947,,
-50.926,937.592,,
-52.077,937.592,,
-51.267,937.592,,
-52.848,937.592,,
-53.883,941.642,,
-53.776,941.642,,
-55.649,941.642,,
-55.113,941.642,,
-55.721,945.325,,
-56.533,945.325,,
-55.343,945.325,,
-56.183,945.325,,
-55.300,948.814,,
-54.704,948.814,,
-54.783,948.814,,
-52.791,948.814,,
-53.225,952.189,,
-52.662,952.189,,
-51.791,952.189,,
-52.511,952.189,,
-51.292,955.297,,
-51.998,955.297,,
-51.835,955.297,,
-50.543,955.297,,
-51.398,958.350,,
-50.055,958.350,,
-50.263,958.350,,
-50.951,958.350,,
-50.198,960.903,,
-51.613,960.903,,
-51.452,960.903,,
-52.162,960.903,,
-53.710,962.807,,
-52.761,962.807,,
-53.955,962.807,,
-54.038,962.807,,
-53.710,964.378,,
-55.004,964.378,,
-53.501,964.378,,
-53.375,964.378,,
-52.218,964.810,,
-49.592,964.810,,
-49.323,964.810,,
-47.276,964.810,,
-46.776,963.494,,
-46.667,963.494,,
-45.038,963.494,,
-46.204,963.494,,
-46.051,962.038,,
-46.298,962.038,,
-47.250,962.038,,
-46.149,962.038,,
-47.446,962.647,,
-47.624,962.647,,
-47.181,962.647,,
-48.352,962.647,,
-47.391,965.615,,
-48.218,965.615,,
-48.727,965.615,,
-48.039,965.615,,
-49.195,968.616,,
-47.602,968.616,,
-46.560,968.616,,
-45.628,968.616,,
-42.813,970.324,,
-42.015,970.324,,
-39.731,970.324,,
-38.070,970.324,,
-37.692,971.003,,
-35.640,971.003,,
-36.347,971.003,,
-36.124,971.003,,
-35.504,970.591,,
-36.694,970.591,,
-35.789,970.591,,
-36.541,970.591,,
-37.336,969.144,,
-37.145,969.144,,
-38.656,969.144,,
-37.883,969.144,,
-37.956,967.064,,
-38.245,967.064,,
-36.683,967.064,,
-37.394,967.064,,
-36.219,965.810,,
-35.053,965.810,,
-35.093,965.810,,
-33.354,965.810,,
-33.927,964.990,,
-33.344,964.990,,
-32.371,964.990,,
-33.357,964.990,,
-32.327,961.411,,
-33.075,961.411,,
-33.744,961.411,,
-33.164,961.411,,
-34.616,956.312,,
-34.126,956.312,,
-35.150,956.312,,
-36.650,956.312,,
-36.206,953.811,,
-38.565,953.811,,
-39.122,953.811,,
-38.809,953.811,,
-39.143,953.344,,
-37.562,953.344,,
-38.590,953.344,,
-38.825,953.344,,
-38.237,953.576,,
-39.170,953.576,,
-37.615,953.576,,
-37.591,953.576,,
-37.710,953.153,,
-37.080,953.153,,
-39.024,953.153,,
-39.160,953.153,,
-40.005,951.775,,
-40.825,951.775,,
-39.546,951.775,,
-40.695,951.775,,
-40.499,950.829,,
-40.730,950.829,,
-42.332,950.829,,
-41.719,950.829,,
-42.889,950.488,,
-42.850,950.488,,
-42.210,950.488,,
-43.242,950.488,,
-42.352,950.208,,
-43.333,950.208,,
-43.775,950.208,,
-42.553,950.208,,
-43.849,949.826,,
-43.591,949.826,,
-44.349,949.826,,
-45.280,949.826,,
-43.855,948.452,,
-44.625,948.452,,
-43.874,948.452,,
-43.693,948.452,,
-44.831,946.819,,
-43.650,946.819,,
-44.283,946.819,,
-43.991,946.819,,
-43.336,945.040,,
-45.075,945.040,,
-44.649,945.040,,
-45.161,945.040,,
-44.843,943.151,,
-43.214,943.151,,
-44.256,943.151,,
-43.799,943.151,,
-44.711,941.461,,
-46.415,941.461,,
-46.143,941.461,,
-48.422,941.461,,
-49.312,939.985,,
-50.253,939.985,,
-52.111,939.985,,
-51.509,939.985,,
-52.707,938.116,,
-52.900,938.116,,
-52.736,938.116,,
-54.393,938.116,,
-53.581,935.214,,
-53.558,935.214,,
-52.439,935.214,,
-49.814,935.214,,
-49.694,930.887,,
-47.468,930.887,,
-45.692,930.887,,
-44.257,930.887,,
-40.984,926.152,,
-39.972,926.152,,
-37.526,926.152,,
-35.488,926.152,,
-34.684,922.828,,
-31.594,922.828,,
-30.704,922.828,,
-29.004,922.828,,
-26.899,921.344,,
-27.235,921.344,,
-25.713,921.344,,
-25.580,921.344,,
-25.077,920.542,,
-22.799,920.542,,
-22.857,920.542,,
-21.272,920.542,,
-20.807,920.241,,
-21.006,920.241,,
-19.204,920.241,,
-20.120,920.241,,
-19.972,920.402,,
-19.872,920.402,,
-21.080,920.402,,
-20.134,920.402,,
-21.394,920.105,,
-22.127,920.105,,
-22.587,920.105,,
-25.545,920.105,,
-26.225,919.705,,
-28.155,919.705,,
-29.303,919.705,,
-28.379,919.705,,
-29.845,919.383,,
-29.552,919.383,,
-30.120,919.383,,
-31.313,919.383,,
-30.882,918.985,,
-33.272,918.985,,
-34.425,918.985,,
-35.672,918.985,,
-38.279,918.982,,
-38.514,918.982,,
-40.643,918.982,,
-41.976,918.982,,
-42.456,918.859,,
-44.761,918.859,,
-44.196,918.859,,
-44.010,918.859,,
-42.306,918.359,,
-37.984,918.359,,
-34.819,918.359,,
-28.214,918.359,,
-20.352,917.250,,
-11.099,917.250,,
1.824,917.250,,
14.171,917.250,,
28.328,915.317,,
41.596,915.317,,
51.849,915.317,,
61.996,915.317,,
68.250,913.266,,
73.420,913.266,,
77.216,913.266,,
77.996,913.266,,
79.908,911.402,,
79.620,911.402,,
78.886,911.402,,
78.726,911.402,,
76.468,909.519,,
75.988,909.519,,
75.071,909.519,,
74.119,909.519,,
74.719,908.925,,
73.413,908.925,,
72.961,908.925,,
71.347,908.925,,
67.905,909.317,,
65.559,909.317,,
61.194,909.317,,
57.533,909.317,,
54.054,909.759,,
48.995,909.759,,
45.279,909.759,,
40.062,909.759,,
35.517,909.947,,
31.958,909.947,,
26.801,909.947,,
23.345,909.947,,
19.123,909.927,,
15.031,909.927,,
12.386,909.927,,
8.376,909.927,,
6.145,909.909,,
3.877,909.909,,
1.163,909.909,,
0.356,909.909,,
-1.806,909.464,,
-2.903,909.464,,
-3.913,909.464,,
-6.568,909.464,,
-7.889,908.771,,
-10.631,908.771,,
-12.781,908.771,,
-13.903,908.771,,
-16.482,908.445,,
-17.379,908.445,,
-19.308,908.445,,
-21.610,908.445,,
-22.853,908.252,,
-25.766,908.252,,
-27.300,908.252,,
-29.283,908.252,,
-32.033,908.322,,
-33.194,908.322,,
-35.682,908.322,,
-36.875,908.322,,
-37.392,908.105,,
-38.989,908.105,,
-38.992,908.105,,
-40.225,908.105,,
-40.796,907.578,,
-40.307,907.578,,
-41.298,907.578,,
-40.627,907.578,,
-40.656,906.869,,
-40.875,906.869,,
-39.730,906.869,,
-40.314,906.869,,
-39.814,906.718,,
-39.980,906.718,,
-41.690,906.718,,
-42.777,906.718,,
-46.460,907.052,,
-50.044,907.052,,
-53.975,907.052,,
-60.204,907.052,,
-65.636,907.304,,
-73.239,907.304,,
-81.241,907.304,,
-88.327,907.304,,
-96.522,907.042,,
-101.530,907.042,,
-105.404,907.042,,
-107.896,907.042,,
-106.999,906.437,,
-106.702,906.437,,
-104.336,906.437,,
-101.584,906.437,,
-100.282,905.956,,
-97.454,905.956,,
-96.786,905.956,,
-95.409,905.956,,
-93.481,905.430,,
-93.509,905.430,,
-91.598,905.430,,
-90.808,905.430,,
-89.382,904.955,,
-85.597,904.955,,
-82.609,904.955,,
-76.692,904.955,,
-70.616,904.721,,
-64.713,904.721,,
-56.968,904.721,,
-51.362,904.721,,
-44.932,905.032,,
-39.058,905.032,,
-35.208,905.032,,
-30.283,905.032,,
-27.637,905.625,,
-24.577,905.625,,
-21.146,905.625,,
-19.838,905.625,,
-17.079,906.211,,
-16.099,906.211,,
-15.705,906.211,,
-14.744,906.211,,
-16.224,906.442,,
-16.434,906.442,,
-17.677,906.442,,
-19.791,906.442,,
-20.326,905.926,,
-22.614,905.926,,
-23.175,905.926,,
-23.274,905.926,,
-24.578,905.118,,
-24.099,905.118,,
-25.378,905.118,,
-25.913,905.118,,
-25.840,904.711,,
-27.766,904.711,,
-28.284,904.711,,
-30.670,904.711,,
-33.756,904.923,,
-36.012,904.923,,
-40.315,904.923,,
-42.767,904.923,,
-45.377,905.145,,
-48.326,905.145,,
-49.252,905.145,,
-51.778,905.145,,
-52.579,904.945,,
-52.751,904.945,,
-53.811,904.945,,
-52.407,904.945,,
-52.457,904.229,,
-51.426,904.229,,
-49.079,904.229,,
-48.060,904.229,,
-44.969,903.047,,
-43.180,903.047,,
-41.781,903.047,,
-39.458,903.047,,
-39.408,901.897,,
-37.966,901.897,,
-37.365,901.897,,
-37.825,901.897,,
-36.749,900.939,,
-37.768,900.939,,
-37.456,900.939,,
-36.746,900.939,,
-37.368,900.552,,
-36.000,900.552,,
-36.311,900.552,,
-35.917,900.552,,
-34.576,899.966,,
-34.970,899.966,,
-33.468,899.966,,
-33.292,899.966,,
-33.387,898.546,,
-32.475,898.546,,
-33.744,898.546,,
-33.640,898.546,,
-34.325,896.573,,
-36.073,896.573,,
-36.410,896.573,,
-39.074,896.573,,
-40.677,895.644,,
-42.110,895.644,,
-45.020,895.644,,
-46.214,895.644,,
-49.438,895.256,,
-52.340,895.256,,
-54.314,895.256,,
-57.931,895.256,,
-59.348,894.928,,
-61.520,894.928,,
-63.436,894.928,,
-63.496,894.928,,
-65.347,895.021,,
-65.298,895.021,,
-65.534,895.021,,
-66.573,895.021,,
-65.438,895.063,,
-66.106,895.063,,
-65.254,895.063,,
-63.932,895.063,,
-64.183,894.882,,
-62.441,894.882,,
-62.416,894.882,,
-62.241,894.882,,
-61.488,894.656,,
-62.695,894.656,,
-61.643,894.656,,
-61.691,894.656,,
-62.262,894.217,,
-61.448,894.217,,
-63.183,894.217,,
-63.556,894.217,,
-64.252,893.901,,
-65.828,893.901,,
-65.101,893.901,,
-66.058,893.901,,
-65.531,893.990,,
-64.465,893.990,,
-65.248,893.990,,
-64.009,893.990,,
-64.485,894.137,,
-64.637,894.137,,
-63.506,894.137,,
-64.250,894.137,,
-62.528,894.007,,
-61.794,894.007,,
-61.482,894.007,,
-59.471,894.007,,
-59.693,893.727,,
-58.095,893.727,,
-56.525,893.727,,
-56.114,893.727,,
-53.593,893.288,,
-53.109,893.288,,
-51.587,893.288,,
-49.657,893.288,,
-49.682,892.911,,
-47.497,892.911,,
-46.986,892.911,,
-46.687,892.911,,
-45.618,892.802,,
-46.890,892.802,,
-46.395,892.802,,
-47.218,892.802,,
-48.744,892.869,,
-48.686,892.869,,
-51.002,892.869,,
-51.454,892.869,,
-51.855,892.982,,
-53.687,892.982,,
-53.350,892.982,,
-54.764,892.982,,
-54.920,892.947,,
-54.085,892.947,,
-54.624,892.947,,
-52.721,892.947,,
-52.798,892.797,,
-53.088,892.797,,
-52.536,892.797,,
-54.572,892.797,,
-55.097,893.027,,
-56.845,893.027,,
-59.259,893.027,,
-59.475,893.027,,
-61.558,893.432,,
-61.462,893.432,,
-60.645,893.432,,
-60.688,893.432,,
-58.591,893.982,,
-58.614,893.982,,
-57.891,893.982,,
-56.812,893.982,,
-57.918,894.664,,
-56.773,894.664,,
-57.206,894.664,,
-57.212,894.664,,
-55.825,894.600,,
-56.962,894.600,,
-56.263,894.600,,
-56.022,894.600,,
-56.013,893.914,,
-54.121,893.914,,
-54.584,893.914,,
-53.170,893.914,,
-51.358,893.339,,
-50.732,893.339,,
-47.547,893.339,,
-46.104,893.339,,
-44.251,892.966,,
-42.313,892.966,,
-42.697,892.966,,
-41.366,892.966,,
-41.914,892.870,,
-42.535,892.870,,
-42.081,892.870,,
-44.197,892.870,,
-44.904,892.995,,
-46.646,892.995,,
-49.045,892.995,,
-49.418,892.995,,
-52.216,892.982,,
-53.453,892.982,,
-54.969,892.982,,
-58.542,892.982,,
-60.608,892.893,,
-65.008,892.893,,
-68.952,892.893,,
-72.301,892.893,,
-77.787,893.002,,
-80.955,893.002,,
-85.077,893.002,,
-88.426,893.002,,
-89.543,893.003,,
-92.222,893.003,,
-92.415,893.003,,
-92.889,893.003,,
-93.959,892.837,,
-92.808,892.837,,
-93.695,892.837,,
-93.088,892.837,,
-92.039,892.763,,
-92.045,892.763,,
-89.249,892.763,,
-88.221,892.763,,
-86.418,892.784,,
-83.653,892.784,,
-83.153,892.784,,
-80.542,892.784,,
-79.409,892.796,,
-78.665,892.796,,
-76.267,892.796,,
-76.315,892.796,,
-74.643,892.850,,
-73.655,892.850,,
-73.557,892.850,,
-71.465,892.850,,
-72.327,892.893,,
-72.161,892.893,,
-71.675,892.893,,
-72.770,892.893,,
-71.079,892.976,,
-71.179,892.976,,
-70.742,892.976,,
-69.380,892.976,,
-70.645,893.092,,
-69.691,893.092,,
-69.883,893.092,,
-69.559,893.092,,
-67.060,893.080,,
-67.088,893.080,,
-65.417,893.080,,
-64.842,893.080,,
-65.641,893.140,,
-64.209,893.140,,
-64.987,893.140,,
-63.816,893.140,,
-62.121,893.141,,
-62.451,893.141,,
-60.438,893.141,,
-60.468,893.141,,
-60.077,893.110,,
-59.036,893.110,,
-60.661,893.110,,
-60.031,893.110,,
-61.097,893.148,,
-62.683,893.148,,
-61.990,893.148,,
-63.159,893.148,,
-62.075,893.177,,
-61.093,893.177,,
-61.044,893.177,,
-58.625,893.177,,
-58.229,893.243,,
-56.784,893.243,,
-55.689,893.243,,
-56.844,893.243,,
-55.061,893.438,,
-54.816,893.438,,
-53.768,893.438,,
-51.462,893.438,,
-52.307,893.569,,
-51.461,893.569,,
-52.032,893.569,,
-52.730,893.569,,
-51.384,893.547,,
-52.133,893.547,,
-50.774,893.547,,
-50.331,893.547,,
-51.517,893.648,,
-50.752,893.648,,
-52.374,893.648,,
-52.726,893.648,,
-52.740,893.771,,
-54.735,893.771,,
-54.302,893.771,,
-55.893,893.771,,
-56.410,893.860,,
-54.848,893.860,,
-55.668,893.860,,
-54.953,893.860,,
-55.961,894.138,,
-57.085,894.138,,
-55.867,894.138,,
-57.058,894.138,,
-56.090,894.090,,
-55.453,894.090,,
-56.682,894.090,,
-55.639,894.090,,
-56.644,893.524,,
-56.085,893.524,,
-54.713,893.524,,
-54.869,893.524,,
-52.096,893.059,,
-50.990,893.059,,
-49.107,893.059,,
-45.349,893.059,,
-44.211,892.828,,
-41.619,892.828,,
-40.885,892.828,,
-40.939,892.828,,
-39.266,892.758,,
-40.385,892.758,,
-40.213,892.758,,
-40.676,892.758,,
-42.226,892.963,,
-41.651,892.963,,
-43.665,892.963,,
-44.400,892.963,,
-44.357,893.006,,
-46.406,893.006,,
-45.978,893.006,,
-47.232,893.006,,
-47.859,893.009,,
-46.222,893.009,,
-46.342,893.009,,
-44.187,893.009,,
-43.865,893.159,,
-44.706,893.159,,
-43.763,893.159,,
-45.245,893.159,,
-44.643,893.229,,
-44.411,893.229,,
-45.879,893.229,,
-45.241,893.229,,
-46.777,893.217,,
-46.799,893.217,,
-46.149,893.217,,
-47.956,893.217,,
-47.804,893.164,,
-49.838,893.164,,
-51.332,893.164,,
-50.896,893.164,,
-51.922,893.116,,
-49.964,893.116,,
-49.100,893.116,,
-49.127,893.116,,
-47.764,893.101,,
-49.168,893.101,,
-48.617,893.101,,
-47.814,893.101,,
-48.501,893.094,,
-47.248,893.094,,
-48.950,893.094,,
-49.396,893.094,,
-48.485,892.936,,
-48.963,892.936,,
-46.471,892.936,,
-46.629,892.936,,
-47.068,892.889,,
-46.253,892.889,,
-47.857,892.889,,
-46.838,892.889,,
-46.358,892.918,,
-46.610,892.918,,
-45.516,892.918,,
-47.500,892.918,,
-47.886,892.900,,
-48.260,892.900,,
-50.266,892.900,,
-49.212,892.900,,
-49.507,892.884,,
-48.531,892.884,,
-47.174,892.884,,
-48.395,892.884,,
-47.609,892.791,,
-48.252,892.791,,
-47.967,892.791,,
-46.178,892.791,,
-47.224,892.642,,
-46.355,892.642,,
-46.655,892.642,,
-47.793,892.642,,
-46.832,892.569,,
-48.063,892.569,,
-47.601,892.569,,
-47.374,892.569,,
-48.902,892.533,,
-48.234,892.533,,
-49.628,892.533,,
-49.458,892.533,,
-48.351,892.429,,
-49.810,892.429,,
-48.778,892.429,,
-49.610,892.429,,
-50.417,892.415,,
-49.555,892.415,,
-50.760,892.415,,
-49.339,892.415,,
-49.102,892.323,,
-50.130,892.323,,
-49.300,892.323,,
-50.868,892.323,,
-50.211,892.246,,
-49.179,892.246,,
-49.330,892.246,,
-47.025,892.246,,
-47.312,892.261,,
-46.824,892.261,,
-45.805,892.261,,
-47.256,892.261,,
-46.466,892.191,,
-47.726,892.191,,
-49.165,892.191,,
-48.681,892.191,,
-50.288,892.090,,
-49.757,892.090,,
-50.040,892.090,,
-50.522,892.090,,
-48.526,891.991,,
-48.642,891.991,,
-47.285,891.991,,
-46.796,891.991,,
-48.445,892.074,,
-47.400,892.074,,
-48.486,892.074,,
-48.748,892.074,,
-47.929,892.221,,
-49.117,892.221,,
-48.200,892.221,,
-49.386,892.221,,
-50.684,892.430,,
-50.235,892.430,,
-51.972,892.430,,
-51.448,892.430,,
-51.289,892.401,,
-51.705,892.401,,
-50.273,892.401,,
-51.489,892.401,,
-50.926,892.128,,
-50.164,892.128,,
-51.123,892.128,,
-49.436,892.128,,
-49.542,891.792,,
-48.655,891.792,,
-46.751,891.792,,
-46.720,891.792,,
-43.959,891.579,,
-42.944,891.579,,
-42.147,891.579,,
-40.132,891.579,,
-40.790,891.599,,
-39.342,891.599,,
-39.038,891.599,,
-39.989,891.599,,
-39.152,891.772,,
-41.219,891.772,,
-41.814,891.772,,
-42.053,891.772,,
-43.699,891.999,,
-42.522,891.999,,
-43.457,891.999,,
-43.569,891.999,,
-42.730,892.159,,
-44.533,892.159,,
-44.043,892.159,,
-45.159,892.159,,
-46.410,892.320,,
-45.872,892.320,,
-47.561,892.320,,
-46.419,892.320,,
-46.048,892.478,,
-47.163,892.478,,
-46.517,892.478,,
-48.618,892.478,,
-49.050,892.543,,
-48.861,892.543,,
-50.013,892.543,,
-48.658,892.543,,
-49.155,892.589,,
-48.756,892.589,,
-47.532,892.589,,
-48.851,892.589,,
-47.954,892.655,,
-48.956,892.655,,
-50.275,892.655,,
-50.020,892.655,,
-52.068,892.905,,
-51.531,892.905,,
-51.263,892.905,,
-52.014,892.905,,
-50.645,893.007,,
-51.844,893.007,,
-51.093,893.007,,
-49.479,893.007,,
-49.384,893.079,,
-47.205,893.079,,
-47.740,893.079,,
-47.728,893.079,,
-46.379,893.284,,
-47.425,893.284,,
-45.950,893.284,,
-46.026,893.284,,
-47.118,893.528,,
-46.782,893.528,,
-48.626,893.528,,
-47.688,893.528,,
-47.075,893.687,,
-47.809,893.687,,
-46.762,893.687,,
-48.686,893.687,,
-49.160,893.974,,
-49.276,893.974,,
-50.855,893.974,,
-49.697,893.974,,
-50.867,894.319,,
-51.387,894.319,,
-50.749,894.319,,
-52.329,894.319,,
-51.186,894.683,,
-51.221,894.683,,
-51.404,894.683,,
-49.817,894.683,,
-50.790,895.106,,
-50.220,895.106,,
-50.503,895.106,,
-51.569,895.106,,
-49.742,895.608,,
-50.463,895.608,,
-50.156,895.608,,
-49.768,895.608,,
-51.040,896.267,,
-49.873,896.267,,
-50.875,896.267,,
-51.246,896.267,,
-50.039,896.976,,
-50.634,896.976,,
-48.686,896.976,,
-48.551,896.976,,
-48.761,897.641,,
-47.094,897.641,,
-47.820,897.641,,
-46.366,897.641,,
-45.354,898.394,,
-45.800,898.394,,
-44.451,898.394,,
-46.152,898.394,,
-46.788,899.288,,
-47.088,899.288,,
-49.147,899.288,,
-48.408,899.288,,
-49.657,900.136,,
-50.305,900.136,,
-50.063,900.136,,
-52.592,900.136,,
-52.320,900.911,,
-53.079,900.911,,
-53.877,900.911,,
-52.474,900.911,,
-53.449,902.012,,
-52.463,902.012,,
-52.427,902.012,,
-53.830,902.012,,
-52.250,902.902,,
-52.851,902.902,,
-52.237,902.902,,
-51.448,902.902,,
-52.985,903.904,,
-51.835,903.904,,
-52.166,903.904,,
-51.850,903.904,,
-50.575,904.767,,
-51.645,904.767,,
-50.201,904.767,,
-50.221,904.767,,
-51.153,905.649,,
-50.357,905.649,,
-52.125,905.649,,
-51.912,905.649,,
-52.171,906.172,,
-53.984,906.172,,
-53.424,906.172,,
-54.957,906.172,,
-54.265,906.455,,
-52.730,906.455,,
-52.945,906.455,,
-50.326,906.455,,
-49.529,907.311,,
-48.319,907.311,,
-46.138,907.311,,
-46.592,907.311,,
-44.880,908.774,,
-44.438,908.774,,
-44.414,908.774,,
-41.955,908.774,,
-42.120,910.194,,
-41.304,910.194,,
-41.401,910.194,,
-43.643,910.194,,
-43.963,911.578,,
-46.622,911.578,,
-47.697,911.578,,
-48.137,911.578,,
-50.356,912.842,,
-49.402,912.842,,
-50.123,912.842,,
-50.381,912.842,,
-49.080,913.636,,
-50.195,913.636,,
-48.861,913.636,,
-48.647,913.636,,
-48.874,914.162,,
-47.311,914.162,,
-48.844,914.162,,
-48.835,914.162,,
-49.361,914.480,,
-51.144,914.480,,
-49.778,914.480,,
-50.096,914.480,,
-49.424,914.554,,
-48.871,914.554,,
-50.442,914.554,,
-49.562,914.554,,
-50.321,914.681,,
-50.113,914.681,,
-48.726,914.681,,
-50.195,914.681,,
-49.731,914.954,,
-50.842,914.954,,
-52.323,914.954,,
-51.622,914.954,,
-53.093,915.014,,
-52.036,915.014,,
-50.999,915.014,,
-51.389,915.014,,
-49.250,915.073,,
-49.202,915.073,,
-48.027,915.073,,
-46.649,915.073,,
-47.913,915.537,,
-47.093,915.537,,
-48.828,915.537,,
-50.254,915.537,,
-49.852,915.860,,
-51.538,915.860,,
-51.122,915.860,,
-52.146,915.860,,
-53.565,916.153,,
-52.627,916.153,,
-53.661,916.153,,
-52.782,916.153,,
-51.908,916.349,,
-52.174,916.349,,
-49.794,916.349,,
-49.784,916.349,,
-48.832,916.246,,
-47.296,916.246,,
-48.179,916.246,,
-47.107,916.246,,
-48.004,916.001,,
-48.805,916.001,,
-47.843,916.001,,
-48.893,916.001,,
-47.148,915.583,,
-45.896,915.583,,
-45.159,915.583,,
-42.827,915.583,,
-43.576,915.187,,
-42.781,915.187,,
-42.536,915.187,,
-43.995,915.187,,
-43.337,914.785,,
-45.446,914.785,,
-46.913,914.785,,
-47.403,914.785,,
-49.596,914.378,,
-49.109,914.378,,
-50.375,914.378,,
-51.105,914.378,,
-50.130,913.925,,
-51.737,913.925,,
-51.532,913.925,,
-52.045,913.925,,
-52.978,913.374,,
-51.548,913.374,,
-52.783,913.374,,
-52.283,913.374,,
-51.371,912.783,,
-52.197,912.783,,
-51.173,912.783,,
-52.276,912.783,,
-52.205,912.222,,
-51.302,912.222,,
-51.989,912.222,,
-50.258,912.222,,
-50.462,911.502,,
-50.335,911.502,,
-48.465,911.502,,
-49.036,911.502,,
-47.785,910.810,,
-47.614,910.810,,
-48.156,910.810,,
-46.446,910.810,,
-47.317,909.938,,
-46.560,909.938,,
-45.443,909.938,,
-45.855,909.938,,
-44.260,908.799,,
-45.195,908.799,,
-45.135,908.799,,
-43.558,908.799,,
-43.732,907.768,,
-41.453,907.768,,
-40.896,907.768,,
-40.096,907.768,,
-37.889,906.946,,
-38.222,906.946,,
-36.734,906.946,,
-36.470,906.946,,
-37.191,906.282,,
-35.970,906.282,,
-37.231,906.282,,
-37.159,906.282,,
-37.184,905.508,,
-39.211,905.508,,
-39.377,905.508,,
-42.039,905.508,,
-43.686,904.626,,
-44.492,904.626,,
-47.000,904.626,,
-47.026,904.626,,
-48.550,903.844,,
-49.528,903.844,,
-48.853,903.844,,
-50.704,903.844,,
-50.627,903.255,,
-51.340,903.255,,
-52.628,903.255,,
-51.470,903.255,,
-52.931,902.643,,
-52.576,902.643,,
-51.933,902.643,,
-52.775,902.643,,
-50.739,901.807,,
-50.692,901.807,,
-49.597,901.807,,
-47.465,901.807,,
-47.544,901.070,,
-45.456,901.070,,
-45.492,901.070,,
-45.515,901.070,,
-43.188,900.451,,
-43.278,900.451,,
-41.942,900.451,,
-41.783,900.451,,
-42.252,899.997,,
-40.712,899.997,,
-42.002,899.997,,
-41.942,899.997,,
-41.959,899.517,,
-43.939,899.517,,
-42.701,899.517,,
-43.540,899.517,,
-43.967,899.034,,
-43.335,899.034,,
-44.845,899.034,,
-43.988,899.034,,
-44.636,898.665,,
-45.388,898.665,,
-44.390,898.665,,
-45.595,898.665,,
-44.527,898.352,,
-43.875,898.352,,
-44.105,898.352,,
-42.227,898.352,,
-43.541,898.092,,
-43.735,898.092,,
-43.414,898.092,,
-44.323,898.092,,
-42.136,897.815,,
-41.665,897.815,,
-40.387,897.815,,
-38.386,897.815,,
-38.908,897.375,,
-37.303,897.375,,
-37.199,897.375,,
-37.411,897.375,,
-36.284,896.808,,
-38.161,896.808,,
-37.587,896.808,,
-37.040,896.808,,
-36.883,896.201,,
-34.032,896.201,,
-33.715,896.201,,
-32.412,896.201,,
-31.183,895.581,,
-31.662,895.581,,
-29.676,895.581,,
-30.180,895.581,,
-30.838,895.138,,
-30.881,895.138,,
-33.163,895.138,,
-32.987,895.138,,
-34.223,894.747,,
-35.983,894.747,,
-36.169,894.747,,
-38.731,894.747,,
-38.625,894.243,,
-39.216,894.243,,
-40.545,894.243,,
-39.075,894.243,,
-39.796,894.076,,
-39.370,894.076,,
-38.912,894.076,,
-39.716,894.076,,
-38.210,893.979,,
-38.956,893.979,,
-39.214,893.979,,
-38.724,893.979,,
-40.740,893.946,,
-40.773,893.946,,
-42.378,893.946,,
-44.076,893.946,,
-43.886,894.001,,
-46.132,894.001,,
-46.428,894.001,,
-47.363,894.001,,
-48.800,893.838,,
-47.407,893.838,,
-48.203,893.838,,
-47.651,893.838,,
-46.697,893.266,,
-47.079,893.266,,
-44.899,893.266,,
-44.764,893.266,,
-43.887,892.781,,
-41.621,892.781,,
-41.309,892.781,,
-38.654,892.781,,
-37.582,892.331,,
-37.211,892.331,,
-35.717,892.331,,
-37.380,892.331,,
-37.446,891.980,,
-38.429,891.980,,
-40.888,891.980,,
-41.574,891.980,,
-44.385,891.963,,
-45.459,891.963,,
-46.117,891.963,,
-48.440,891.963,,
-48.212,891.889,,
-49.540,891.889,,
-49.970,891.889,,
-48.550,891.889,,
-49.027,891.741,,
-47.140,891.741,,
-46.649,891.741,,
-46.165,891.741,,
-43.822,891.699,,
-44.735,891.699,,
-44.150,891.699,,
-43.750,891.699,,
-44.029,891.713,,
-42.041,891.713,,
-42.899,891.713,,
-42.927,891.713,,
-42.870,891.666,,
-44.318,891.666,,
-43.500,891.666,,
-44.880,891.666,,
-45.536,891.791,,
-44.917,891.791,,
-46.561,891.791,,
-45.543,891.791,,
-45.807,891.949,,
-46.361,891.949,,
-45.318,891.949,,
-47.017,891.949,,
-46.481,892.024,,
-46.206,892.024,,
-47.112,892.024,,
-45.588,892.024,,
-46.667,892.188,,
-46.263,892.188,,
-45.128,892.188,,
-46.147,892.188,,
-45.025,892.423,,
-45.973,892.423,,
-46.953,892.423,,
-46.781,892.423,,
-48.712,892.672,,
-48.229,892.672,,
-48.712,892.672,,
-49.502,892.672,,
-48.183,892.830,,
-49.648,892.830,,
-49.773,892.830,,
-50.145,892.830,,
-51.392,892.705,,
-50.166,892.705,,
-51.226,892.705,,
-51.155,892.705,,
-50.611,892.483,,
-52.242,892.483,,
-51.179,892.483,,
-51.540,892.483,,
-51.207,892.472,,
-49.119,892.472,,
-49.500,892.472,,
-47.797,892.472,,
-47.398,892.495,,
-47.919,892.495,,
-46.850,892.495,,
-48.309,892.495,,
-47.646,892.601,,
-47.165,892.601,,
-48.017,892.601,,
-46.995,892.601,,
-48.743,892.762,,
-49.213,892.762,,
-49.055,892.762,,
-50.671,892.762,,
-49.218,892.804,,
-49.100,892.804,,
-48.585,892.804,,
-47.108,892.804,,
-48.651,892.818,,
-47.805,892.818,,
-48.014,892.818,,
-48.436,892.818,,
-47.182,892.821,,
-48.940,892.821,,
-49.141,892.821,,
-49.773,892.821,,
-51.145,892.757,,
-49.572,892.757,,
-49.938,892.757,,
-48.851,892.757,,
-46.724,892.731,,
-46.440,892.731,,
-44.297,892.731,,
-44.857,892.731,,
-45.797,892.756,,
-45.463,892.756,,
-47.378,892.756,,
-47.071,892.756,,
-47.555,892.493,,
-47.716,892.493,,
-45.840,892.493,,
-47.029,892.493,,
-46.467,892.126,,
-45.503,892.126,,
-45.436,892.126,,
-42.766,892.126,,
-42.270,891.851,,
-40.912,891.851,,
-38.809,891.851,,
-39.043,891.851,,
-37.047,891.614,,
-36.945,891.614,,
-37.320,891.614,,
-36.626,891.614,,
-38.300,891.525,,
-37.910,891.525,,
-38.557,891.525,,
-40.238,891.525,,
-40.260,891.434,,
-42.574,891.434,,
-42.848,891.434,,
-42.977,891.434,,
-44.511,891.267,,
-43.714,891.267,,
-45.290,891.267,,
-45.766,891.267,,
-45.050,891.002,,
-46.214,891.002,,
-44.906,891.002,,
-44.725,891.002,,
-44.048,890.874,,
-42.174,890.874,,
-43.194,890.874,,
-42.409,890.874,,
-42.595,890.685,,
-43.581,890.685,,
-42.952,890.685,,
-45.253,890.685,,
-46.072,890.678,,
-47.005,890.678,,
-49.190,890.678,,
-48.818,890.678,,
-50.235,890.705,,
-50.428,890.705,,
-49.400,890.705,,
-50.158,890.705,,
-48.412,890.675,,
-48.024,890.675,,
-47.403,890.675,,
-45.195,890.675,,
-45.767,890.624,,
-44.318,890.624,,
-43.911,890.624,,
-44.252,890.624,,
-42.609,890.440,,
-43.541,890.440,,
-42.959,890.440,,
-42.414,890.440,,
-43.325,890.303,,
-41.901,890.303,,
-42.706,890.303,,
-42.742,890.303,,
-42.107,890.230,,
-43.959,890.230,,
-43.965,890.230,,
-45.610,890.230,,
-46.649,890.008,,
-45.974,890.008,,
-47.858,890.008,,
-47.386,890.008,,
-47.364,889.806,,
-48.110,889.806,,
-46.548,889.806,,
-47.437,889.806,,
-46.895,889.709,,
-46.233,889.709,,
-46.975,889.709,,
-45.411,889.709,,
-46.088,889.584,,
-46.010,889.584,,
-45.176,889.584,,
-46.496,889.584,,
-45.614,889.457,,
-46.351,889.457,,
-46.842,889.457,,
-45.740,889.457,,
-47.322,889.409,,
-46.983,889.409,,
-47.161,889.409,,
-48.060,889.409,,
-46.679,889.319,,
-47.642,889.319,,
-46.986,889.319,,
-46.152,889.319,,
-47.449,889.329,,
-46.420,889.329,,
-47.395,889.329,,
-47.304,889.329,,
-45.966,889.428,,
-46.767,889.428,,
-45.261,889.428,,
-45.765,889.428,,
-46.428,889.547,,
-45.323,889.547,,
-46.740,889.547,,
-45.669,889.547,,
-44.827,889.907,,
-44.878,889.907,,
-42.983,889.907,,
-44.177,889.907,,
-44.130,890.423,,
-43.842,890.423,,
-45.414,890.423,,
-44.691,890.423,,
-45.632,890.569,,
-45.643,890.569,,
-44.600,890.569,,
-45.557,890.569,,
-43.789,890.470,,
-42.968,890.470,,
-41.686,890.470,,
-38.809,890.470,,
-38.513,890.571,,
-36.054,890.571,,
-34.137,890.571,,
-33.449,890.571,,
-31.059,890.808,,
-31.132,890.808,,
-30.013,890.808,,
-29.063,890.808,,
-30.016,891.118,,
-28.996,891.118,,
-30.711,891.118,,
-32.027,891.118,,
-32.623,891.578,,
-35.557,891.578,,
-35.907,891.578,,
-37.532,891.578,,
-39.269,891.719,,
-39.251,891.719,,
-41.552,891.719,,
-41.805,891.719,,
-42.378,891.841,,
-43.507,891.841,,
-42.113,891.841,,
-42.802,891.841,,
-42.072,891.921,,
-41.292,891.921,,
-42.417,891.921,,
-41.200,891.921,,
-42.364,891.598,,
-43.144,891.598,,
-42.881,891.598,,
-44.905,891.598,,
-44.932,891.315,,
-46.188,891.315,,
-47.393,891.315,,
-46.924,891.315,,
-48.980,891.164,,
-48.731,891.164,,
-48.585,891.164,,
-49.429,891.164,,
-48.287,890.948,,
-49.428,890.948,,
-49.502,890.948,,
-49.570,890.948,,
-50.856,890.769,,
-49.022,890.769,,
-49.040,890.769,,
-48.814,890.769,,
-47.583,890.607,,
-48.391,890.607,,
-46.830,890.607,,
-46.959,890.607,,
-47.536,890.483,,
-46.168,890.483,,
-46.889,890.483,,
-45.544,890.483,,
-44.596,890.364,,
-44.997,890.364,,
-43.350,890.364,,
-44.106,890.364,,
-44.181,890.138,,
-44.153,890.138,,
-45.583,890.138,,
-44.355,890.138,,
-45.157,889.898,,
-45.519,889.898,,
-44.600,889.898,,
-45.907,889.898,,
-45.261,889.807,,
-45.834,889.807,,
-46.515,889.807,,
-45.306,889.807,,
-46.493,889.726,,
-45.943,889.726,,
-45.893,889.726,,
-47.220,889.726,,
-46.302,889.596,,
-47.653,889.596,,
-47.562,889.596,,
-47.054,889.596,,
-48.640,889.624,,
-47.772,889.624,,
-48.803,889.624,,
-49.481,889.624,,
-48.683,889.399,,
-50.007,889.399,,
-48.770,889.399,,
-48.408,889.399,,
-48.057,889.223,,
-45.974,889.223,,
-46.868,889.223,,
-46.485,889.223,,
-46.803,889.064,,
-48.414,889.064,,
-47.412,889.064,,
-48.719,889.064,,
-48.512,888.641,,
-47.293,888.641,,
-47.574,888.641,,
-45.571,888.641,,
-45.813,887.888,,
-46.130,887.888,,
-45.320,887.888,,
-46.601,887.888,,
-45.243,887.405,,
-44.478,887.405,,
-43.599,887.405,,
-40.748,887.405,,
-40.305,887.228,,
-38.427,887.228,,
-37.429,887.228,,
-38.769,887.228,,
-38.145,887.314,,
-39.649,887.314,,
-39.941,887.314,,
-39.468,887.314,,
-41.026,887.608,,
-40.265,887.608,,
-41.205,887.608,,
-42.389,887.608,,
-42.749,887.699,,
-45.583,887.699,,
-45.811,887.699,,
-46.511,887.699,,
-47.180,887.991,,
-45.618,887.991,,
-46.366,887.991,,
-45.707,887.991,,
-45.634,888.361,,
-46.849,888.361,,
-45.804,888.361,,
-47.661,888.361,,
-48.643,888.499,,
-48.823,888.499,,
-51.261,888.499,,
-51.367,888.499,,
-53.085,888.743,,
-54.044,888.743,,
-52.904,888.743,,
-53.205,888.743,,
-51.227,889.188,,
-50.444,889.188,,
-50.278,889.188,,
-48.249,889.188,,
-49.236,889.691,,
-48.366,889.691,,
-47.187,889.691,,
-47.583,889.691,,
-45.898,890.268,,
-46.825,890.268,,
-47.408,890.268,,
-47.536,890.268,,
-49.561,890.851,,
-48.923,890.851,,
-50.092,890.851,,
-51.030,890.851,,
-49.985,891.374,,
-50.808,891.374,,
-49.740,891.374,,
-49.874,891.374,,
-51.300,892.139,,
-50.442,892.139,,
-51.615,892.139,,
-51.052,892.139,,
-50.732,892.795,,
-51.786,892.795,,
-50.304,892.795,,
-51.238,892.795,,
-51.572,893.423,,
-51.146,893.423,,
-52.543,893.423,,
-51.317,893.423,,
-51.558,894.149,,
-51.501,894.149,,
-49.913,894.149,,
-51.022,894.149,,
-50.498,894.848,,
-51.115,894.848,,
-52.400,894.848,,
-51.092,894.848,,
-51.342,895.445,,
-49.483,895.445,,
-47.491,895.445,,
-47.140,895.445,,
-45.112,896.329,,
-46.223,896.329,,
-46.947,896.329,,
-46.364,896.329,,
-47.651,897.322,,
-46.749,897.322,,
-47.812,897.322,,
-48.891,897.322,,
-48.107,898.194,,
-49.143,898.194,,
-47.966,898.194,,
-47.961,898.194,,
-48.845,899.378,,
-47.610,899.378,,
-49.146,899.378,,
-49.244,899.378,,
-49.214,900.464,,
-50.612,900.464,,
-49.126,900.464,,
-49.971,900.464,,
-49.868,901.089,,
-47.998,901.089,,
-47.710,901.089,,
-44.918,901.089,,
-43.779,901.656,,
-43.216,901.656,,
-40.872,901.656,,
-40.582,901.656,,
-38.172,902.592,,
-36.480,902.592,,
-36.085,902.592,,
-34.625,902.592,,
-36.544,903.690,,
-37.823,903.690,,
-39.592,903.690,,
-42.841,903.690,,
-42.911,905.100,,
-44.542,905.100,,
-45.124,905.100,,
-44.639,905.100,,
-46.384,906.496,,
-46.112,906.496,,
-47.170,906.496,,
-47.763,906.496,,
-46.646,907.897,,
-48.335,907.897,,
-48.204,907.897,,
-48.716,907.897,,
-49.954,909.202,,
-48.298,909.202,,
-48.875,909.202,,
-48.174,909.202,,
-47.662,910.135,,
-48.684,910.135,,
-46.868,910.135,,
-46.660,910.135,,
-45.859,911.069,,
-44.396,911.069,,
-45.375,911.069,,
-44.273,911.069,,
-44.933,912.135,,
-45.564,912.135,,
-43.927,912.135,,
-44.919,912.135,,
-44.080,913.100,,
-43.805,913.100,,
-44.667,913.100,,
-43.328,913.100,,
-44.756,914.028,,
-45.050,914.028,,
-44.761,914.028,,
-46.078,914.028,,
-45.869,914.892,,
-48.343,914.892,,
-49.959,914.892,,
-49.804,914.892,,
-51.259,915.691,,
-50.159,915.691,,
-50.757,915.691,,
-51.287,915.691,,
-49.865,916.666,,
-50.859,916.666,,
-49.684,916.666,,
-48.965,916.666,,
-49.454,917.777,,
-48.007,917.777,,
-49.340,917.777,,
-49.384,917.777,,
-48.955,918.573,,
-50.045,918.573,,
-48.603,918.573,,
-49.168,918.573,,
-49.134,919.279,,
-47.961,919.279,,
-49.288,919.279,,
-48.378,919.279,,
-48.726,919.623,,
-49.460,919.623,,
-48.817,919.623,,
-50.723,919.623,,
-50.524,919.734,,
-50.969,919.734,,
-52.507,919.734,,
-51.301,919.734,,
-52.045,919.938,,
-51.633,919.938,,
-50.618,919.938,,
-51.085,919.938,,
-49.442,920.025,,
-50.096,920.025,,
-50.257,920.025,,
-48.855,920.025,,
-49.794,920.125,,
-48.616,920.125,,
-48.610,920.125,,
-48.700,920.125,,
-46.681,920.359,,
-47.287,920.359,,
-46.258,920.359,,
-45.887,920.359,,
-47.060,920.255,,
-46.129,920.255,,
-47.730,920.255,,
-48.000,920.255,,
-47.475,919.893,,
-48.858,919.893,,
-48.189,919.893,,
-49.553,919.893,,
-49.940,919.297,,
-48.324,919.297,,
-48.648,919.297,,
-46.568,919.297,,
-45.883,918.404,,
-45.946,918.404,,
-44.052,918.404,,
-43.792,918.404,,
-41.171,917.769,,
-39.067,917.769,,
-38.256,917.769,,
-35.397,917.769,,
-35.194,917.207,,
-34.348,917.207,,
-33.685,917.207,,
-35.613,917.207,,
-35.313,916.558,,
-37.314,916.558,,
-39.194,916.558,,
-39.184,916.558,,
-41.639,915.874,,
-41.749,915.874,,
-42.921,915.874,,
-44.431,915.874,,
-43.930,915.065,,
-45.936,915.065,,
-45.716,915.065,,
-45.252,915.065,,
-45.687,914.400,,
-44.208,914.400,,
-45.353,914.400,,
-44.955,914.400,,
-43.828,913.764,,
-44.828,913.764,,
-43.550,913.764,,
-44.383,913.764,,
-44.696,912.924,,
-43.263,912.924,,
-44.242,912.924,,
-43.241,912.924,,
-43.594,911.976,,
-44.372,911.976,,
-43.066,911.976,,
-44.136,911.976,,
-43.473,911.171,,
-43.271,911.171,,
-44.857,911.171,,
-44.013,911.171,,
-45.148,910.591,,
-44.755,910.591,,
-43.412,910.591,,
-44.086,910.591,,
-42.818,910.061,,
-44.187,910.061,,
-45.545,910.061,,
-45.491,910.061,,
-47.628,909.590,,
-47.176,909.590,,
-47.218,909.590,,
-47.889,909.590,,
-46.284,909.157,,
-46.853,909.157,,
-45.995,909.157,,
-45.353,909.157,,
-46.009,908.535,,
-44.383,908.535,,
-45.550,908.535,,
-46.027,908.535,,
-45.902,907.812,,
-47.946,907.812,,
-47.028,907.812,,
-47.185,907.812,,
-47.229,907.098,,
-46.085,907.098,,
-47.394,907.098,,
-46.609,907.098,,
-46.409,906.271,,
-47.259,906.271,,
-46.082,906.271,,
-47.026,906.271,,
-46.010,905.528,,
-44.870,905.528,,
-45.662,905.528,,
-44.339,905.528,,
-45.679,904.889,,
-46.137,904.889,,
-45.446,904.889,,
-46.639,904.889,Marker:1,
-45.686,904.044,,
-46.836,904.044,,
-48.267,904.044,,
-47.853,904.044,,
-49.645,903.167,,
-49.171,903.167,,
-49.454,903.167,,
-50.440,903.167,,
-49.492,902.394,,
-51.041,902.394,,
-50.493,902.394,,
-49.230,902.394,,
-49.127,901.660,,
-46.558,901.660,,
-46.382,901.660,,
-45.684,901.660,,
-44.211,900.985,,
-44.738,900.985,,
-42.994,900.985,,
-42.839,900.985,,
-42.732,900.557,,
-41.742,900.557,,
-43.365,900.557,,
-42.905,900.557,,
-43.216,899.807,,
-44.284,899.807,,
-43.752,899.807,,
-45.662,899.807,,
-45.231,898.549,,
-44.055,898.549,,
-43.916,898.549,,
-41.019,898.549,,
-39.779,897.339,,
-37.665,897.339,,
-35.020,897.339,,
-34.315,897.339,,
-31.565,896.433,,
-30.877,896.433,,
-31.057,896.433,,
-30.264,896.433,,
-31.828,895.832,,
-31.268,895.832,,
-31.878,895.832,,
-33.771,895.832,,
-33.799,895.390,,
-36.447,895.390,,
-37.752,895.390,,
-38.736,895.390,,
-41.342,894.958,,
-41.427,894.958,,
-43.652,894.958,,
-45.145,894.958,,
-45.181,894.511,,
-46.832,894.511,,
-45.451,894.511,,
-45.528,894.511,,
-46.025,894.142,,
-44.885,894.142,,
-45.780,894.142,,
-44.704,894.142,,
-44.470,893.710,,
-45.042,893.710,,
-43.260,893.710,,
-44.083,893.710,,
-43.686,893.253,,
-43.052,893.253,,
-44.012,893.253,,
-42.918,893.253,,
-44.438,892.815,,
-45.023,892.815,,
-44.173,892.815,,
-45.367,892.815,,
-44.118,892.493,,
-44.684,892.493,,
-45.813,892.493,,
-45.239,892.493,,
-46.700,892.339,,
-45.918,892.339,,
-45.576,892.339,,
-45.971,892.339,,
-44.218,892.116,,
-45.016,892.116,,
-44.381,892.116,,
-43.499,892.116,,
-44.295,891.919,,
-42.621,891.919,,
-43.119,891.919,,
-43.423,891.919,,
-42.874,891.805,,
-44.762,891.805,,
-44.761,891.805,,
-46.214,891.805,,
-47.551,891.663,,
-46.577,891.663,,
-47.838,891.663,,
-47.192,891.663,,
-47.436,891.515,,
-48.742,891.515,,
-47.404,891.515,,
-48.212,891.515,,
-47.837,891.437,,
-46.902,891.437,,
-47.361,891.437,,
-45.032,891.437,,
-44.777,891.297,,
-44.349,891.297,,
-43.459,891.297,,
-45.404,891.297,,
-45.149,891.160,,
-46.172,891.160,,
-47.248,891.160,,
-45.835,891.160,,
-46.617,891.148,,
-45.590,891.148,,
-45.431,891.148,,
-46.292,891.148,,
-44.622,891.038,,
-45.548,891.038,,
-45.190,891.038,,
-44.457,891.038,,
-45.643,890.982,,
-44.495,890.982,,
-45.395,890.982,,
-45.694,890.982,,
-44.551,890.962,,
-45.807,890.962,,
-45.331,890.962,,
-45.818,890.962,,
-46.370,890.946,,
-45.063,890.946,,
-46.757,890.946,,
-46.765,890.946,,
-47.146,890.912,,
-48.771,890.912,,
-47.710,890.912,,
-48.936,890.912,,
-48.927,890.860,,
-47.782,890.860,,
-47.897,890.860,,
-45.967,890.860,,
-46.075,890.749,,
-45.975,890.749,,
-45.134,890.749,,
-46.946,890.749,,
-46.159,890.777,,
-46.263,890.777,,
-46.946,890.777,,
-46.025,890.777,,
-48.094,890.866,,
-48.443,890.866,,
-48.681,890.866,,
-49.659,890.866,,
-47.925,890.994,,
-48.870,890.994,,
-48.510,890.994,,
-47.162,890.994,,
-47.432,891.015,,
-45.168,891.015,,
-44.763,891.015,,
-44.370,891.015,,
-43.329,890.580,,
-45.066,890.580,,
-44.117,890.580,,
-43.597,890.580,,
-42.781,890.057,,
-39.407,890.057,,
-38.801,890.057,,
-36.633,890.057,,
-34.848,889.751,,
-34.269,889.751,,
-31.430,889.751,,
-31.404,889.751,,
-31.146,889.595,,
-31.054,889.595,,
-33.124,889.595,,
-33.386,889.595,,
-35.734,889.549,,
-37.887,889.549,,
-38.795,889.549,,
-42.106,889.549,,
-43.056,889.584,,
-44.437,889.584,,
-45.771,889.584,,
-44.517,889.584,,
-45.406,889.549,,
-44.435,889.549,,
-43.428,889.549,,
-43.630,889.549,,
-41.528,889.443,,
-41.997,889.443,,
-41.971,889.443,,
-41.332,889.443,,
-42.834,889.483,,
-42.048,889.483,,
-42.640,889.483,,
-42.924,889.483,,
-42.096,889.419,,
-44.511,889.419,,
-44.671,889.419,,
-45.540,889.419,,
-47.212,889.257,,
-46.683,889.257,,
-48.329,889.257,,
-48.290,889.257,,
-47.989,889.231,,
-48.648,889.231,,
-46.195,889.231,,
-45.572,889.231,,
-44.165,889.274,,
-42.578,889.274,,
-43.759,889.274,,
-42.708,889.274,,
-43.260,889.303,,
-44.048,889.303,,
-43.488,889.303,,
-45.605,889.303,,
-45.456,889.492,,
-45.484,889.492,,
-46.072,889.492,,
-44.857,889.492,,
-46.133,889.736,,
-45.585,889.736,,
-44.812,889.736,,
-45.775,889.736,,
-44.398,889.909,,
-45.203,889.909,,
-45.217,889.909,,
-44.236,889.909,,
-45.809,890.166,,
-45.238,890.166,,
-46.014,890.166,,
-46.217,890.166,,
-44.400,890.344,,
-45.304,890.344,,
-44.613,890.344,,
-44.877,890.344,,
-46.173,890.536,,
-45.046,890.536,,
-46.129,890.536,,
-45.804,890.536,,
-45.250,890.748,,
-46.314,890.748,,
-45.006,890.748,,
-45.702,890.748,,
-45.714,890.928,,
-44.574,890.928,,
-45.725,890.928,,
-44.395,890.928,,
-44.280,891.108,,
-44.352,891.108,,
-42.931,891.108,,
-43.654,891.108,,
-42.428,891.401,,
-42.512,891.401,,
-44.433,891.401,,
-44.093,891.401,,
-45.640,891.672,,
-44.907,891.672,,
-43.341,891.672,,
-43.550,891.672,,
-41.848,891.950,,
-42.885,891.950,,
-43.611,891.950,,
-43.144,891.950,,
-44.801,892.318,,
-44.121,892.318,,
-44.500,892.318,,
-45.340,892.318,,
-44.985,892.663,,
-47.103,892.663,,
-47.015,892.663,,
-47.316,892.663,,
-48.968,893.131,,
-48.478,893.131,,
-50.220,893.131,,
-50.218,893.131,,
-49.162,893.493,,
-49.593,893.493,,
-47.654,893.493,,
-48.274,893.493,,
-48.581,893.749,,
-47.741,893.749,,
-49.690,893.749,,
-49.226,893.749,,
-49.707,894.149,,
-50.654,894.149,,
-49.770,894.149,,
-51.106,894.149,,
-50.468,894.746,,
-49.997,894.746,,
-50.555,894.746,,
-48.527,894.746,,
-48.875,895.322,,
-48.264,895.322,,
-47.270,895.322,,
-47.837,895.322,,
-45.670,895.969,,
-45.360,895.969,,
-44.588,895.969,,
-43.285,895.969,,
-44.973,896.419,,
-44.578,896.419,,
-45.298,896.419,,
-46.458,896.419,,
-45.154,896.369,,
-46.153,896.369,,
-45.490,896.369,,
-44.854,896.369,,
-45.143,896.480,,
-42.762,896.480,,
-42.455,896.480,,
-41.115,896.480,,
-39.848,896.902,,
-40.662,896.902,,
-38.749,896.902,,
-38.536,896.902,,
-38.109,897.512,,
-36.699,897.512,,
-38.274,897.512,,
-37.952,897.512,,
-38.908,898.396,,
-40.821,898.396,,
-41.026,898.396,,
-43.486,898.396,,
-44.000,899.137,,
-44.697,899.137,,
-46.758,899.137,,
-45.476,899.137,,
-45.881,899.792,,
-45.179,899.792,,
-44.049,899.792,,
-45.186,899.792,,
-43.986,900.723,,
-44.758,900.723,,
-45.098,900.723,,
-43.608,900.723,,
-44.626,901.548,,
-44.095,901.548,,
-44.629,901.548,,
-45.710,901.548,,
-44.878,902.085,,
-46.808,902.085,,
-46.890,902.085,,
-47.024,902.085,,
-48.748,902.850,,
-47.962,902.850,,
-49.275,902.850,,
-49.586,902.850,,
-48.910,903.729,,
-49.699,903.729,,
-47.518,903.729,,
-46.479,903.729,,
-45.641,904.544,,
-44.052,904.544,,
-45.744,904.544,,
-45.719,904.544,,
-46.345,905.432,,
-47.235,905.432,,
-45.609,905.432,,
-46.671,905.432,,
-46.531,906.394,,
-46.694,906.394,,
-48.054,906.394,,
-46.656,906.394,,
-47.382,907.240,,
-46.827,907.240,,
-45.202,907.240,,
-45.778,907.240,,
-44.547,908.040,,
-44.985,908.040,,
-45.839,908.040,,
-45.406,908.040,,
-47.712,908.744,,
-47.879,908.744,,
-48.787,908.744,,
-50.416,908.744,,
-49.408,909.412,,
-50.372,909.412,,
-49.573,909.412,,
-48.839,909.412,,
-49.901,910.100,,
-48.681,910.100,,
-49.563,910.100,,
-49.709,910.100,,
-48.684,910.792,,
-49.983,910.792,,
-49.148,910.792,,
-49.908,910.792,,
-50.390,911.520,,
-49.094,911.520,,
-50.303,911.520,,
-49.712,911.520,,
-49.894,912.177,,
-50.459,912.177,,
-48.588,912.177,,
-49.259,912.177,,
-48.713,912.942,,
-48.102,912.942,,
-48.886,912.942,,
-47.027,912.942,,
-46.938,913.665,,
-45.980,913.665,,
-44.218,913.665,,
-45.362,913.665,,
-44.968,914.367,,
-46.332,914.367,,
-47.407,914.367,,
-46.384,914.367,,
-48.008,915.075,,
-47.714,915.075,,
-48.335,915.075,,
-50.246,915.075,,
-49.708,915.685,,
-51.033,915.685,,
-50.682,915.685,,
-49.577,915.685,,
-50.127,916.396,,
-48.920,916.396,,
-49.953,916.396,,
-49.994,916.396,,
-48.474,917.141,,
-49.821,917.141,,
-49.287,917.141,,
-49.782,917.141,,
-50.193,917.678,,
-48.540,917.678,,
-49.039,917.678,,
-47.871,917.678,,
-47.534,918.187,,
-48.807,918.187,,
-48.043,918.187,,
-49.992,918.187,,
-50.362,918.523,,
-49.977,918.523,,
-51.228,918.523,,
-49.785,918.523,,
-50.199,918.494,,
-50.411,918.494,,
-49.226,918.494,,
-50.131,918.494,,
-48.533,918.675,,
-48.134,918.675,,
-47.978,918.675,,
-45.322,918.675,,
-44.490,919.128,,
-41.718,919.128,,
-39.568,919.128,,
-38.579,919.128,,
-35.200,919.553,,
-34.927,919.553,,
-34.465,919.553,,
-34.058,919.553,,
-35.873,920.206,,
-35.875,920.206,,
-38.076,920.206,,
-40.362,920.206,,
-41.753,920.648,,
-45.116,920.648,,
-45.592,920.648,,
-47.002,920.648,,
-48.688,921.155,,
-47.704,921.155,,
-48.324,921.155,,
-46.992,921.155,,
-46.409,921.875,,
-47.265,921.875,,
-45.895,921.875,,
-47.123,921.875,,
-47.334,922.432,,
-46.618,922.432,,
-47.559,922.432,,
-46.160,922.432,,
-47.029,922.684,,
-47.932,922.684,,
-47.427,922.684,,
-48.901,922.684,,
-48.158,923.291,,
-48.257,923.291,,
-48.020,923.291,,
-45.547,923.291,,
-45.456,923.995,,
-43.858,923.995,,
-43.121,923.995,,
-43.997,923.995,,
-42.396,924.754,,
-43.576,924.754,,
-43.920,924.754,,
-43.435,924.754,,
-45.088,925.534,,
-44.153,925.534,,
-44.880,925.534,,
-45.457,925.534,,
-44.649,926.283,,
-46.584,926.283,,
-46.731,926.283,,
-47.405,926.283,,
-48.585,927.217,,
-47.255,927.217,,
-48.163,927.217,,
-47.650,927.217,,
-47.815,928.085,,
-49.869,928.085,,
-49.248,928.085,,
-50.298,928.085,,
-50.317,928.658,,
-49.698,928.658,,
-50.957,928.658,,
-49.420,928.658,,
-49.395,929.275,,
-49.201,929.275,,
-47.538,929.275,,
-48.602,929.275,,
-47.828,929.865,,
-47.769,929.865,,
-48.436,929.865,,
-47.000,929.865,,
-48.188,930.265,,
-47.922,930.265,,
-47.808,930.265,,
-49.391,930.265,,
-48.448,930.588,,
-49.068,930.588,,
-48.587,930.588,,
-47.310,930.588,,
-48.137,930.867,,
-46.831,930.867,,
-47.471,930.867,,
-48.305,930.867,,
-47.372,930.722,,
-48.991,930.722,,
-48.590,930.722,,
-48.868,930.722,,
-49.724,930.667,,
-48.260,930.667,,
-49.131,930.667,,
-48.492,930.667,,
-47.611,930.538,,
-48.369,930.538,,
-46.614,930.538,,
-47.092,930.538,,
-47.117,930.358,,
-45.969,930.358,,
-46.862,930.358,,
-45.748,930.358,,
-46.563,930.075,,
-47.302,930.075,,
-45.993,930.075,,
-46.971,930.075,,
-46.135,929.623,,
-46.080,929.623,,
-46.881,929.623,,
-45.504,929.623,,
-47.061,928.962,,
-47.740,928.962,,
-48.110,928.962,,
-50.156,928.962,,
-49.066,928.086,,
-49.598,928.086,,
-49.099,928.086,,
-47.098,928.086,,
-47.609,927.237,,
-45.976,927.237,,
-45.255,927.237,,
-44.260,927.237,,
-41.374,926.639,,
-41.154,926.639,,
-39.341,926.639,,
-38.084,926.639,,
-37.759,926.285,,
-35.471,926.285,,
-35.743,926.285,,
-35.214,926.285,,
-35.186,925.907,,
-37.717,925.907,,
-37.997,925.907,,
-40.005,925.907,,
-40.993,925.512,,
-40.551,925.512,,
-42.442,925.512,,
-42.419,925.512,,
-43.721,924.923,,
-45.086,924.923,,
-44.171,924.923,,
-45.298,924.923,,
-44.351,924.266,,
-44.371,924.266,,
-46.225,924.266,,
-46.005,924.266,,
-47.927,923.808,,
-48.093,923.808,,
-47.526,923.808,,
-48.646,923.808,,
-47.461,923.297,,
-48.571,923.297,,
-49.295,923.297,,
-48.436,923.297,,
-49.326,922.788,,
-47.645,922.788,,
-47.454,922.788,,
-47.567,922.788,,
-45.546,922.977,,
-46.066,922.977,,
-44.654,922.977,,
-43.916,922.977,,
-44.922,923.126,,
-43.416,923.126,,
-43.807,923.126,,
-42.722,923.126,,
-41.484,922.857,,
-42.975,922.857,,
-42.109,922.857,,
-42.918,922.857,,
-43.796,922.499,,
-43.664,922.499,,
-46.097,922.499,,
-46.443,922.499,,
-47.653,922.034,,
-48.918,922.034,,
-47.847,922.034,,
-49.096,922.034,,
-48.256,921.477,,
-47.431,921.477,,
-47.976,921.477,,
-45.987,921.477,,
-46.561,920.947,,
-46.470,920.947,,
-45.889,920.947,,
-47.722,920.947,,
-47.136,920.472,,
-48.164,920.472,,
-49.378,920.472,,
-48.887,920.472,,
-50.425,920.000,,
-49.456,920.000,,
-49.642,920.000,,
-50.748,920.000,,
-49.714,919.414,,
-51.477,919.414,,
-51.075,919.414,,
-49.662,919.414,,
-49.482,918.817,,
-47.092,918.817,,
-47.155,918.817,,
-46.236,918.817,,
-44.841,918.018,,
-46.086,918.018,,
-45.210,918.018,,
-45.908,918.018,,
-46.099,917.278,,
-44.289,917.278,,
-44.976,917.278,,
-43.694,917.278,,
-43.570,916.494,,
-44.407,916.494,,
-43.140,916.494,,
-44.153,916.494,,
-43.671,915.739,,
-43.339,915.739,,
-44.893,915.739,,
-44.356,915.739,,
-46.013,915.108,,
-46.524,915.108,,
-45.775,915.108,,
-47.394,915.108,,
-46.764,914.542,,
-47.445,914.542,,
-47.371,914.542,,
-44.989,914.542,,
-45.374,913.739,,
-44.687,913.739,,
-45.556,913.739,,
-47.188,913.739,,
-45.972,912.386,,
-46.929,912.386,,
-46.337,912.386,,
-45.123,912.386,,
-45.580,910.921,,
-43.635,910.921,,
-43.250,910.921,,
-41.857,910.921,,
-39.128,909.792,,
-38.704,909.792,,
-36.522,909.792,,
-36.563,909.792,,
-37.123,908.866,,
-35.855,908.866,,
-37.007,908.866,,
-36.272,908.866,,
-36.509,907.981,,
-38.379,907.981,,
-38.158,907.981,,
-40.303,907.981,,
-40.809,907.123,,
-40.898,907.123,,
-43.117,907.123,,
-42.722,907.123,,
-43.725,906.229,,
-43.822,906.229,,
-42.665,906.229,,
-43.710,906.229,,
-42.677,905.297,,
-43.252,905.297,,
-44.278,905.297,,
-43.741,905.297,,
-45.483,904.535,,
-45.029,904.535,,
-44.883,904.535,,
-46.056,904.535,,
-44.891,903.861,,
-45.781,903.861,,
-45.310,903.861,,
-44.455,903.861,,
-45.509,903.110,,
-44.289,903.110,,
-44.857,903.110,,
-44.724,903.110,,
-43.056,902.328,,
-43.858,902.328,,
-42.453,902.328,,
-42.536,902.328,,
-43.290,901.773,,
-42.423,901.773,,
-44.282,901.773,,
-44.493,901.773,,
-44.862,901.191,,
-46.025,901.191,,
-44.402,901.191,,
-44.719,901.191,,
-43.557,900.529,,
-41.963,900.529,,
-42.784,900.529,,
-41.602,900.529,,
-42.615,899.972,,
-43.478,899.972,,
-43.489,899.972,,
-46.152,899.972,,
-46.358,899.414,,
-47.081,899.414,,
-47.542,899.414,,
-45.512,899.414,,
-45.812,898.870,,
-44.855,898.870,,
-44.484,898.870,,
-45.589,898.870,,
-44.086,898.380,,
-44.884,898.380,,
-44.726,898.380,,
-43.762,898.380,,
-44.742,897.912,,
-43.205,897.912,,
-43.835,897.912,,
-44.608,897.912,,
-44.211,897.361,,
-46.103,897.361,,
-45.122,897.361,,
-44.800,897.361,,
-45.390,896.877,,
-44.459,896.877,,
-46.290,896.877,,
-46.080,896.877,,
-45.688,896.379,,
-46.833,896.379,,
-45.767,896.379,,
-46.789,896.379,,
-46.304,895.927,,
-44.883,895.927,,
-45.613,895.927,,
-44.134,895.927,,
-44.249,895.668,,
-44.124,895.668,,
-42.540,895.668,,
-43.540,895.668,,
-42.399,895.564,,
-42.208,895.564,,
-43.093,895.564,,
-41.466,895.564,,
-42.645,895.425,,
-42.452,895.425,,
-42.205,895.425,,
-43.806,895.425,,
-43.279,895.183,,
-44.936,895.183,,
-45.778,895.183,,
-45.395,895.183,,
-46.992,894.904,,
-46.092,894.904,,
-46.731,894.904,,
-47.554,894.904,,
-47.072,894.674,,
-49.076,894.674,,
-48.372,894.674,,
-47.773,894.674,,
-47.868,894.712,,
-46.242,894.712,,
-47.634,894.712,,
-47.472,894.712,,
-47.324,894.649,,
-48.980,894.649,,
-47.651,894.649,,
-48.122,894.649,,
-47.708,894.204,,
-46.331,894.204,,
-47.232,894.204,,
-45.846,894.204,,
-45.769,893.436,,
-45.519,893.436,,
-43.236,893.436,,
-43.170,893.436,,
-40.495,892.658,,
-38.297,892.658,,
-37.174,892.658,,
-34.126,892.658,,
-34.014,892.174,,
-33.095,892.174,,
-32.377,892.174,,
-33.598,892.174,,
-32.688,891.914,,
-34.239,891.914,,
-35.525,891.914,,
-36.026,891.914,,
-39.029,891.758,,
-39.446,891.758,,
-41.118,891.758,,
-42.918,891.758,,
-42.727,891.590,,
-44.720,891.590,,
-44.335,891.590,,
-43.900,891.590,,
-44.603,891.412,,
-43.234,891.412,,
-43.966,891.412,,
-43.315,891.412,,
-42.623,891.110,,
-44.487,891.110,,
-44.107,891.110,,
-45.413,891.110,,
-45.917,890.947,,
-45.086,890.947,,
-46.726,890.947,,
-45.962,890.947,,
-46.082,890.745,,
-46.237,890.745,,
-44.731,890.745,,
-45.659,890.745,,
-44.689,890.458,,
-44.252,890.458,,
-45.364,890.458,,
-44.095,890.458,,
-44.950,890.325,,
-44.668,890.325,,
-43.950,890.325,,
-45.209,890.325,,
-44.078,890.332,,
-44.553,890.332,,
-44.232,890.332,,
-42.834,890.332,,
-43.798,890.327,,
-42.803,890.327,,
-43.436,890.327,,
-44.861,890.327,,
-44.727,890.343,,
-46.898,890.343,,
-46.728,890.343,,
-46.445,890.343,,
-47.319,890.376,,
-45.533,890.376,,
-45.798,890.376,,
-45.058,890.376,,
-43.868,890.309,,
-45.038,890.309,,
-44.419,890.309,,
-45.843,890.309,,
-46.609,890.278,,
-45.437,890.278,,
-46.556,890.278,,
-45.153,890.278,,
-44.708,890.234,,
-45.077,890.234,,
-43.477,890.234,,
-44.448,890.234,,
-43.997,890.103,,
-43.869,890.103,,
-45.328,890.103,,
-44.500,890.103,,
-45.921,890.031,,
-46.191,890.031,,
-45.523,890.031,,
-46.534,890.031,,
-45.028,889.932,,
-45.387,889.932,,
-45.936,889.932,,
-45.173,889.932,,
-46.625,889.785,,
-45.967,889.785,,
-46.477,889.785,,
-47.956,889.785,,
-47.344,889.723,,
-49.524,889.723,,
-49.788,889.723,,
-49.714,889.723,,
-51.030,889.683,,
-49.647,889.683,,
-50.538,889.683,,
-50.723,889.683,,
-49.841,889.582,,
-50.876,889.582,,
-49.319,889.582,,
-49.013,889.582,,
-48.815,889.624,,
-46.987,889.624,,
-47.255,889.624,,
-45.335,889.624,,
-44.531,889.593,,
-45.166,889.593,,
-43.683,889.593,,
-44.729,889.593,,
-44.461,889.453,,
-44.231,889.453,,
-46.049,889.453,,
-45.356,889.453,,
-46.266,889.410,,
-46.199,889.410,,
-45.336,889.410,,
-47.096,889.410,,
-46.887,889.417,,
-47.970,889.417,,
-48.800,889.417,,
-47.242,889.417,,
-48.132,889.426,,
-47.321,889.426,,
-47.051,889.426,,
-47.349,889.426,,
-45.293,889.607,,
-45.527,889.607,,
-44.801,889.607,,
-44.470,889.607,,
-46.239,889.547,,
-46.025,889.547,,
-47.572,889.547,,
-47.982,889.547,,
-46.707,889.065,,
-47.730,889.065,,
-46.394,889.065,,
-45.897,889.065,,
-44.886,888.673,,
-41.631,888.673,,
-40.728,888.673,,
-38.179,888.673,,
-36.874,888.361,,
-36.885,888.361,,
-34.880,888.361,,
-35.567,888.361,,
-35.114,888.146,,
-34.622,888.146,,
-36.579,888.146,,
-36.820,888.146,,
-39.257,888.182,,
-40.807,888.182,,
-40.491,888.182,,
-41.973,888.182,,
-41.229,888.261,,
-42.202,888.261,,
-43.249,888.261,,
-41.971,888.261,,
-43.256,888.304,,
-42.899,888.304,,
-43.237,888.304,,
-44.985,888.304,,
-44.433,888.488,,
-45.944,888.488,,
-45.916,888.488,,
-45.327,888.488,,
-46.686,888.803,,
-45.441,888.803,,
-45.804,888.803,,
-45.497,888.803,,
-43.396,889.051,,
-43.665,889.051,,
-42.105,889.051,,
-42.415,889.051,,
-43.307,889.332,,
-42.060,889.332,,
-43.059,889.332,,
-42.294,889.332,,
-41.961,889.676,,
-43.469,889.676,,
-42.770,889.676,,
-44.445,889.676,,
-45.112,890.097,,
-45.045,890.097,,
-47.099,890.097,,
-46.608,890.097,,
-47.570,890.540,,
-47.940,890.540,,
-46.606,890.540,,
-47.285,890.540,,
-45.579,890.954,,
-45.017,890.954,,
-45.728,890.954,,
-45.040,890.954,,
-46.728,891.432,,
-46.640,891.432,,
-46.499,891.432,,
-47.752,891.432,,
-46.607,891.945,,
-47.841,891.945,,
-47.800,891.945,,
-46.680,891.945,,
-47.597,892.388,,
-46.541,892.388,,
-47.192,892.388,,
-48.014,892.388,,
-47.691,892.782,,
-49.537,892.782,,
-48.971,892.782,,
-49.179,892.782,,
-49.792,893.148,,
-47.870,893.148,,
-48.492,893.148,,
-47.317,893.148,,
-45.955,893.398,,
-45.968,893.398,,
-43.685,893.398,,
-43.781,893.398,,
-43.349,893.789,,
-42.518,893.789,,
-44.281,893.789,,
-43.934,893.789,,
-45.580,894.237,,
-46.953,894.237,,
-46.430,894.237,,
-48.243,894.237,,
-47.582,894.694,,
-47.444,894.694,,
-48.384,894.694,,
-47.467,894.694,,
-48.876,895.274,,
-48.704,895.274,,
-48.546,895.274,,
-50.206,895.274,,
-48.953,895.914,,
-48.998,895.914,,
-47.755,895.914,,
-45.641,895.914,,
-46.235,896.762,,
-44.879,896.762,,
-45.398,896.762,,
-46.294,896.762,,
-45.332,897.765,,
-47.060,897.765,,
-47.044,897.765,,
-47.570,897.765,,
-48.827,898.664,,
-47.844,898.664,,
-49.202,898.664,,
-48.525,898.664,,
-47.005,899.415,,
-47.544,899.415,,
-46.421,899.415,,
-47.534,899.415,,
-47.701,900.395,,
-47.040,900.395,,
-48.933,900.395,,
-48.424,900.395,,
-49.113,901.371,,
-49.863,901.371,,
-48.556,901.371,,
-49.598,901.371,,
-48.610,902.098,,
-47.796,902.098,,
-48.274,902.098,,
-46.706,902.098,,
-47.300,902.791,,
-46.795,902.791,,
-46.196,902.791,,
-47.657,902.791,,
-46.601,902.958,,
-47.245,902.958,,
-47.449,902.958,,
-46.093,902.958,,
-46.655,902.838,,
-44.834,902.838,,
-44.192,902.838,,
-43.765,902.838,,
-41.113,903.101,,
-40.373,903.101,,
-37.901,903.101,,
-36.483,903.101,,
-36.921,903.575,,
-35.722,903.575,,
-37.440,903.575,,
-38.100,903.575,,
-37.959,904.132,,
-39.543,904.132,,
-38.445,904.132,,
-39.083,904.132,,
-39.313,904.875,,
-38.501,904.875,,
-40.267,904.875,,
-40.014,904.875,,
-40.926,905.506,,
-42.480,905.506,,
-42.147,905.506,,
-44.246,905.506,,
-44.084,906.116,,
-43.812,906.116,,
-44.706,906.116,,
-43.248,906.116,,
-43.985,906.985,,
-43.949,906.985,,
-43.620,906.985,,
-45.556,906.985,,
-45.509,907.700,,
-47.381,907.700,,
-48.843,907.700,,
-48.386,907.700,,
-49.802,908.252,,
-49.089,908.252,,
-49.332,908.252,,
-50.003,908.252,,
-47.938,908.911,,
-48.082,908.911,,
-46.571,908.911,,
-45.168,908.911,,
-45.774,909.573,,
-44.050,909.573,,
-44.389,909.573,,
-43.912,909.573,,
-43.156,909.900,,
-44.775,909.900,,
-44.116,909.900,,
-45.094,909.900,,
-45.716,910.278,,
-44.593,910.278,,
-45.986,910.278,,
-45.677,910.278,,
-46.254,910.781,,
-47.974,910.781,,
-47.669,910.781,,
-49.051,910.781,,
-48.685,911.330,,
-48.230,911.330,,
-49.227,911.330,,
-47.626,911.330,,
-48.044,911.886,,
-47.643,911.886,,
-46.547,911.886,,
-48.050,911.886,,
-47.267,912.346,,
-48.304,912.346,,
-49.455,912.346,,
-48.517,912.346,,
-49.604,912.785,,
-48.292,912.785,,
-47.774,912.785,,
-48.764,912.785,,
-47.608,913.196,,
-48.465,913.196,,
-47.484,913.196,,
-46.108,913.196,,
-46.906,913.579,,
-45.986,913.579,,
-47.438,913.579,,
-48.045,913.579,,
-47.023,913.863,,
-47.468,913.863,,
-45.734,913.863,,
-46.018,913.863,,
-47.072,914.239,,
-46.439,914.239,,
-48.268,914.239,,
-48.239,914.239,,
-48.947,914.504,,
-50.334,914.504,,
-48.885,914.504,,
-49.398,914.504,,
-48.511,914.845,,
-46.772,914.845,,
-46.867,914.845,,
-44.978,914.845,,
-45.294,915.215,,
-45.363,915.215,,
-44.655,915.215,,
-46.183,915.215,,
-45.397,915.433,,
-46.094,915.433,,
-47.061,915.433,,
-45.952,915.433,,
-47.539,915.596,,
-47.364,915.596,,
-47.662,915.596,,
-48.841,915.596,,
-47.351,915.810,,
-48.042,915.810,,
-47.307,915.810,,
-45.977,915.810,,
-46.813,916.006,,
-45.347,916.006,,
-45.733,916.006,,
-45.716,916.006,,
-44.946,915.867,,
-46.663,915.867,,
-45.995,915.867,,
-46.512,915.867,,
-47.737,915.896,,
-46.731,915.896,,
-47.904,915.896,,
-47.019,915.896,,
-45.949,915.497,,
-46.289,915.497,,
-44.615,915.497,,
-45.341,915.497,,
-44.896,914.853,,
-43.561,914.853,,
-44.268,914.853,,
-42.699,914.853,,
-42.952,914.429,,
-42.901,914.429,,
-41.343,914.429,,
-41.914,914.429,,
-39.916,914.117,,
-39.149,914.117,,
-39.223,914.117,,
-37.322,914.117,,
-38.243,913.868,,
-37.948,913.868,,
-38.121,913.868,,
-39.914,913.868,,
-39.649,913.811,,
-41.838,913.811,,
-42.835,913.811,,
-42.892,913.811,,
-44.732,913.582,,
-43.664,913.582,,
-44.104,913.582,,
-44.755,913.582,,
-44.070,913.157,,
-45.732,913.157,,
-45.094,913.157,,
-45.332,913.157,,
-46.251,913.001,,
-44.872,913.001,,
-45.862,913.001,,
-44.978,913.001,,
-43.899,912.707,,
-44.312,912.707,,
-42.472,912.707,,
-43.158,912.707,,
-43.008,912.270,,
-42.086,912.270,,
-43.134,912.270,,
-42.041,912.270,,
-43.023,911.959,,
-44.288,911.959,,
-43.749,911.959,,
-45.786,911.959,,
-45.854,911.581,,
-46.111,911.581,,
-46.978,911.581,,
-45.746,911.581,,
-46.362,911.276,,
-45.172,911.276,,
-43.633,911.276,,
-43.555,911.276,,
-41.501,911.050,,
-42.562,911.050,,
-43.389,911.050,,
-42.862,911.050,,
-44.250,910.835,,
-43.150,910.835,,
-43.684,910.835,,
-44.834,910.835,,
-44.439,910.645,,
-46.522,910.645,,
-46.433,910.645,,
-46.862,910.645,,
-47.978,910.447,,
-46.337,910.447,,
-47.079,910.447,,
-46.337,910.447,,
-45.460,910.005,,
-46.815,910.005,,
-45.610,910.005,,
-46.420,910.005,,
-46.734,909.573,,
-45.978,909.573,,
-47.720,909.573,,
-47.312,909.573,,
-48.384,909.154,,
-49.145,909.154,,
-47.218,909.154,,
-47.330,909.154,,
-45.963,908.607,,
-46.016,908.607,,
-47.829,908.607,,
-47.792,908.607,,
-49.917,908.045,,
-50.537,908.045,,
-50.246,908.045,,
-51.482,908.045,,
-50.216,907.440,,
-50.854,907.440,,
-50.873,907.440,,
-49.424,907.440,,
-50.005,906.785,,
-48.227,906.785,,
-48.013,906.785,,
-48.396,906.785,,
-46.284,906.113,,
-46.213,906.113,,
-44.338,906.113,,
-43.503,906.113,,
-44.936,905.472,,
-44.350,905.472,,
-45.813,905.472,,
-45.733,905.472,,
-45.176,904.684,,
-46.761,904.684,,
-45.712,904.684,,
-46.213,904.684,,
-46.150,904.076,,
-44.813,904.076,,
-45.768,904.076,,
-44.253,904.076,,
-44.054,903.596,,
-44.778,903.596,,
-44.031,903.596,,
-45.892,903.596,,
-45.676,903.101,,
-44.855,903.101,,
-45.590,903.101,,
-44.194,903.101,,
-45.366,902.707,,
-45.779,902.707,,
-45.046,902.707,,
-45.913,902.707,,
-44.734,901.938,,
-45.714,901.938,,
-46.552,901.938,,
-45.519,901.938,,
-46.401,900.718,,
-44.430,900.718,,
-42.831,900.718,,
-41.658,900.718,,
-38.593,899.728,,
-38.476,899.728,,
-36.999,899.728,,
-35.872,899.728,,
-36.687,899.029,,
-35.232,899.029,,
-36.502,899.029,,
-37.296,899.029,,
-37.161,898.346,,
-38.874,898.346,,
-38.340,898.346,,
-39.898,898.346,,
-41.930,898.005,,
-41.960,898.005,,
-43.841,898.005,,
-43.624,898.005,,
-44.521,897.665,,
-46.171,897.665,,
-45.018,897.665,,
-45.810,897.665,,
-44.928,897.182,,
-44.210,897.182,,
-45.051,897.182,,
-42.668,897.182,,
-42.069,896.881,,
-41.082,896.881,,
-39.341,896.881,,
-39.764,896.881,,
-38.291,896.620,,
-38.774,896.620,,
-39.875,896.620,,
-39.796,896.620,,
-42.340,896.273,,
-42.876,896.273,,
-43.993,896.273,,
-45.685,896.273,,
-44.547,896.098,,
-45.318,896.098,,
-44.254,896.098,,
-42.537,896.098,,
-42.765,896.110,,
-41.398,896.110,,
-42.518,896.110,,
-42.969,896.110,,
-42.196,896.030,,
-43.389,896.030,,
-41.649,896.030,,
-41.317,896.030,,
-41.505,896.034,,
-40.324,896.034,,
-41.980,896.034,,
-41.750,896.034,,
-42.235,895.981,,
-43.796,895.981,,
-42.639,895.981,,
-43.453,895.981,,
-42.930,896.015,,
-42.208,896.015,,
-43.848,896.015,,
-43.773,896.015,,
-45.906,896.287,,
-46.909,896.287,,
-46.109,896.287,,
-47.090,896.287,,
-45.632,896.602,,
-45.503,896.602,,
-45.970,896.602,,
-44.275,896.602,,
-45.193,896.816,,
-44.503,896.816,,
-44.598,896.816,,
-45.935,896.816,,
-44.837,897.011,,
-45.660,897.011,,
-45.035,897.011,,
-44.117,897.011,,
-45.626,897.150,,
-44.694,897.150,,
-45.844,897.150,,
-46.088,897.150,,
-44.203,897.413,,
-44.395,897.413,,
-42.635,897.413,,
-42.385,897.413,,
-43.074,898.352,,
-42.195,898.352,,
-43.890,898.352,,
-43.375,898.352,,
-42.953,899.818,,
-44.193,899.818,,
-43.275,899.818,,
-44.608,899.818,,
-44.195,900.749,,
-42.400,900.749,,
-42.457,900.749,,
-40.397,900.749,,
-40.489,901.248,,
-40.491,901.248,,
-39.121,901.248,,
-40.324,901.248,,
-39.961,901.701,,
-41.134,901.701,,
-42.836,901.701,,
-42.112,901.701,,
-43.571,902.138,,
-43.497,902.138,,
-43.767,902.138,,
-45.662,902.138,,
-45.085,902.488,,
-46.068,902.488,,
-45.750,902.488,,
-45.138,902.488,,
-47.302,902.621,,
-47.273,902.621,,
-48.773,902.621,,
-49.409,902.621,,
-47.718,902.605,,
-48.508,902.605,,
-47.254,902.605,,
-47.013,902.605,,
-47.711,902.698,,
-46.262,902.698,,
-47.681,902.698,,
-47.593,902.698,,
-47.213,902.509,,
-48.285,902.509,,
-46.781,902.509,,
-47.056,902.509,,
-46.327,902.092,,
-44.688,902.092,,
-44.845,902.092,,
-42.394,902.092,,
-41.217,901.797,,
-40.175,901.797,,
-37.457,901.797,,
-37.297,901.797,,
-35.230,901.479,,
-33.804,901.479,,
-33.430,901.479,,
-31.142,901.479,,
-31.736,901.101,,
-31.048,901.101,,
-30.376,901.101,,
-31.826,901.101,,
-31.216,901.000,,
-32.503,901.000,,
-33.220,901.000,,
-33.190,901.000,,
-35.852,900.952,,
-36.345,900.952,,
-38.019,900.952,,
-39.589,900.952,,
-39.204,900.694,,
-40.899,900.694,,
-40.055,900.694,,
-39.788,900.694,,
-40.759,900.505,,
-39.851,900.505,,
-41.665,900.505,,
-42.013,900.505,,
-41.522,900.404,,
-42.820,900.404,,
-42.306,900.404,,
-43.723,900.404,,
-44.431,900.229,,
-43.466,900.229,,
-44.193,900.229,,
-42.846,900.229,,
-43.219,900.009,,
-44.206,900.009,,
-43.220,900.009,,
-44.010,900.009,,
-43.043,899.855,,
-43.002,899.855,,
-44.418,899.855,,
-43.480,899.855,,
-44.666,899.652,,
-44.569,899.652,,
-43.915,899.652,,
-44.887,899.652,,
-43.378,899.426,,
-43.827,899.426,,
-43.987,899.426,,
-42.887,899.426,,
-44.006,899.246,,
-43.006,899.246,,
-42.825,899.246,,
-43.099,899.246,,
-41.903,898.960,,
-43.485,898.960,,
-43.607,898.960,,
-43.937,898.960,,
-45.511,898.827,,
-44.720,898.827,,
-45.730,898.827,,
-44.971,898.827,,
-43.146,898.611,,
-43.579,898.611,,
-42.078,898.611,,
-42.809,898.611,,
-43.470,898.404,,
-42.704,898.404,,
-43.933,898.404,,
-42.780,898.404,,
-42.776,898.214,,
-43.532,898.214,,
-42.221,898.214,,
-43.038,898.214,,
-42.041,897.968,,
-41.281,897.968,,
-42.298,897.968,,
-41.438,897.968,,
-42.962,897.804,,
-43.773,897.804,,
-43.776,897.804,,
-45.199,897.804,,
-43.928,897.571,,
-44.352,897.571,,
-44.885,897.571,,
-44.083,897.571,,
-45.784,897.100,,
-45.559,897.100,,
-46.097,897.100,,
-47.417,897.100,,
-46.351,896.501,,
-46.993,896.501,,
-45.924,896.501,,
-44.875,896.501,,
-45.285,896.051,,
-43.564,896.051,,
-44.154,896.051,,
-43.853,896.051,,
-42.249,895.599,,
-42.863,895.599,,
-41.454,895.599,,
-41.534,895.599,,
-42.038,895.515,,
-41.295,895.515,,
-42.615,895.515,,
-41.774,895.515,,
-42.316,895.557,,
-43.850,895.557,,
-42.962,895.557,,
-44.617,895.557,,
-44.739,895.414,,
-44.418,895.414,,
-45.702,895.414,,
-44.738,895.414,,
-45.933,894.942,,
-46.374,894.942,,
-45.276,894.942,,
-46.371,894.942,,
-45.455,894.258,,
-45.661,894.258,,
-46.018,894.258,,
-44.601,894.258,,
-45.754,893.269,,
-45.208,893.269,,
-45.312,893.269,,
-46.134,893.269,,
-44.606,892.063,,
-45.535,892.063,,
-44.687,892.063,,
-43.217,892.063,,
-43.823,891.070,,
-42.196,891.070,,
-42.336,891.070,,
-41.561,891.070,,
-39.309,890.333,,
-39.044,890.333,,
-36.212,890.333,,
-34.859,890.333,,
-34.363,889.883,,
-32.514,889.883,,
-33.793,889.883,,
-33.990,889.883,,
-34.971,889.809,,
-37.216,889.809,,
-37.459,889.809,,
-40.501,889.809,,
-41.863,889.968,,
-41.826,889.968,,
-43.172,889.968,,
-41.864,889.968,,
-41.897,890.010,,
-41.278,890.010,,
-39.805,890.010,,
-40.754,890.010,,
-39.333,890.135,,
-38.926,890.135,,
-38.819,890.135,,
-37.332,890.135,,
-38.517,890.666,,
-38.215,890.666,,
-38.658,890.666,,
-40.977,890.666,,
-41.203,891.219,,
-43.201,891.219,,
-43.738,891.219,,
-43.460,891.219,,
-44.922,891.679,,
-44.332,891.679,,
-45.710,891.679,,
-46.778,891.679,,
-46.363,892.158,,
-47.986,892.158,,
-47.255,892.158,,
-47.550,892.158,,
-48.494,892.915,,
-47.072,892.915,,
-47.543,892.915,,
-46.223,892.915,,
-45.330,893.571,,
-45.878,893.571,,
-44.080,893.571,,
-44.618,893.571,,
-44.188,894.226,,
-42.911,894.226,,
-43.985,894.226,,
-43.329,894.226,,
-44.863,895.096,,
-46.570,895.096,,
-46.497,895.096,,
-48.095,895.096,,
-47.453,895.920,,
-47.304,895.920,,
-47.395,895.920,,
-45.189,895.920,,
-45.540,896.648,,
-45.103,896.648,,
-45.261,896.648,,
-47.083,896.648,,
-46.094,897.352,,
-46.787,897.352,,
-46.479,897.352,,
-45.460,897.352,,
-46.610,898.016,,
-45.376,898.016,,
-45.452,898.016,,
-45.275,898.016,,
-43.463,898.674,,
-43.844,898.674,,
-42.492,898.674,,
-42.891,898.674,,
-44.732,899.519,,
-44.302,899.519,,
-45.596,899.519,,
-44.895,899.519,,
-44.162,900.228,,
-45.353,900.228,,
-44.551,900.228,,
-45.540,900.228,,
-45.592,901.003,,
-44.858,901.003,,
-46.489,901.003,,
-45.805,901.003,,
-46.352,902.027,,
-46.433,902.027,,
-44.857,902.027,,
-45.868,902.027,,
-44.922,903.062,,
-44.708,903.062,,
-45.464,903.062,,
-44.492,903.062,,
-45.762,903.861,,
-45.415,903.861,,
-44.865,903.861,,
-46.283,903.861,,
-45.965,904.748,,
-47.674,904.748,,
-48.401,904.748,,
-47.462,904.748,,
-48.431,905.858,,
-47.765,905.858,,
-48.686,905.858,,
-49.533,905.858,,
-48.484,906.769,,
-49.831,906.769,,
-49.089,906.769,,
-48.994,906.769,,
-49.742,907.510,,
-48.375,907.510,,
-49.281,907.510,,
-48.950,907.510,,
-48.087,908.141,,
-48.875,908.141,,
-47.479,908.141,,
-48.282,908.141,,
-48.649,908.361,,
-47.753,908.361,,
-49.069,908.361,,
-47.967,908.361,,
-47.883,908.556,,
-47.398,908.556,,
-44.703,908.556,,
-44.218,908.556,,
-41.779,909.016,,
-39.977,909.016,,
-39.879,909.016,,
-37.478,909.016,,
-37.337,909.629,,
-36.462,909.629,,
-35.561,909.629,,
-37.105,909.629,,
-36.894,910.246,,
-38.910,910.246,,
-40.496,910.246,,
-40.502,910.246,,
-43.098,910.780,,
-43.750,910.780,,
-45.388,910.780,,
-47.334,910.780,,
-47.203,911.046,,
-49.026,911.046,,
-48.858,911.046,,
-48.632,911.046,,
-49.597,911.448,,
-47.991,911.448,,
-48.165,911.448,,
-46.704,911.448,,
-44.679,911.770,,
-45.258,911.770,,
-43.939,911.770,,
-44.562,911.770,,
-45.087,911.871,,
-43.889,911.871,,
-44.745,911.871,,
-43.778,911.871,,
-43.743,911.924,,
-44.495,911.924,,
-43.193,911.924,,
-44.142,911.924,,
-43.426,912.037,,
-43.245,912.037,,
-44.497,912.037,,
-43.108,912.037,,
-44.120,912.261,,
-44.612,912.261,,
-44.564,912.261,,
-46.635,912.261,,
-46.350,912.351,,
-47.229,912.351,,
-47.682,912.351,,
-46.563,912.351,,
-47.750,912.105,,
-46.741,912.105,,
-46.716,912.105,,
-47.462,912.105,,
-46.715,911.851,,
-48.981,911.851,,
-49.461,911.851,,
-49.500,911.851,,
-50.571,911.544,,
-49.007,911.544,,
-49.681,911.544,,
-49.638,911.544,,
-48.508,911.050,,
-49.527,911.050,,
-48.254,911.050,,
-48.310,911.050,,
-48.503,910.607,,
-47.328,910.607,,
-48.698,910.607,,
-48.189,910.607,,
-48.282,910.192,,
-48.735,910.192,,
-47.107,910.192,,
-47.795,910.192,,
-47.279,909.593,,
-46.836,909.593,,
-47.833,909.593,,
-46.395,909.593,,
-47.076,908.842,,
-47.390,908.842,,
-46.905,908.842,,
-48.307,908.842,,
-47.143,908.138,,
-47.284,908.138,,
-47.302,908.138,,
-45.522,908.138,,
-46.502,907.267,,
-45.770,907.267,,
-45.571,907.267,,
-46.051,907.267,,
-44.826,906.326,,
-46.479,906.326,,
-46.604,906.326,,
-46.324,906.326,,
-47.441,905.528,,
-46.283,905.528,,
-47.095,905.528,,
-46.977,905.528,,
-45.837,904.711,,
-46.880,904.711,,
-45.043,904.711,,
-44.547,904.711,,
-44.792,903.859,,
-43.316,903.859,,
-44.131,903.859,,
-43.573,903.859,,
-43.962,903.184,,
-45.503,903.184,,
-44.807,903.184,,
-46.276,903.184,,
-46.103,902.490,,
-45.383,902.490,,
-46.666,902.490,,
-45.707,902.490,,
-46.221,901.349,,
-46.341,901.349,,
-45.610,901.349,,
-47.061,901.349,,
-45.972,900.079,,
-45.659,900.079,,
-45.029,900.079,,
-42.239,900.079,,
-41.872,899.200,,
-39.778,899.200,,
-38.141,899.200,,
-37.883,899.200,,
-35.985,898.576,,
-36.810,898.576,,
-36.538,898.576,,
-35.680,898.576,,
-37.069,898.168,,
-36.546,898.168,,
-38.171,898.168,,
-39.447,898.168,,
-39.017,897.769,,
-40.909,897.769,,
-40.799,897.769,,
-41.865,897.769,,
-43.335,897.416,,
-42.898,897.416,,
-44.955,897.416,,
-45.242,897.416,,
-45.189,897.230,,
-45.707,897.230,,
-43.828,897.230,,
-44.458,897.230,,
-44.527,897.013,,
-44.378,897.013,,
-46.444,897.013,,
-46.034,897.013,,
-47.131,896.614,,
-47.782,896.614,,
-47.100,896.614,,
-48.714,896.614,,
-48.401,896.328,,
-49.131,896.328,,
-50.172,896.328,,
-48.674,896.328,,
-49.318,896.171,,
-48.488,896.171,,
-47.714,896.171,,
-48.164,896.171,,
-46.003,895.978,,
-45.427,895.978,,
-43.788,895.978,,
-42.066,895.978,,
