Data recorded on Mon Jun 26 15:25:38 CAT 2017
Time: 15:25:46
Time		Millis		IR PPG		Red PPG		Filtered		SSF
25,50	,	40618	,	-23186	,	-20939	,	-6.4274654	,	0
25,50	,	40634	,	-23174	,	-20945	,	-7.721115	,	0
25,50	,	40666	,	-23179	,	-20946	,	-8.750553	,	0
25,50	,	40682	,	-23188	,	-20943	,	-9.286835	,	0
25,50	,	40698	,	-23179	,	-20943	,	-9.338032	,	0
25,50	,	40730	,	-23191	,	-20955	,	-9.022494	,	0
25,50	,	40746	,	-23193	,	-20946	,	-8.502519	,	0
25,50	,	40778	,	-23201	,	-20951	,	-8.010609	,	0
25,50	,	40794	,	-23202	,	-20951	,	-7.75058	,	0
25,50	,	40810	,	-23208	,	-20953	,	-7.819375	,	0
25,50	,	40842	,	-23192	,	-20938	,	-8.128527	,	0
25,50	,	40858	,	-23177	,	-20950	,	-8.261643	,	0
25,50	,	40874	,	-23173	,	-20947	,	-7.6024923	,	0
25,50	,	40906	,	-23166	,	-20939	,	-5.7674055	,	0
25,50	,	40922	,	-23167	,	-20941	,	-2.8295486	,	1
25,50	,	40938	,	-23165	,	-20945	,	0.7757571	,	3
25,50	,	40970	,	-23174	,	-20961	,	4.415474	,	6
25,50	,	40986	,	-23161	,	-20935	,	7.4867415	,	9
25,50	,	41018	,	-23160	,	-20946	,	9.688065	,	12
25,50	,	41034	,	-23160	,	-20943	,	11.027165	,	14
25,50	,	41050	,	-23171	,	-20949	,	11.540648	,	15
25,50	,	41082	,	-23183	,	-20947	,	11.102819	,	15
25,50	,	41098	,	-23179	,	-20950	,	9.557078	,	15
25,50	,	41114	,	-23179	,	-20945	,	7.0261745	,	14
25,50	,	41146	,	-23167	,	-20948	,	4.012992	,	12
25,50	,	41162	,	-23175	,	-20943	,	1.1641393	,	9
25,50	,	41194	,	-23168	,	-20937	,	-1.0528316	,	6
25,50	,	41210	,	-23180	,	-20965	,	-2.4914863	,	3
25,50	,	41226	,	-23175	,	-20935	,	-3.2642326	,	1
25,50	,	41258	,	-23171	,	-20953	,	-3.5378442	,	0
25,50	,	41274	,	-23186	,	-20951	,	-3.447067	,	0
25,50	,	41290	,	-23181	,	-20954	,	-3.2141156	,	0
25,50	,	41322	,	-23185	,	-20952	,	-3.0633254	,	0
25,50	,	41338	,	-23192	,	-20957	,	-3.1008773	,	0
25,50	,	41354	,	-23192	,	-20946	,	-3.3979292	,	0
25,50	,	41386	,	-23187	,	-20950	,	-3.9343545	,	0
25,50	,	41402	,	-23197	,	-20954	,	-4.551909	,	0
25,50	,	41434	,	-23194	,	-20950	,	-5.1237993	,	0
25,50	,	41450	,	-23203	,	-20972	,	-5.634346	,	0
25,50	,	41466	,	-23191	,	-20949	,	-6.0724587	,	0
25,50	,	41498	,	-23208	,	-20967	,	-6.3820496	,	0
25,50	,	41514	,	-23214	,	-20964	,	-6.6248474	,	0
25,50	,	41530	,	-23214	,	-20957	,	-7.0082693	,	0
25,50	,	41562	,	-23221	,	-20961	,	-7.642638	,	0
25,50	,	41578	,	-23218	,	-20973	,	-8.45769	,	0
25,50	,	41610	,	-23219	,	-20977	,	-9.270991	,	0
25,51	,	41625	,	-23222	,	-20968	,	-9.871317	,	0
25,51	,	41641	,	-23226	,	-20973	,	-10.151315	,	0
25,51	,	41673	,	-23233	,	-20972	,	-10.165097	,	0
25,51	,	41690	,	-23224	,	-20991	,	-10.013653	,	0
25,51	,	41706	,	-23242	,	-20968	,	-9.747103	,	0
25,51	,	41738	,	-23236	,	-20980	,	-9.45289	,	0
25,51	,	41754	,	-23226	,	-20968	,	-9.15873	,	0
25,51	,	41770	,	-23231	,	-20966	,	-8.675069	,	0
25,51	,	41802	,	-23208	,	-20968	,	-7.7261662	,	0
25,51	,	41818	,	-23206	,	-20968	,	-6.030887	,	0
25,51	,	41849	,	-23216	,	-20970	,	-3.4998956	,	1
25,51	,	41865	,	-23214	,	-20970	,	-0.50892806	,	3
25,51	,	41881	,	-23204	,	-20968	,	2.3885126	,	5
25,51	,	41913	,	-23202	,	-20972	,	4.901372	,	7
25,51	,	41929	,	-23206	,	-20988	,	6.9384623	,	9
25,51	,	41946	,	-23203	,	-20965	,	8.389504	,	11
25,51	,	41978	,	-23204	,	-20973	,	9.157823	,	12
25,51	,	41994	,	-23216	,	-20981	,	9.186472	,	12
25,51	,	42025	,	-23218	,	-20973	,	8.380885	,	12
25,51	,	42041	,	-23211	,	-20980	,	6.749218	,	11
25,51	,	42057	,	-23218	,	-20978	,	4.5627537	,	9
25,51	,	42090	,	-23202	,	-20976	,	2.260894	,	7
25,51	,	42106	,	-23213	,	-20969	,	0.2957754	,	5
25,51	,	42122	,	-23217	,	-20977	,	-1.0976725	,	3
25,51	,	42154	,	-23217	,	-20974	,	-2.011396	,	1
25,51	,	42169	,	-23211	,	-20966	,	-2.597578	,	0
25,51	,	42185	,	-23221	,	-20973	,	-2.9027345	,	0
25,51	,	42217	,	-23222	,	-20979	,	-3.0161932	,	0
25,51	,	42233	,	-23224	,	-20978	,	-3.1051192	,	0
25,51	,	42266	,	-23223	,	-20983	,	-3.2681375	,	0
25,51	,	42282	,	-23223	,	-20983	,	-3.4793878	,	0
25,51	,	42297	,	-23233	,	-20983	,	-3.6960406	,	0
25,51	,	42330	,	-23228	,	-20983	,	-3.9504328	,	0
25,51	,	42345	,	-23219	,	-20985	,	-4.2075396	,	0
25,51	,	42361	,	-23227	,	-20985	,	-4.284	,	0
25,51	,	42393	,	-23232	,	-20987	,	-4.104394	,	0
25,51	,	42409	,	-23223	,	-20986	,	-3.7810698	,	0
25,51	,	42441	,	-23237	,	-20982	,	-3.4294245	,	0
25,51	,	42457	,	-23248	,	-20984	,	-3.2319646	,	0
25,51	,	42473	,	-23249	,	-20989	,	-3.486977	,	0
25,51	,	42505	,	-23242	,	-20987	,	-4.295424	,	0
25,51	,	42521	,	-23249	,	-20984	,	-5.4125366	,	0
25,51	,	42537	,	-23257	,	-20985	,	-6.558917	,	0
25,51	,	42569	,	-23251	,	-20990	,	-7.620887	,	0
25,51	,	42585	,	-23253	,	-20992	,	-8.482165	,	0
25,52	,	42617	,	-23245	,	-20993	,	-8.934335	,	0
25,52	,	42633	,	-23263	,	-20997	,	-8.860331	,	0
25,52	,	42649	,	-23264	,	-21009	,	-8.431561	,	0
25,52	,	42681	,	-23265	,	-20995	,	-7.970219	,	0
25,52	,	42697	,	-23255	,	-20995	,	-7.5983877	,	0
25,52	,	42713	,	-23247	,	-20995	,	-7.1230392	,	0
25,52	,	42745	,	-23245	,	-20998	,	-6.223496	,	0
25,52	,	42761	,	-23240	,	-21001	,	-4.7120066	,	0
25,52	,	42777	,	-23242	,	-20996	,	-2.644457	,	1
25,52	,	42809	,	-23241	,	-20994	,	-0.27828813	,	3
25,52	,	42825	,	-23239	,	-20987	,	2.0460155	,	5
25,52	,	42857	,	-23240	,	-20992	,	4.0355253	,	7
25,52	,	42873	,	-23234	,	-20988	,	5.5188913	,	8
25,52	,	42889	,	-23237	,	-21000	,	6.4648094	,	9
25,52	,	42921	,	-23237	,	-20986	,	6.900323	,	9
25,52	,	42937	,	-23244	,	-21003	,	6.813421	,	9
25,52	,	42953	,	-23240	,	-20993	,	6.191021	,	9
25,52	,	42985	,	-23248	,	-20990	,	5.094445	,	8
25,52	,	43001	,	-23242	,	-20996	,	3.6557271	,	6
25,52	,	43033	,	-23246	,	-21000	,	2.0626225	,	4
25,52	,	43049	,	-23245	,	-20999	,	0.5246167	,	2
25,52	,	43065	,	-23240	,	-20998	,	-0.7731732	,	1
25,52	,	43097	,	-23232	,	-20994	,	-1.6330276	,	0
25,52	,	43113	,	-23248	,	-20995	,	-1.9280957	,	0
25,52	,	43129	,	-23243	,	-21002	,	-1.7892351	,	0
25,52	,	43161	,	-23238	,	-20979	,	-1.4513974	,	0
25,52	,	43177	,	-23237	,	-20995	,	-0.9881039	,	0
25,52	,	43193	,	-23247	,	-20998	,	-0.43119705	,	0
25,52	,	43225	,	-23260	,	-20994	,	-0.024520159	,	0
25,52	,	43241	,	-23260	,	-21006	,	-0.15644738	,	0
25,52	,	43273	,	-23253	,	-20995	,	-0.9782846	,	0
25,52	,	43289	,	-23262	,	-21000	,	-2.258237	,	0
25,52	,	43305	,	-23260	,	-20997	,	-3.6751642	,	0
25,52	,	43337	,	-23261	,	-20994	,	-4.9997497	,	0
25,52	,	43353	,	-23257	,	-20993	,	-6.0291095	,	0
25,52	,	43369	,	-23254	,	-21001	,	-6.5724177	,	0
25,52	,	43401	,	-23265	,	-20981	,	-6.555151	,	0
25,52	,	43417	,	-23266	,	-20998	,	-6.1296816	,	0
25,52	,	43449	,	-23260	,	-21000	,	-5.5377917	,	0
25,52	,	43465	,	-23260	,	-21003	,	-4.87409	,	0
25,52	,	43481	,	-23274	,	-21001	,	-4.1880426	,	0
25,52	,	43513	,	-23267	,	-21004	,	-3.64671	,	0
25,52	,	43529	,	-23265	,	-20995	,	-3.3466206	,	0
25,52	,	43545	,	-23284	,	-21001	,	-3.2638097	,	0
25,52	,	43576	,	-23281	,	-21001	,	-3.4886475	,	0
25,52	,	43593	,	-23291	,	-21003	,	-4.1664724	,	0
25,52	,	43609	,	-23272	,	-21001	,	-5.214861	,	0
25,53	,	43641	,	-23278	,	-20986	,	-6.2454996	,	0
25,53	,	43657	,	-23261	,	-20987	,	-6.7637744	,	0
25,53	,	43689	,	-23259	,	-20995	,	-6.3811913	,	0
25,53	,	43705	,	-23252	,	-20987	,	-4.9164915	,	0
25,53	,	43721	,	-23252	,	-20990	,	-2.477849	,	1
25,53	,	43752	,	-23248	,	-20995	,	0.5777056	,	3
25,53	,	43769	,	-23243	,	-20991	,	3.8176966	,	6
25,53	,	43785	,	-23233	,	-20989	,	6.9166403	,	9
25,53	,	43817	,	-23241	,	-20985	,	9.667468	,	12
25,53	,	43833	,	-23240	,	-20986	,	11.817011	,	14
25,53	,	43865	,	-23238	,	-20998	,	13.092478	,	16
25,53	,	43880	,	-23242	,	-20984	,	13.383961	,	17
25,53	,	43896	,	-23248	,	-20981	,	12.7154255	,	17
25,53	,	43928	,	-23224	,	-20972	,	11.263995	,	16
25,53	,	43945	,	-23224	,	-20984	,	9.527749	,	14
25,53	,	43961	,	-23227	,	-20981	,	8.06654	,	11
25,53	,	43993	,	-23222	,	-20976	,	7.0970097	,	8
25,53	,	44009	,	-23230	,	-20976	,	6.5348554	,	5
25,53	,	44025	,	-23225	,	-20975	,	6.1788507	,	3
25,53	,	44056	,	-23222	,	-20981	,	5.8588414	,	1
25,53	,	44073	,	-23228	,	-20981	,	5.509818	,	0
25,53	,	44105	,	-23222	,	-20982	,	5.096328	,	0
25,53	,	44121	,	-23237	,	-20982	,	4.547598	,	0
25,53	,	44137	,	-23229	,	-20984	,	3.7567072	,	0
25,53	,	44169	,	-23236	,	-20979	,	2.6804764	,	0
25,53	,	44185	,	-23236	,	-20973	,	1.3857994	,	0
25,53	,	44201	,	-23243	,	-20984	,	-0.050135493	,	0
25,53	,	44232	,	-23250	,	-20983	,	-1.6068609	,	0
25,53	,	44248	,	-23233	,	-20976	,	-3.2169697	,	0
25,53	,	44280	,	-23238	,	-20986	,	-4.6020913	,	0
25,53	,	44296	,	-23245	,	-20985	,	-5.472373	,	0
25,53	,	44312	,	-23245	,	-20979	,	-5.82728	,	0
25,53	,	44345	,	-23241	,	-20985	,	-5.8127456	,	0
25,53	,	44361	,	-23249	,	-20979	,	-5.531336	,	0
25,53	,	44376	,	-23246	,	-20989	,	-5.094367	,	0
25,53	,	44408	,	-23248	,	-20981	,	-4.6128044	,	0
25,53	,	44424	,	-23253	,	-20983	,	-4.160549	,	0
25,53	,	44456	,	-23255	,	-20979	,	-3.831614	,	0
25,53	,	44472	,	-23245	,	-20983	,	-3.6695023	,	0
25,53	,	44488	,	-23254	,	-20982	,	-3.5757847	,	0
25,53	,	44521	,	-23253	,	-20981	,	-3.4526038	,	0
25,53	,	44537	,	-23264	,	-20984	,	-3.3499236	,	0
25,53	,	44553	,	-23269	,	-20991	,	-3.4537497	,	0
25,53	,	44584	,	-23265	,	-20997	,	-3.9240305	,	0
25,53	,	44600	,	-23273	,	-20994	,	-4.7237644	,	0
25,54	,	44616	,	-23253	,	-20984	,	-5.6116652	,	0
25,54	,	44648	,	-23238	,	-20978	,	-6.0955114	,	0
25,54	,	44664	,	-23217	,	-20977	,	-5.4651194	,	0
25,54	,	44696	,	-23217	,	-20970	,	-3.183252	,	0
25,54	,	44712	,	-23220	,	-20973	,	0.6650717	,	2
25,54	,	44728	,	-23219	,	-20973	,	5.344926	,	5
25,54	,	44760	,	-23216	,	-20964	,	9.917169	,	9
25,54	,	44776	,	-23206	,	-20970	,	13.706447	,	13
25,54	,	44792	,	-23205	,	-20971	,	16.440989	,	16
25,54	,	44824	,	-23195	,	-20956	,	18.137075	,	18
25,54	,	44840	,	-23199	,	-20975	,	18.93441	,	19
25,54	,	44872	,	-23197	,	-20959	,	18.948872	,	19
25,54	,	44888	,	-23205	,	-20960	,	18.203545	,	19
25,54	,	44904	,	-23197	,	-20959	,	16.71708	,	17
25,54	,	44936	,	-23195	,	-20951	,	14.654846	,	14
25,54	,	44952	,	-23176	,	-20961	,	12.41491	,	10
25,54	,	44968	,	-23181	,	-20961	,	10.519925	,	6
25,54	,	45000	,	-23185	,	-20965	,	9.262401	,	3
25,54	,	45016	,	-23177	,	-20965	,	8.550933	,	1
25,54	,	45032	,	-23174	,	-20958	,	8.199455	,	0
25,54	,	45064	,	-23181	,	-20952	,	8.073518	,	0
25,54	,	45080	,	-23171	,	-20961	,	8.0081005	,	0
25,54	,	45112	,	-23189	,	-20943	,	7.821504	,	0
25,54	,	45128	,	-23176	,	-20950	,	7.338566	,	0
25,54	,	45144	,	-23184	,	-20954	,	6.4823103	,	0
25,54	,	45176	,	-23189	,	-20952	,	5.2918997	,	0
25,54	,	45192	,	-23185	,	-20953	,	3.8203242	,	0
25,54	,	45208	,	-23191	,	-20954	,	2.1698842	,	0
25,54	,	45240	,	-23184	,	-20954	,	0.51223564	,	0
25,54	,	45256	,	-23185	,	-20957	,	-0.9458455	,	0
25,54	,	45288	,	-23186	,	-20950	,	-2.0167809	,	0
25,54	,	45304	,	-23183	,	-20960	,	-2.6175957	,	0
25,54	,	45320	,	-23193	,	-20968	,	-2.8003173	,	0
25,54	,	45352	,	-23184	,	-20953	,	-2.719307	,	0
25,54	,	45368	,	-23195	,	-20955	,	-2.5263553	,	0
25,54	,	45384	,	-23196	,	-20955	,	-2.3632493	,	0
25,54	,	45416	,	-23191	,	-20959	,	-2.353808	,	0
25,54	,	45432	,	-23203	,	-20965	,	-2.5198836	,	0
25,54	,	45448	,	-23203	,	-20965	,	-2.8717716	,	0
25,54	,	45480	,	-23205	,	-20959	,	-3.4434376	,	0
25,54	,	45496	,	-23201	,	-20960	,	-4.1562605	,	0
25,54	,	45528	,	-23211	,	-20962	,	-4.854398	,	0
25,54	,	45544	,	-23200	,	-20964	,	-5.4261856	,	0
25,54	,	45560	,	-23213	,	-20986	,	-5.796772	,	0
25,54	,	45592	,	-23209	,	-20960	,	-5.9533787	,	0
25,54	,	45608	,	-23218	,	-20972	,	-5.97963	,	0
25,55	,	45624	,	-23211	,	-20977	,	-5.9658785	,	0
25,55	,	45656	,	-23210	,	-20969	,	-5.895168	,	0
25,55	,	45672	,	-23196	,	-20965	,	-5.5864077	,	0
25,55	,	45704	,	-23173	,	-20969	,	-4.6605234	,	0
25,55	,	45720	,	-23185	,	-20955	,	-2.7247841	,	0
25,55	,	45736	,	-23174	,	-20956	,	0.20709205	,	1
25,55	,	45768	,	-23171	,	-20958	,	3.7143655	,	3
25,55	,	45784	,	-23162	,	-20959	,	7.3529415	,	6
25,55	,	45800	,	-23166	,	-20971	,	10.767123	,	9
25,55	,	45832	,	-23165	,	-20944	,	13.596034	,	12
25,55	,	45848	,	-23151	,	-20961	,	15.56904	,	14
25,55	,	45864	,	-23162	,	-20956	,	16.637764	,	15
25,55	,	45896	,	-23162	,	-20953	,	16.80169	,	16
25,55	,	45912	,	-23161	,	-20957	,	16.01759	,	16
25,55	,	45944	,	-23158	,	-20953	,	14.393856	,	15
25,55	,	45960	,	-23156	,	-20950	,	12.237152	,	13
25,55	,	45976	,	-23154	,	-20952	,	9.916784	,	10
25,55	,	46008	,	-23148	,	-20947	,	7.7664647	,	7
25,55	,	46024	,	-23144	,	-20946	,	6.06034	,	4
25,55	,	46040	,	-23143	,	-20962	,	4.9734817	,	2
25,55	,	46072	,	-23149	,	-20937	,	4.484085	,	1
25,55	,	46088	,	-23151	,	-20948	,	4.3498745	,	0
25,55	,	46120	,	-23159	,	-20953	,	4.2217865	,	0
25,55	,	46136	,	-23157	,	-20953	,	3.7970188	,	0
25,55	,	46152	,	-23164	,	-20942	,	2.926872	,	0
25,55	,	46184	,	-23153	,	-20933	,	1.6647334	,	0
25,55	,	46200	,	-23150	,	-20952	,	0.28790247	,	0
25,55	,	46216	,	-23151	,	-20945	,	-0.82467425	,	0
25,55	,	46247	,	-23156	,	-20950	,	-1.4624767	,	0
25,55	,	46264	,	-23165	,	-20943	,	-1.7219361	,	0
25,55	,	46280	,	-23157	,	-20963	,	-1.863529	,	0
25,55	,	46312	,	-23156	,	-20937	,	-2.0156953	,	0
25,55	,	46328	,	-23161	,	-20949	,	-2.1264963	,	0
25,55	,	46360	,	-23166	,	-20956	,	-2.1936524	,	0
25,55	,	46376	,	-23164	,	-20962	,	-2.311809	,	0
25,55	,	46392	,	-23178	,	-20957	,	-2.5837083	,	0
25,55	,	46424	,	-23168	,	-20961	,	-3.090528	,	0
25,55	,	46440	,	-23184	,	-20953	,	-3.8376913	,	0
25,55	,	46456	,	-23170	,	-20953	,	-4.741536	,	0
25,55	,	46488	,	-23170	,	-20965	,	-5.590204	,	0
25,55	,	46503	,	-23175	,	-20957	,	-6.1055737	,	0
25,55	,	46535	,	-23177	,	-20973	,	-6.1924777	,	0
25,55	,	46551	,	-23181	,	-20955	,	-5.970957	,	0
25,55	,	46567	,	-23190	,	-20971	,	-5.661722	,	0
25,55	,	46599	,	-23190	,	-20966	,	-5.5146894	,	0
25,56	,	46616	,	-23188	,	-20972	,	-5.642251	,	0
25,56	,	46632	,	-23169	,	-20961	,	-5.8421116	,	0
25,56	,	46664	,	-23159	,	-20956	,	-5.6077137	,	0
25,56	,	46680	,	-23159	,	-20955	,	-4.450598	,	0
25,56	,	46711	,	-23158	,	-20956	,	-2.2897625	,	1
25,56	,	46727	,	-23145	,	-20955	,	0.588243	,	3
25,56	,	46743	,	-23142	,	-20951	,	3.8532298	,	5
25,56	,	46775	,	-23145	,	-20962	,	7.1897664	,	8
25,56	,	46792	,	-23135	,	-20941	,	10.229954	,	11
25,56	,	46807	,	-23135	,	-20950	,	12.686679	,	14
25,56	,	46840	,	-23138	,	-20956	,	14.398674	,	16
25,56	,	46856	,	-23145	,	-20960	,	15.19746	,	17
25,56	,	46872	,	-23142	,	-20963	,	14.928547	,	17
25,56	,	46903	,	-23142	,	-20956	,	13.621899	,	16
25,56	,	46919	,	-23138	,	-20952	,	11.551906	,	14
25,56	,	46951	,	-23140	,	-20951	,	9.120478	,	12
25,56	,	46968	,	-23129	,	-20952	,	6.735655	,	9
25,56	,	46983	,	-23119	,	-20942	,	4.8236465	,	6
25,56	,	47016	,	-23120	,	-20958	,	3.766601	,	3
25,56	,	47032	,	-23116	,	-20938	,	3.6823826	,	1
25,56	,	47048	,	-23122	,	-20943	,	4.3538837	,	0
25,56	,	47079	,	-23123	,	-20947	,	5.3458366	,	0
25,56	,	47095	,	-23126	,	-20951	,	6.1825647	,	0
25,56	,	47127	,	-23129	,	-20943	,	6.5226846	,	0
25,56	,	47143	,	-23127	,	-20948	,	6.2304907	,	0
25,56	,	47159	,	-23118	,	-20953	,	5.4153786	,	0
25,56	,	47191	,	-23126	,	-20944	,	4.3677816	,	0
25,56	,	47207	,	-23129	,	-20951	,	3.2959127	,	0
25,56	,	47223	,	-23125	,	-20949	,	2.2331831	,	0
25,56	,	47255	,	-23128	,	-20962	,	1.2049766	,	0
25,56	,	47271	,	-23134	,	-20941	,	0.2510308	,	0
25,56	,	47287	,	-23129	,	-20954	,	-0.63447666	,	0
25,56	,	47319	,	-23130	,	-20951	,	-1.4187559	,	0
25,56	,	47336	,	-23127	,	-20951	,	-1.9986899	,	0
25,56	,	47367	,	-23139	,	-20962	,	-2.3361745	,	0
25,56	,	47383	,	-23143	,	-20962	,	-2.5825305	,	0
25,56	,	47399	,	-23142	,	-20960	,	-2.9631815	,	0
25,56	,	47431	,	-23137	,	-20962	,	-3.5166283	,	0
25,56	,	47447	,	-23144	,	-20960	,	-4.085032	,	0
25,56	,	47463	,	-23155	,	-20955	,	-4.589382	,	0
25,56	,	47495	,	-23137	,	-20970	,	-5.0699553	,	0
25,56	,	47511	,	-23146	,	-20952	,	-5.436835	,	0
25,56	,	47543	,	-23149	,	-20953	,	-5.5451603	,	0
25,56	,	47559	,	-23151	,	-20962	,	-5.430868	,	0
25,56	,	47575	,	-23154	,	-20958	,	-5.2366467	,	0
25,56	,	47607	,	-23146	,	-20958	,	-5.041301	,	0
25,57	,	47623	,	-23134	,	-20946	,	-4.7221603	,	0
25,57	,	47639	,	-23122	,	-20949	,	-3.9271133	,	0
25,57	,	47671	,	-23109	,	-20947	,	-2.2587361	,	0
25,57	,	47687	,	-23114	,	-20937	,	0.43891215	,	1
25,57	,	47703	,	-23090	,	-20943	,	3.9803731	,	3
25,57	,	47735	,	-23095	,	-20938	,	8.039565	,	6
25,57	,	47751	,	-23087	,	-20930	,	12.23014	,	10
25,57	,	47783	,	-23081	,	-20927	,	16.093552	,	14
25,57	,	47799	,	-23084	,	-20925	,	19.226309	,	17
25,57	,	47815	,	-23084	,	-20927	,	21.304277	,	20
25,57	,	47847	,	-23080	,	-20918	,	22.115173	,	22
25,57	,	47863	,	-23080	,	-20920	,	21.670898	,	22
25,57	,	47879	,	-23083	,	-20922	,	20.153093	,	21
25,57	,	47911	,	-23077	,	-20914	,	17.817142	,	19
25,57	,	47927	,	-23062	,	-20914	,	15.081141	,	16
25,57	,	47959	,	-23077	,	-20910	,	12.468638	,	12
25,57	,	47975	,	-23074	,	-20912	,	10.240134	,	8
25,57	,	47991	,	-23067	,	-20914	,	8.366907	,	5
25,57	,	48023	,	-23062	,	-20901	,	6.875469	,	2
25,57	,	48039	,	-23065	,	-20902	,	5.8708115	,	0
25,57	,	48055	,	-23062	,	-20910	,	5.333761	,	0
25,57	,	48087	,	-23066	,	-20901	,	5.1055846	,	0
25,57	,	48103	,	-23065	,	-20896	,	4.978958	,	0
25,57	,	48119	,	-23078	,	-20904	,	4.719005	,	0
25,57	,	48151	,	-23066	,	-20900	,	4.121236	,	0
25,57	,	48167	,	-23061	,	-20904	,	3.2260783	,	0
25,57	,	48199	,	-23069	,	-20906	,	2.3061697	,	0
25,57	,	48215	,	-23067	,	-20904	,	1.5387032	,	0
25,57	,	48231	,	-23083	,	-20915	,	0.8554518	,	0
25,57	,	48263	,	-23082	,	-20904	,	0.030153036	,	0
25,57	,	48279	,	-23083	,	-20915	,	-1.1099935	,	0
25,57	,	48295	,	-23079	,	-20912	,	-2.484149	,	0
25,57	,	48327	,	-23081	,	-20911	,	-3.8169703	,	0
25,57	,	48343	,	-23086	,	-20919	,	-4.8744154	,	0
25,57	,	48375	,	-23095	,	-20914	,	-5.6421213	,	0
25,57	,	48391	,	-23091	,	-20915	,	-6.2601004	,	0
25,57	,	48407	,	-23096	,	-20917	,	-6.8072186	,	0
25,57	,	48439	,	-23107	,	-20921	,	-7.312887	,	0
25,57	,	48455	,	-23086	,	-20925	,	-7.7875347	,	0
25,57	,	48471	,	-23102	,	-20933	,	-8.081297	,	0
25,57	,	48503	,	-23102	,	-20916	,	-8.055025	,	0
25,57	,	48519	,	-23106	,	-20933	,	-7.792024	,	0
25,57	,	48535	,	-23116	,	-20932	,	-7.4896584	,	0
25,57	,	48566	,	-23117	,	-20927	,	-7.3683367	,	0
25,57	,	48583	,	-23119	,	-20932	,	-7.560463	,	0
25,58	,	48615	,	-23115	,	-20933	,	-7.9832573	,	0
25,58	,	48631	,	-23127	,	-20938	,	-8.445222	,	0
25,58	,	48647	,	-23122	,	-20932	,	-8.836464	,	0
25,58	,	48679	,	-23111	,	-20924	,	-9.040799	,	0
25,58	,	48694	,	-23103	,	-20927	,	-8.753434	,	0
25,58	,	48710	,	-23093	,	-20931	,	-7.6017585	,	0
25,58	,	48743	,	-23092	,	-20916	,	-5.4055905	,	1
25,58	,	48759	,	-23094	,	-20912	,	-2.3379235	,	3
25,58	,	48791	,	-23091	,	-20925	,	1.118114	,	6
25,58	,	48806	,	-23092	,	-20912	,	4.410759	,	9
25,58	,	48822	,	-23080	,	-20915	,	7.162243	,	12
25,58	,	48855	,	-23086	,	-20922	,	9.235918	,	14
25,58	,	48870	,	-23093	,	-20927	,	10.548833	,	16
25,58	,	48886	,	-23097	,	-20921	,	10.925541	,	17
25,58	,	48919	,	-23094	,	-20922	,	10.26647	,	17
25,58	,	48935	,	-23090	,	-20931	,	8.746081	,	16
25,58	,	48951	,	-23095	,	-20935	,	6.739859	,	14
25,58	,	48983	,	-23091	,	-20922	,	4.6115274	,	11
25,58	,	48999	,	-23087	,	-20923	,	2.6535988	,	8
25,58	,	49031	,	-23082	,	-20923	,	1.1420522	,	5
25,58	,	49047	,	-23083	,	-20918	,	0.28322887	,	3
25,58	,	49063	,	-23089	,	-20926	,	0.074373245	,	1
25,58	,	49094	,	-23091	,	-20933	,	0.2716071	,	0
25,58	,	49110	,	-23094	,	-20930	,	0.54165	,	0
25,58	,	49126	,	-23099	,	-20937	,	0.6141448	,	0
25,58	,	49158	,	-23102	,	-20933	,	0.3142268	,	0
25,58	,	49174	,	-23095	,	-20934	,	-0.38508764	,	0
25,58	,	49207	,	-23095	,	-20951	,	-1.2978895	,	0
25,58	,	49223	,	-23100	,	-20923	,	-2.1592607	,	0
25,58	,	49238	,	-23112	,	-20935	,	-2.888476	,	0
25,58	,	49270	,	-23116	,	-20937	,	-3.6535354	,	0
25,58	,	49286	,	-23107	,	-20938	,	-4.597382	,	0
25,58	,	49302	,	-23116	,	-20939	,	-5.609873	,	0
25,58	,	49334	,	-23118	,	-20952	,	-6.5074835	,	0
25,58	,	49350	,	-23119	,	-20939	,	-7.2237606	,	0
25,58	,	49382	,	-23125	,	-20947	,	-7.762042	,	0
25,58	,	49399	,	-23127	,	-20944	,	-8.164013	,	0
25,58	,	49415	,	-23122	,	-20954	,	-8.443881	,	0
25,58	,	49446	,	-23133	,	-20966	,	-8.54867	,	0
25,58	,	49462	,	-23134	,	-20943	,	-8.500036	,	0
25,58	,	49478	,	-23141	,	-20955	,	-8.4328165	,	0
25,58	,	49510	,	-23146	,	-20962	,	-8.487959	,	0
25,58	,	49526	,	-23148	,	-20954	,	-8.754824	,	0
25,58	,	49542	,	-23153	,	-20956	,	-9.236665	,	0
25,58	,	49575	,	-23153	,	-20958	,	-9.8492565	,	0
25,58	,	49590	,	-23155	,	-20958	,	-10.4490185	,	0
25,59	,	49622	,	-23150	,	-20961	,	-10.847932	,	0
25,59	,	49638	,	-23128	,	-20952	,	-10.739782	,	0
25,59	,	49654	,	-23123	,	-20960	,	-9.666752	,	0
25,59	,	49686	,	-23127	,	-20965	,	-7.3574915	,	1
25,59	,	49702	,	-23113	,	-20939	,	-4.0086465	,	3
25,59	,	49718	,	-23108	,	-20948	,	-0.02699709	,	6
25,59	,	49750	,	-23107	,	-20943	,	4.202627	,	9
25,59	,	49766	,	-23108	,	-20946	,	8.2376	,	13
25,59	,	49798	,	-23098	,	-20951	,	11.638186	,	17
25,59	,	49814	,	-23108	,	-20943	,	14.116152	,	20
25,59	,	49830	,	-23101	,	-20941	,	15.503809	,	22
25,59	,	49862	,	-23107	,	-20942	,	15.747175	,	23
25,59	,	49878	,	-23109	,	-20943	,	14.92202	,	22
25,59	,	49894	,	-23105	,	-20944	,	13.197532	,	20
25,59	,	49926	,	-23106	,	-20956	,	10.861132	,	17
25,59	,	49942	,	-23101	,	-20930	,	8.289467	,	14
25,59	,	49974	,	-23103	,	-20940	,	5.8419394	,	10
25,59	,	49990	,	-23101	,	-20941	,	3.7717948	,	6
25,59	,	50006	,	-23101	,	-20937	,	2.1988902	,	3
25,59	,	50038	,	-23100	,	-20940	,	1.1446223	,	1
25,59	,	50054	,	-23095	,	-20947	,	0.58011544	,	0
25,59	,	50070	,	-23100	,	-20939	,	0.44864333	,	0
25,59	,	50102	,	-23109	,	-20943	,	0.5788042	,	0
25,59	,	50118	,	-23097	,	-20943	,	0.7101382	,	0
25,59	,	50150	,	-23098	,	-20939	,	0.7437699	,	0
25,59	,	50166	,	-23101	,	-20960	,	0.75422394	,	0
25,59	,	50182	,	-23109	,	-20935	,	0.7374795	,	0
25,59	,	50214	,	-23108	,	-20944	,	0.5541911	,	0
25,59	,	50230	,	-23112	,	-20954	,	0.08537951	,	0
25,59	,	50246	,	-23113	,	-20942	,	-0.67470723	,	0
25,59	,	50278	,	-23117	,	-20948	,	-1.6568916	,	0
25,59	,	50294	,	-23107	,	-20942	,	-2.7177327	,	0
25,59	,	50310	,	-23119	,	-20947	,	-3.650171	,	0
25,59	,	50342	,	-23126	,	-20950	,	-4.3880463	,	0
25,59	,	50358	,	-23125	,	-20945	,	-5.068897	,	0
25,59	,	50390	,	-23127	,	-20961	,	-5.784835	,	0
25,59	,	50406	,	-23115	,	-20939	,	-6.4164686	,	0
25,59	,	50422	,	-23129	,	-20957	,	-6.7468753	,	0
25,59	,	50454	,	-23134	,	-20952	,	-6.749597	,	0
25,59	,	50470	,	-23133	,	-20958	,	-6.6326876	,	0
25,59	,	50486	,	-23134	,	-20962	,	-6.55338	,	0
25,59	,	50518	,	-23137	,	-20963	,	-6.514944	,	0
25,59	,	50534	,	-23143	,	-20966	,	-6.513006	,	0
25,59	,	50566	,	-23141	,	-20965	,	-6.5864153	,	0
25,59	,	50582	,	-23142	,	-20967	,	-6.7179966	,	0
25,59	,	50598	,	-23140	,	-20963	,	-6.7984247	,	0
26,0	,	50630	,	-23141	,	-20973	,	-6.7014637	,	0
26,0	,	50646	,	-23131	,	-20954	,	-6.312747	,	0
26,0	,	50662	,	-23119	,	-20962	,	-5.4549637	,	0
26,0	,	50694	,	-23114	,	-20959	,	-3.8953004	,	0
26,0	,	50710	,	-23111	,	-20955	,	-1.5433767	,	1
26,0	,	50726	,	-23099	,	-20945	,	1.4591944	,	3
26,0	,	50758	,	-23092	,	-20949	,	4.886251	,	6
26,0	,	50774	,	-23094	,	-20944	,	8.477261	,	9
26,0	,	50805	,	-23097	,	-20945	,	11.825012	,	12
26,0	,	50822	,	-23088	,	-20937	,	14.46023	,	15
26,0	,	50838	,	-23096	,	-20939	,	16.081112	,	17
26,0	,	50870	,	-23091	,	-20938	,	16.581615	,	18
26,0	,	50886	,	-23097	,	-20943	,	15.994851	,	18
26,0	,	50902	,	-23094	,	-20942	,	14.477949	,	17
26,0	,	50934	,	-23092	,	-20950	,	12.291847	,	15
26,0	,	50950	,	-23083	,	-20949	,	9.824404	,	12
26,0	,	50981	,	-23081	,	-20945	,	7.544712	,	9
26,0	,	50998	,	-23078	,	-20944	,	5.8206453	,	6
26,0	,	51014	,	-23082	,	-20944	,	4.76607	,	3
26,0	,	51046	,	-23089	,	-20947	,	4.2152414	,	1
26,0	,	51062	,	-23084	,	-20934	,	3.8587973	,	0
26,0	,	51078	,	-23078	,	-20938	,	3.5112803	,	0
26,0	,	51109	,	-23079	,	-20950	,	3.206737	,	0
26,0	,	51125	,	-23079	,	-20935	,	3.0127413	,	0
26,0	,	51141	,	-23084	,	-20940	,	2.8816888	,	0
26,0	,	51174	,	-23089	,	-20945	,	2.660724	,	0
26,0	,	51190	,	-23090	,	-20949	,	2.1741633	,	0
26,0	,	51222	,	-23098	,	-20939	,	1.3103843	,	0
26,0	,	51238	,	-23082	,	-20945	,	0.11841214	,	0
26,0	,	51253	,	-23089	,	-20954	,	-1.1220592	,	0
26,0	,	51285	,	-23102	,	-20942	,	-2.1580718	,	0
26,0	,	51301	,	-23098	,	-20942	,	-3.0345397	,	0
26,0	,	51318	,	-23097	,	-20944	,	-3.8539405	,	0
26,0	,	51350	,	-23104	,	-20951	,	-4.5773106	,	0
26,0	,	51365	,	-23114	,	-20948	,	-5.2238197	,	0
26,0	,	51397	,	-23111	,	-20952	,	-5.929629	,	0
26,0	,	51415	,	-23108	,	-20961	,	-6.7066956	,	0
26,0	,	51429	,	-23114	,	-20965	,	-7.3804502	,	0
26,0	,	51461	,	-23120	,	-20964	,	-7.838155	,	0
26,0	,	51478	,	-23120	,	-20961	,	-8.134054	,	0
26,0	,	51494	,	-23118	,	-20962	,	-8.316263	,	0
26,0	,	51525	,	-23126	,	-20967	,	-8.354479	,	0
26,0	,	51541	,	-23126	,	-20965	,	-8.258805	,	0
26,0	,	51557	,	-23141	,	-20971	,	-8.157338	,	0
26,0	,	51589	,	-23139	,	-20968	,	-8.253162	,	0
26,0	,	51605	,	-23136	,	-20972	,	-8.6256895	,	0
26,1	,	51638	,	-23121	,	-20964	,	-9.019191	,	0
26,1	,	51653	,	-23100	,	-20964	,	-8.846276	,	0
26,1	,	51669	,	-23107	,	-20957	,	-7.5070086	,	0
26,1	,	51701	,	-23103	,	-20961	,	-4.876107	,	1
26,1	,	51717	,	-23096	,	-20959	,	-1.3461299	,	3
26,1	,	51733	,	-23099	,	-20960	,	2.535436	,	6
26,1	,	51765	,	-23101	,	-20962	,	6.2058454	,	9
26,1	,	51781	,	-23080	,	-20954	,	9.224639	,	12
26,1	,	51813	,	-23099	,	-20951	,	11.444357	,	15
26,1	,	51829	,	-23093	,	-20954	,	12.788888	,	17
26,1	,	51845	,	-23094	,	-20964	,	13.143906	,	18
26,1	,	51877	,	-23096	,	-20949	,	12.54829	,	18
26,1	,	51893	,	-23105	,	-20946	,	11.142588	,	17
26,1	,	51909	,	-23096	,	-20952	,	9.077908	,	15
26,1	,	51941	,	-23091	,	-20949	,	6.6604223	,	12
26,1	,	51957	,	-23080	,	-20956	,	4.403452	,	9
26,1	,	51973	,	-23089	,	-20955	,	2.7757254	,	6
26,1	,	52005	,	-23091	,	-20958	,	1.8881121	,	3
26,1	,	52021	,	-23085	,	-20957	,	1.5455933	,	1
26,1	,	52053	,	-23092	,	-20954	,	1.5232314	,	0
26,1	,	52069	,	-23092	,	-20959	,	1.6159458	,	0
26,1	,	52085	,	-23100	,	-20965	,	1.5937374	,	0
26,1	,	52117	,	-23095	,	-20954	,	1.2846503	,	0
26,1	,	52133	,	-23099	,	-20955	,	0.6714987	,	0
26,1	,	52149	,	-23103	,	-20958	,	-0.16167337	,	0
26,1	,	52181	,	-23110	,	-20961	,	-1.1755998	,	0
26,1	,	52197	,	-23119	,	-20962	,	-2.4240909	,	0
26,1	,	52229	,	-23103	,	-20968	,	-3.899235	,	0
26,1	,	52245	,	-23116	,	-20966	,	-5.3723288	,	0
26,1	,	52261	,	-23107	,	-20973	,	-6.5517626	,	0
26,1	,	52293	,	-23112	,	-20968	,	-7.2608747	,	0
26,1	,	52309	,	-23120	,	-20972	,	-7.470639	,	0
26,1	,	52325	,	-23115	,	-20981	,	-7.3155756	,	0
26,1	,	52357	,	-23125	,	-20962	,	-6.9784126	,	0
26,1	,	52373	,	-23122	,	-20974	,	-6.609449	,	0
26,1	,	52405	,	-23127	,	-20977	,	-6.3177214	,	0
26,1	,	52421	,	-23137	,	-20968	,	-6.19016	,	0
26,1	,	52437	,	-23143	,	-20975	,	-6.3760376	,	0
26,1	,	52469	,	-23136	,	-20985	,	-6.967214	,	0
26,1	,	52485	,	-23149	,	-20984	,	-7.8451076	,	0
26,1	,	52501	,	-23148	,	-20984	,	-8.830858	,	0
26,1	,	52533	,	-23154	,	-20988	,	-9.812114	,	0
26,1	,	52549	,	-23142	,	-20993	,	-10.63768	,	0
26,1	,	52565	,	-23144	,	-21009	,	-11.042635	,	0
26,1	,	52597	,	-23147	,	-20974	,	-10.806225	,	0
26,1	,	52613	,	-23114	,	-20978	,	-9.790725	,	0
26,2	,	52645	,	-23108	,	-20975	,	-7.705623	,	1
26,2	,	52661	,	-23107	,	-20976	,	-4.30585	,	3
26,2	,	52677	,	-23102	,	-20974	,	0.16786718	,	6
26,2	,	52709	,	-23104	,	-20968	,	5.072069	,	10
26,2	,	52725	,	-23107	,	-20977	,	9.650391	,	14
26,2	,	52741	,	-23103	,	-20970	,	13.237971	,	18
26,2	,	52773	,	-23103	,	-20967	,	15.460463	,	21
26,2	,	52789	,	-23102	,	-20983	,	16.270493	,	23
26,2	,	52821	,	-23107	,	-20990	,	15.812321	,	23
26,2	,	52837	,	-23113	,	-20959	,	14.27524	,	22
26,2	,	52853	,	-23103	,	-20973	,	11.891428	,	20
26,2	,	52885	,	-23098	,	-20971	,	9.07948	,	17
26,2	,	52901	,	-23104	,	-20968	,	6.3667283	,	13
26,2	,	52917	,	-23090	,	-20968	,	4.1433325	,	9
26,2	,	52949	,	-23094	,	-20970	,	2.6406107	,	5
26,2	,	52965	,	-23104	,	-20963	,	1.8792279	,	2
26,2	,	52981	,	-23098	,	-20966	,	1.5980046	,	0
26,2	,	53013	,	-23097	,	-20973	,	1.507992	,	0
26,2	,	53029	,	-23096	,	-20975	,	1.4949399	,	0
26,2	,	53061	,	-23106	,	-20991	,	1.4870727	,	0
26,2	,	53077	,	-23101	,	-20973	,	1.3503425	,	0
26,2	,	53093	,	-23112	,	-20968	,	0.96899176	,	0
26,2	,	53125	,	-23096	,	-20969	,	0.34288293	,	0
26,2	,	53141	,	-23108	,	-20969	,	-0.3840509	,	0
26,2	,	53157	,	-23106	,	-20978	,	-1.0607136	,	0
26,2	,	53189	,	-23103	,	-20968	,	-1.6275926	,	0
26,2	,	53205	,	-23105	,	-20968	,	-2.0269592	,	0
26,2	,	53237	,	-23114	,	-20975	,	-2.2516894	,	0
26,2	,	53253	,	-23115	,	-20985	,	-2.4403765	,	0
26,2	,	53269	,	-23116	,	-20983	,	-2.7478485	,	0
26,2	,	53300	,	-23133	,	-20989	,	-3.2810225	,	0
26,2	,	53316	,	-23126	,	-20974	,	-4.1572356	,	0
26,2	,	53332	,	-23135	,	-20982	,	-5.3889256	,	0
26,2	,	53365	,	-23130	,	-20984	,	-6.7997546	,	0
26,2	,	53381	,	-23126	,	-20984	,	-8.091951	,	0
26,2	,	53397	,	-23145	,	-20985	,	-9.013344	,	0
26,2	,	53429	,	-23143	,	-20988	,	-9.586745	,	0
26,2	,	53445	,	-23139	,	-20991	,	-9.958659	,	0
26,2	,	53476	,	-23145	,	-20984	,	-10.115768	,	0
26,2	,	53492	,	-23138	,	-20987	,	-9.969675	,	0
26,2	,	53508	,	-23139	,	-20990	,	-9.457868	,	0
26,2	,	53541	,	-23146	,	-21007	,	-8.579626	,	0
26,2	,	53557	,	-23153	,	-20980	,	-7.519715	,	0
26,2	,	53573	,	-23149	,	-20999	,	-6.570873	,	1
26,2	,	53604	,	-23155	,	-20991	,	-5.900932	,	1
26,3	,	53620	,	-23141	,	-20992	,	-5.467988	,	1
26,3	,	53652	,	-23125	,	-20976	,	-4.9632616	,	1
26,3	,	53668	,	-23118	,	-20984	,	-3.8692663	,	1
26,3	,	53684	,	-23112	,	-20979	,	-1.8144217	,	2
26,3	,	53716	,	-23107	,	-20988	,	1.1816535	,	4
26,3	,	53732	,	-23109	,	-20977	,	4.759311	,	6
26,3	,	53748	,	-23099	,	-20979	,	8.399975	,	9
26,3	,	53781	,	-23104	,	-20989	,	11.634396	,	11
26,3	,	53796	,	-23112	,	-20963	,	14.054322	,	14
26,3	,	53813	,	-23099	,	-20976	,	15.333384	,	16
26,3	,	53845	,	-23104	,	-20974	,	15.436922	,	17
26,3	,	53860	,	-23104	,	-20972	,	14.570601	,	17
26,3	,	53892	,	-23096	,	-20978	,	13.005722	,	16
26,3	,	53908	,	-23109	,	-20969	,	11.039579	,	14
26,3	,	53924	,	-23100	,	-20966	,	8.892018	,	12
26,3	,	53956	,	-23100	,	-20971	,	6.737591	,	9
26,3	,	53972	,	-23095	,	-20969	,	4.817047	,	6
26,3	,	53988	,	-23095	,	-20965	,	3.3552656	,	3
26,3	,	54020	,	-23094	,	-20980	,	2.4494348	,	1
26,3	,	54036	,	-23100	,	-20958	,	2.0268073	,	0
26,3	,	54068	,	-23089	,	-20967	,	1.9254026	,	0
26,3	,	54084	,	-23100	,	-20966	,	2.0196342	,	0
26,3	,	54100	,	-23094	,	-20971	,	2.1832552	,	0
26,3	,	54132	,	-23099	,	-20967	,	2.2671227	,	0
26,3	,	54148	,	-23105	,	-20967	,	2.1404781	,	0
26,3	,	54164	,	-23095	,	-20970	,	1.7282336	,	0
26,3	,	54196	,	-23085	,	-20966	,	1.1816559	,	0
26,3	,	54212	,	-23093	,	-20959	,	0.8352603	,	0
26,3	,	54228	,	-23102	,	-20969	,	0.7942905	,	0
26,3	,	54260	,	-23100	,	-20980	,	0.82145125	,	0
26,3	,	54276	,	-23106	,	-20967	,	0.65350807	,	0
26,3	,	54308	,	-23117	,	-20979	,	0.122327685	,	0
26,3	,	54324	,	-23111	,	-20980	,	-0.88378644	,	0
26,3	,	54340	,	-23122	,	-20982	,	-2.3224263	,	0
26,3	,	54372	,	-23118	,	-20980	,	-4.0125227	,	0
26,3	,	54388	,	-23120	,	-20985	,	-5.716444	,	0
26,3	,	54404	,	-23117	,	-20977	,	-7.1509666	,	0
26,3	,	54436	,	-23129	,	-20983	,	-8.120391	,	0
26,3	,	54452	,	-23118	,	-20978	,	-8.612943	,	0
26,3	,	54484	,	-23130	,	-20984	,	-8.690525	,	0
26,3	,	54500	,	-23133	,	-20989	,	-8.468657	,	0
26,3	,	54516	,	-23145	,	-20979	,	-8.197126	,	0
26,3	,	54548	,	-23130	,	-20988	,	-8.097677	,	0
26,3	,	54564	,	-23148	,	-20987	,	-8.171223	,	0
26,3	,	54580	,	-23147	,	-20995	,	-8.355721	,	0
26,3	,	54612	,	-23140	,	-20986	,	-8.608416	,	0
26,4	,	54628	,	-23125	,	-20983	,	-8.672989	,	0
26,4	,	54660	,	-23107	,	-20987	,	-8.021654	,	0
26,4	,	54676	,	-23114	,	-20985	,	-6.189407	,	0
26,4	,	54692	,	-23102	,	-20974	,	-3.1639109	,	1
26,4	,	54724	,	-23103	,	-20981	,	0.64981747	,	4
26,4	,	54740	,	-23100	,	-20974	,	4.7078485	,	7
26,4	,	54756	,	-23095	,	-20961	,	8.48603	,	11
26,4	,	54788	,	-23097	,	-20964	,	11.583359	,	14
26,4	,	54804	,	-23093	,	-20971	,	13.750339	,	17
26,4	,	54820	,	-23091	,	-20969	,	14.898232	,	19
26,4	,	54852	,	-23088	,	-20964	,	15.111005	,	20
26,4	,	54868	,	-23096	,	-20968	,	14.540499	,	20
26,4	,	54900	,	-23090	,	-20965	,	13.31115	,	19
26,4	,	54916	,	-23090	,	-20966	,	11.584668	,	16
26,4	,	54932	,	-23080	,	-20958	,	9.649173	,	13
26,4	,	54964	,	-23071	,	-20969	,	7.9132037	,	9
26,4	,	54980	,	-23083	,	-20971	,	6.711891	,	6
26,4	,	54996	,	-23086	,	-20962	,	6.0134816	,	3
26,4	,	55028	,	-23078	,	-20969	,	5.529722	,	1
26,4	,	55044	,	-23092	,	-20961	,	5.037527	,	0
26,4	,	55076	,	-23087	,	-20969	,	4.3813486	,	0
26,4	,	55092	,	-23088	,	-20964	,	3.476328	,	0
26,4	,	55108	,	-23088	,	-20962	,	2.3948584	,	0
26,4	,	55140	,	-23082	,	-20960	,	1.306134	,	0
26,4	,	55156	,	-23086	,	-20969	,	0.3938669	,	0
26,4	,	55172	,	-23085	,	-20958	,	-0.23394156	,	0
26,4	,	55204	,	-23097	,	-20969	,	-0.6401171	,	0
26,4	,	55220	,	-23083	,	-20976	,	-0.9782845	,	0
26,4	,	55236	,	-23100	,	-20966	,	-1.3298911	,	0
26,4	,	55268	,	-23104	,	-20973	,	-1.7891958	,	0
26,4	,	55284	,	-23096	,	-20966	,	-2.4864795	,	0
26,4	,	55316	,	-23095	,	-20967	,	-3.3328717	,	0
26,4	,	55332	,	-23095	,	-20969	,	-4.0466223	,	0
26,4	,	55348	,	-23097	,	-20967	,	-4.425467	,	0
26,4	,	55380	,	-23093	,	-20972	,	-4.415739	,	0
26,4	,	55396	,	-23098	,	-20965	,	-4.0580974	,	0
26,4	,	55412	,	-23099	,	-20973	,	-3.4812665	,	0
26,4	,	55444	,	-23102	,	-20979	,	-2.8736463	,	0
26,4	,	55460	,	-23104	,	-20986	,	-2.404702	,	0
26,4	,	55492	,	-23133	,	-20985	,	-2.3048244	,	0
26,4	,	55508	,	-23119	,	-20981	,	-2.9044955	,	0
26,4	,	55524	,	-23123	,	-20976	,	-4.2716336	,	0
26,4	,	55556	,	-23124	,	-20981	,	-6.053197	,	0
26,4	,	55572	,	-23118	,	-20988	,	-7.778375	,	0
26,4	,	55588	,	-23127	,	-20978	,	-9.071492	,	0
26,5	,	55619	,	-23114	,	-20980	,	-9.708539	,	0
26,5	,	55635	,	-23119	,	-20977	,	-9.583228	,	0
26,5	,	55651	,	-23101	,	-20972	,	-8.630323	,	0
26,5	,	55684	,	-23094	,	-20976	,	-6.7705173	,	0
26,5	,	55700	,	-23083	,	-20968	,	-3.933866	,	1
26,5	,	55732	,	-23083	,	-20971	,	-0.22333479	,	3
26,5	,	55748	,	-23077	,	-20956	,	4.0001836	,	6
26,5	,	55764	,	-23070	,	-20956	,	8.257748	,	10
26,5	,	55796	,	-23075	,	-20955	,	12.099346	,	14
26,5	,	55812	,	-23071	,	-20966	,	15.114615	,	17
26,5	,	55827	,	-23057	,	-20959	,	17.07461	,	20
26,5	,	55859	,	-23066	,	-20961	,	18.044092	,	21
26,5	,	55875	,	-23072	,	-20956	,	18.10434	,	21
26,5	,	55908	,	-23069	,	-20950	,	17.202768	,	20
26,5	,	55924	,	-23072	,	-20951	,	15.378733	,	18
26,5	,	55940	,	-23058	,	-20950	,	12.919803	,	15
26,5	,	55971	,	-23056	,	-20966	,	10.325798	,	11
26,5	,	55987	,	-23059	,	-20944	,	8.0725975	,	7
26,5	,	56003	,	-23048	,	-20948	,	6.4032626	,	4
26,5	,	56036	,	-23042	,	-20950	,	5.4422426	,	1
26,5	,	56052	,	-23045	,	-20944	,	5.2515955	,	0
26,5	,	56068	,	-23041	,	-20937	,	5.6958065	,	0
26,5	,	56099	,	-23050	,	-20942	,	6.446333	,	0
26,5	,	56115	,	-23039	,	-20944	,	7.141801	,	0
26,5	,	56147	,	-23058	,	-20952	,	7.500471	,	0
26,5	,	56163	,	-23052	,	-20949	,	7.28967	,	0
26,5	,	56179	,	-23049	,	-20949	,	6.4209623	,	0
26,5	,	56212	,	-23056	,	-20956	,	5.056	,	0
26,5	,	56227	,	-23053	,	-20944	,	3.4265795	,	0
26,5	,	56243	,	-23057	,	-20949	,	1.722224	,	0
26,5	,	56275	,	-23056	,	-20941	,	0.11455679	,	0
26,5	,	56291	,	-23049	,	-20949	,	-1.2290828	,	0
26,5	,	56323	,	-23066	,	-20948	,	-2.1989493	,	0
26,5	,	56339	,	-23066	,	-20946	,	-2.9026475	,	0
26,5	,	56355	,	-23063	,	-20946	,	-3.5495915	,	0
26,5	,	56387	,	-23065	,	-20955	,	-4.1716933	,	0
26,5	,	56403	,	-23055	,	-20950	,	-4.626034	,	0
26,5	,	56419	,	-23060	,	-20953	,	-4.72995	,	0
26,5	,	56451	,	-23059	,	-20963	,	-4.404698	,	0
26,5	,	56467	,	-23060	,	-20950	,	-3.7408984	,	0
26,5	,	56499	,	-23075	,	-20954	,	-2.9680183	,	0
26,5	,	56515	,	-23082	,	-20949	,	-2.466644	,	0
26,5	,	56531	,	-23073	,	-20959	,	-2.561031	,	0
26,5	,	56563	,	-23074	,	-20962	,	-3.1924849	,	0
26,5	,	56579	,	-23089	,	-20955	,	-4.089344	,	0
26,5	,	56595	,	-23084	,	-20961	,	-5.1274824	,	0
26,6	,	56627	,	-23090	,	-20958	,	-6.2602654	,	0
26,6	,	56643	,	-23090	,	-20956	,	-7.3679523	,	0
26,6	,	56659	,	-23094	,	-20952	,	-8.318499	,	0
26,6	,	56691	,	-23077	,	-20975	,	-8.941665	,	0
26,6	,	56707	,	-23059	,	-20948	,	-8.85874	,	0
26,6	,	56739	,	-23059	,	-20940	,	-7.584563	,	0
26,6	,	56755	,	-23049	,	-20945	,	-4.9397163	,	1
26,6	,	56771	,	-23052	,	-20947	,	-1.2065773	,	3
26,6	,	56803	,	-23045	,	-20946	,	3.0491476	,	6
26,6	,	56819	,	-23045	,	-20937	,	7.21135	,	10
26,6	,	56835	,	-23042	,	-20944	,	10.783094	,	14
26,6	,	56867	,	-23050	,	-20938	,	13.397241	,	17
26,6	,	56883	,	-23038	,	-20939	,	14.831379	,	19
26,6	,	56915	,	-23050	,	-20941	,	15.081795	,	20
26,6	,	56931	,	-23044	,	-20955	,	14.288437	,	20
26,6	,	56947	,	-23035	,	-20938	,	12.71188	,	19
26,6	,	56979	,	-23032	,	-20940	,	10.803394	,	17
26,6	,	56995	,	-23018	,	-20934	,	9.0883465	,	14
26,6	,	57011	,	-23022	,	-20934	,	7.9764795	,	10
26,6	,	57043	,	-23037	,	-20941	,	7.5163345	,	6
26,6	,	57059	,	-23030	,	-20938	,	7.3214884	,	3
26,6	,	57075	,	-23031	,	-20940	,	6.9747777	,	1
26,6	,	57107	,	-23024	,	-20943	,	6.368685	,	0
26,6	,	57123	,	-23026	,	-20936	,	5.62763	,	0
26,6	,	57155	,	-23025	,	-20934	,	4.900461	,	0
26,6	,	57171	,	-23033	,	-20950	,	4.2200127	,	0
26,6	,	57187	,	-23031	,	-20929	,	3.4998994	,	0
26,6	,	57219	,	-23026	,	-20940	,	2.686679	,	0
26,6	,	57235	,	-23035	,	-20934	,	1.8358045	,	0
26,6	,	57251	,	-23043	,	-20938	,	0.94076407	,	0
26,6	,	57283	,	-23033	,	-20940	,	-0.08762193	,	0
26,6	,	57299	,	-23031	,	-20940	,	-1.166309	,	0
26,6	,	57331	,	-23031	,	-20939	,	-2.0397527	,	0
26,6	,	57347	,	-23048	,	-20945	,	-2.6064756	,	0
26,6	,	57363	,	-23044	,	-20941	,	-3.0477915	,	0
26,6	,	57395	,	-23051	,	-20935	,	-3.5833375	,	0
26,6	,	57411	,	-23040	,	-20956	,	-4.235839	,	0
26,6	,	57427	,	-23049	,	-20937	,	-4.855667	,	0
26,6	,	57459	,	-23053	,	-20946	,	-5.326686	,	0
26,6	,	57475	,	-23056	,	-20951	,	-5.6888256	,	0
26,6	,	57491	,	-23053	,	-20948	,	-6.009643	,	0
26,6	,	57523	,	-23060	,	-20942	,	-6.2781305	,	0
26,6	,	57539	,	-23067	,	-20947	,	-6.5123606	,	0
26,6	,	57571	,	-23069	,	-20954	,	-6.822669	,	0
26,6	,	57587	,	-23063	,	-20952	,	-7.2494254	,	0
26,6	,	57603	,	-23072	,	-20950	,	-7.674636	,	0
26,7	,	57635	,	-23078	,	-20950	,	-8.017663	,	0
26,7	,	57651	,	-23069	,	-20969	,	-8.294219	,	0
26,7	,	57667	,	-23058	,	-20938	,	-8.36053	,	0
26,7	,	57699	,	-23038	,	-20950	,	-7.788533	,	0
26,7	,	57715	,	-23038	,	-20951	,	-6.1044264	,	0
26,7	,	57747	,	-23042	,	-20949	,	-3.2220256	,	1
26,7	,	57762	,	-23038	,	-20943	,	0.40256476	,	3
26,7	,	57779	,	-23030	,	-20937	,	4.1411743	,	6
26,7	,	57811	,	-23037	,	-20941	,	7.5172167	,	9
26,7	,	57827	,	-23034	,	-20936	,	10.15885	,	12
26,7	,	57843	,	-23029	,	-20947	,	11.8193	,	14
26,7	,	57875	,	-23014	,	-20944	,	12.573013	,	15
26,7	,	57891	,	-23032	,	-20950	,	12.712807	,	15
26,7	,	57907	,	-23020	,	-20923	,	12.395824	,	15
26,7	,	57939	,	-23029	,	-20941	,	11.628013	,	14
26,7	,	57955	,	-23017	,	-20933	,	10.479271	,	12
26,7	,	57987	,	-23016	,	-20928	,	9.156929	,	9
26,7	,	58003	,	-23018	,	-20939	,	7.9058113	,	6
26,7	,	58018	,	-23025	,	-20932	,	6.7991776	,	3
26,7	,	58051	,	-23017	,	-20936	,	5.7445517	,	1
26,7	,	58067	,	-23023	,	-20937	,	4.69083	,	0
26,7	,	58083	,	-23012	,	-20936	,	3.701761	,	0
26,7	,	58114	,	-23014	,	-20934	,	2.9190316	,	0
26,7	,	58131	,	-23024	,	-20942	,	2.4105558	,	0
26,7	,	58163	,	-23017	,	-20934	,	2.0547395	,	0
26,7	,	58179	,	-23035	,	-20934	,	1.6416517	,	0
26,7	,	58194	,	-23030	,	-20942	,	0.95599914	,	0
26,7	,	58226	,	-23030	,	-20954	,	-0.09426916	,	0
26,7	,	58242	,	-23035	,	-20940	,	-1.3806465	,	0
26,7	,	58258	,	-23035	,	-20939	,	-2.7177238	,	0
26,7	,	58290	,	-23032	,	-20946	,	-3.9442286	,	0
26,7	,	58307	,	-23049	,	-20952	,	-4.953855	,	0
26,7	,	58323	,	-23035	,	-20950	,	-5.7683353	,	0
26,7	,	58354	,	-23039	,	-20950	,	-6.368663	,	0
26,7	,	58370	,	-23048	,	-20960	,	-6.667214	,	0
26,7	,	58402	,	-23046	,	-20938	,	-6.7223897	,	0
26,7	,	58419	,	-23049	,	-20952	,	-6.6701984	,	0
26,7	,	58434	,	-23052	,	-20946	,	-6.581664	,	0
26,7	,	58466	,	-23054	,	-20950	,	-6.4997606	,	0
26,7	,	58482	,	-23054	,	-20946	,	-6.4465303	,	0
26,7	,	58498	,	-23062	,	-20956	,	-6.429352	,	0
26,7	,	58530	,	-23061	,	-20954	,	-6.4838357	,	0
26,7	,	58546	,	-23063	,	-20957	,	-6.6306744	,	0
26,7	,	58578	,	-23063	,	-20957	,	-6.814535	,	0
26,7	,	58594	,	-23076	,	-20958	,	-6.9913487	,	0
26,7	,	58610	,	-23080	,	-20983	,	-7.258929	,	0
26,8	,	58642	,	-23076	,	-20961	,	-7.7362576	,	0
26,8	,	58658	,	-23065	,	-20953	,	-8.28012	,	0
26,8	,	58674	,	-23044	,	-20950	,	-8.394491	,	0
26,8	,	58706	,	-23045	,	-20944	,	-7.4768295	,	0
26,8	,	58722	,	-23030	,	-20946	,	-5.2172093	,	0
26,8	,	58738	,	-23032	,	-20951	,	-1.7406802	,	2
26,8	,	58771	,	-23025	,	-20948	,	2.5092027	,	5
26,8	,	58786	,	-23022	,	-20943	,	6.9478683	,	9
26,8	,	58818	,	-23037	,	-20941	,	10.959673	,	13
26,8	,	58834	,	-23023	,	-20941	,	13.957282	,	17
26,8	,	58850	,	-23022	,	-20955	,	15.638998	,	19
26,8	,	58882	,	-23011	,	-20935	,	16.146053	,	20
26,8	,	58898	,	-23015	,	-20951	,	15.846794	,	20
26,8	,	58914	,	-23019	,	-20943	,	15.022382	,	20
26,8	,	58946	,	-23011	,	-20945	,	13.783251	,	18
26,8	,	58962	,	-23019	,	-20947	,	12.226033	,	15
26,8	,	58994	,	-23010	,	-20939	,	10.488675	,	11
26,8	,	59010	,	-23006	,	-20940	,	8.753658	,	7
26,8	,	59026	,	-23014	,	-20942	,	7.2189493	,	3
26,8	,	59058	,	-23018	,	-20939	,	5.909077	,	1
26,8	,	59074	,	-23013	,	-20944	,	4.6924896	,	0
26,8	,	59090	,	-23017	,	-20938	,	3.5032022	,	0
26,8	,	59122	,	-23011	,	-20936	,	2.3887868	,	0
26,8	,	59138	,	-23008	,	-20948	,	1.4625778	,	0
26,8	,	59170	,	-23021	,	-20945	,	0.8022311	,	0
26,8	,	59186	,	-23015	,	-20948	,	0.3263973	,	0
26,8	,	59202	,	-23020	,	-20943	,	-0.104086876	,	0
26,8	,	59234	,	-23032	,	-20951	,	-0.6137053	,	0
26,8	,	59250	,	-23022	,	-20946	,	-1.3312283	,	0
26,8	,	59266	,	-23039	,	-20948	,	-2.2863286	,	0
26,8	,	59298	,	-23026	,	-20946	,	-3.4087968	,	0
26,8	,	59315	,	-23029	,	-20949	,	-4.5305395	,	0
26,8	,	59330	,	-23028	,	-20950	,	-5.387843	,	0
26,8	,	59362	,	-23037	,	-20946	,	-5.8338857	,	0
26,8	,	59378	,	-23038	,	-20961	,	-5.9571695	,	0
26,8	,	59410	,	-23047	,	-20951	,	-5.9767165	,	0
26,8	,	59426	,	-23054	,	-20951	,	-6.142145	,	0
26,8	,	59442	,	-23053	,	-20961	,	-6.637578	,	0
26,8	,	59474	,	-23048	,	-20956	,	-7.408947	,	0
26,8	,	59490	,	-23056	,	-20959	,	-8.185396	,	0
26,8	,	59506	,	-23055	,	-20963	,	-8.742561	,	0
26,8	,	59538	,	-23064	,	-20963	,	-9.036616	,	0
26,8	,	59554	,	-23057	,	-20961	,	-9.121277	,	0
26,8	,	59586	,	-23067	,	-20968	,	-9.037313	,	0
26,8	,	59602	,	-23078	,	-20974	,	-8.885595	,	0
26,9	,	59618	,	-23083	,	-20970	,	-8.916833	,	0
26,9	,	59650	,	-23077	,	-20967	,	-9.299979	,	0
26,9	,	59666	,	-23064	,	-20966	,	-9.821481	,	0
26,9	,	59682	,	-23062	,	-20965	,	-9.964783	,	0
26,9	,	59714	,	-23051	,	-20962	,	-9.2639885	,	0
26,9	,	59730	,	-23055	,	-20955	,	-7.541256	,	0
26,9	,	59746	,	-23050	,	-20958	,	-4.9533176	,	1
26,9	,	59778	,	-23042	,	-20952	,	-1.8464236	,	3
26,9	,	59794	,	-23040	,	-20952	,	1.4624994	,	6
26,9	,	59826	,	-23042	,	-20957	,	4.677089	,	9
26,9	,	59842	,	-23036	,	-20961	,	7.467904	,	12
26,9	,	59858	,	-23037	,	-20950	,	9.58878	,	14
26,9	,	59890	,	-23038	,	-20947	,	10.921368	,	16
26,9	,	59906	,	-23035	,	-20962	,	11.430355	,	17
26,9	,	59922	,	-23053	,	-20961	,	11.103578	,	17
26,9	,	59954	,	-23034	,	-20951	,	9.9512615	,	16
26,9	,	59970	,	-23036	,	-20950	,	8.213546	,	14
26,9	,	60002	,	-23039	,	-20954	,	6.3214087	,	11
26,9	,	60018	,	-23033	,	-20950	,	4.586906	,	8
26,9	,	60034	,	-23041	,	-20952	,	3.1550775	,	5
26,9	,	60066	,	-23034	,	-20952	,	2.0652137	,	3
26,9	,	60082	,	-23028	,	-20962	,	1.3397071	,	1
26,9	,	60097	,	-23033	,	-20949	,	1.0409565	,	0
26,9	,	60129	,	-23030	,	-20954	,	1.132934	,	0
26,9	,	60146	,	-23039	,	-20949	,	1.4198635	,	0
26,9	,	60162	,	-23042	,	-20955	,	1.6207293	,	0
26,9	,	60194	,	-23037	,	-20946	,	1.5120078	,	0
26,9	,	60210	,	-23041	,	-20960	,	1.0723419	,	0
26,9	,	60241	,	-23046	,	-20958	,	0.39177358	,	0
26,9	,	60257	,	-23049	,	-20954	,	-0.48955828	,	0
26,9	,	60274	,	-23050	,	-20956	,	-1.5499883	,	0
26,9	,	60306	,	-23051	,	-20957	,	-2.7021008	,	0
26,9	,	60322	,	-23056	,	-20969	,	-3.8257575	,	0
26,9	,	60338	,	-23058	,	-20949	,	-4.855626	,	0
26,9	,	60370	,	-23056	,	-20971	,	-5.752977	,	0
26,9	,	60386	,	-23069	,	-20972	,	-6.4804535	,	0
26,9	,	60418	,	-23069	,	-20966	,	-7.0996294	,	0
26,9	,	60433	,	-23065	,	-20963	,	-7.6873255	,	0
26,9	,	60450	,	-23070	,	-20969	,	-8.168058	,	0
26,9	,	60482	,	-23082	,	-20963	,	-8.479086	,	0
26,9	,	60498	,	-23076	,	-20965	,	-8.718788	,	0
26,9	,	60513	,	-23079	,	-20972	,	-8.946679	,	0
26,9	,	60546	,	-23082	,	-20968	,	-9.093899	,	0
26,9	,	60562	,	-23080	,	-20989	,	-9.088943	,	0
26,9	,	60578	,	-23077	,	-20968	,	-8.859137	,	0
26,9	,	60609	,	-23099	,	-20979	,	-8.410897	,	0
26,10	,	60625	,	-23101	,	-20977	,	-8.017824	,	0
26,10	,	60657	,	-23095	,	-20971	,	-7.98894	,	0
26,10	,	60673	,	-23076	,	-20968	,	-8.194729	,	0
26,10	,	60690	,	-23064	,	-20966	,	-8.023534	,	0
26,10	,	60722	,	-23063	,	-20969	,	-6.838952	,	0
26,10	,	60737	,	-23067	,	-20960	,	-4.489182	,	1
26,10	,	60753	,	-23068	,	-20964	,	-1.3928933	,	3
26,10	,	60785	,	-23059	,	-20970	,	1.8396685	,	6
26,10	,	60801	,	-23048	,	-20983	,	4.837232	,	9
26,10	,	60833	,	-23054	,	-20961	,	7.4968705	,	11
26,10	,	60849	,	-23046	,	-20966	,	9.72591	,	13
26,10	,	60865	,	-23068	,	-20966	,	11.301641	,	15
26,10	,	60897	,	-23055	,	-20970	,	11.925119	,	16
26,10	,	60913	,	-23056	,	-20979	,	11.489952	,	16
26,10	,	60929	,	-23066	,	-20967	,	10.176319	,	15
26,10	,	60961	,	-23057	,	-20965	,	8.230015	,	13
26,10	,	60977	,	-23058	,	-20976	,	5.949213	,	10
26,10	,	60993	,	-23061	,	-20965	,	3.6915956	,	7
26,10	,	61025	,	-23057	,	-20967	,	1.7162766	,	5
26,10	,	61041	,	-23059	,	-20982	,	0.16869235	,	3
26,10	,	61073	,	-23052	,	-20954	,	-0.8583193	,	1
26,10	,	61089	,	-23062	,	-20970	,	-1.3524628	,	0
26,10	,	61105	,	-23072	,	-20965	,	-1.5047257	,	0
26,10	,	61137	,	-23062	,	-20968	,	-1.6408685	,	0
26,10	,	61153	,	-23058	,	-20973	,	-1.8732764	,	0
26,10	,	61169	,	-23067	,	-20968	,	-2.0669005	,	0
26,10	,	61201	,	-23074	,	-20971	,	-2.1960287	,	0
26,10	,	61217	,	-23072	,	-20972	,	-2.4218354	,	0
26,10	,	61249	,	-23070	,	-20976	,	-2.8225968	,	0
26,10	,	61265	,	-23068	,	-20977	,	-3.2787137	,	0
26,10	,	61281	,	-23074	,	-20982	,	-3.63057	,	0
26,10	,	61313	,	-23067	,	-20961	,	-3.798934	,	0
26,10	,	61329	,	-23086	,	-20976	,	-3.8120704	,	0
26,10	,	61345	,	-23093	,	-20973	,	-3.9015875	,	0
26,10	,	61377	,	-23093	,	-20977	,	-4.3966813	,	0
26,10	,	61393	,	-23087	,	-20974	,	-5.359916	,	0
26,10	,	61409	,	-23087	,	-20979	,	-6.4899297	,	0
26,10	,	61441	,	-23099	,	-20984	,	-7.4440985	,	0
26,10	,	61457	,	-23102	,	-20981	,	-8.147603	,	0
26,10	,	61489	,	-23099	,	-20992	,	-8.688439	,	0
26,10	,	61505	,	-23100	,	-20987	,	-9.054978	,	0
26,10	,	61521	,	-23097	,	-21011	,	-9.130352	,	0
26,10	,	61553	,	-23111	,	-20978	,	-8.871537	,	0
26,10	,	61569	,	-23112	,	-20995	,	-8.442741	,	0
26,10	,	61585	,	-23114	,	-20991	,	-8.091486	,	0
26,11	,	61617	,	-23113	,	-20997	,	-7.909561	,	0
26,11	,	61633	,	-23104	,	-20994	,	-7.7729535	,	0
26,11	,	61665	,	-23108	,	-20988	,	-7.444312	,	0
26,11	,	61681	,	-23093	,	-20993	,	-6.701678	,	0
26,11	,	61697	,	-23090	,	-20988	,	-5.3625293	,	0
26,11	,	61729	,	-23078	,	-20976	,	-3.2946718	,	1
26,11	,	61745	,	-23072	,	-20976	,	-0.48359013	,	3
26,11	,	61761	,	-23077	,	-20991	,	2.879263	,	5
26,11	,	61793	,	-23071	,	-20969	,	6.358212	,	8
26,11	,	61809	,	-23064	,	-20981	,	9.491309	,	11
26,11	,	61841	,	-23060	,	-20974	,	12.03849	,	14
26,11	,	61857	,	-23074	,	-20976	,	13.867022	,	16
26,11	,	61873	,	-23072	,	-20983	,	14.746162	,	17
26,11	,	61905	,	-23085	,	-20984	,	14.428629	,	17
26,11	,	61921	,	-23079	,	-20977	,	12.844923	,	16
26,11	,	61937	,	-23075	,	-20971	,	10.241545	,	14
26,11	,	61969	,	-23061	,	-20975	,	7.221603	,	12
26,11	,	61985	,	-23052	,	-20981	,	4.581957	,	9
26,11	,	62017	,	-23064	,	-20983	,	2.9177527	,	6
26,11	,	62033	,	-23054	,	-20967	,	2.3101633	,	3
26,11	,	62049	,	-23058	,	-20977	,	2.4962878	,	1
26,11	,	62081	,	-23057	,	-20980	,	3.1451097	,	0
26,11	,	62097	,	-23063	,	-20975	,	3.8983803	,	0
26,11	,	62113	,	-23064	,	-20970	,	4.4166856	,	0
26,11	,	62145	,	-23064	,	-20972	,	4.482723	,	0
26,11	,	62161	,	-23059	,	-20975	,	4.083221	,	0
26,11	,	62193	,	-23062	,	-20977	,	3.3824341	,	0
26,11	,	62209	,	-23066	,	-20975	,	2.5524049	,	0
26,11	,	62225	,	-23078	,	-20978	,	1.599631	,	0
26,11	,	62257	,	-23075	,	-20968	,	0.39497972	,	0
26,11	,	62273	,	-23070	,	-20984	,	-1.0593567	,	0
26,11	,	62289	,	-23071	,	-20983	,	-2.5051935	,	0
26,11	,	62321	,	-23076	,	-20979	,	-3.6632125	,	0
26,11	,	62337	,	-23082	,	-20984	,	-4.4723682	,	0
26,11	,	62353	,	-23075	,	-20985	,	-5.0216913	,	0
26,11	,	62385	,	-23073	,	-20976	,	-5.321722	,	0
26,11	,	62401	,	-23084	,	-20982	,	-5.325617	,	0
26,11	,	62433	,	-23082	,	-20977	,	-5.121355	,	0
26,11	,	62449	,	-23089	,	-20979	,	-4.89091	,	0
26,11	,	62465	,	-23086	,	-20990	,	-4.7664747	,	0
26,11	,	62497	,	-23097	,	-20984	,	-4.81478	,	0
26,11	,	62513	,	-23101	,	-20985	,	-5.1058145	,	0
26,11	,	62529	,	-23095	,	-20994	,	-5.669452	,	0
26,11	,	62561	,	-23111	,	-20989	,	-6.421343	,	0
26,11	,	62577	,	-23107	,	-20989	,	-7.2829905	,	0
26,11	,	62609	,	-23106	,	-20992	,	-8.174215	,	0
26,12	,	62625	,	-23105	,	-20999	,	-8.889973	,	0
26,12	,	62641	,	-23109	,	-20996	,	-9.219259	,	0
26,12	,	62672	,	-23114	,	-20991	,	-9.125192	,	0
26,12	,	62689	,	-23100	,	-20987	,	-8.67926	,	0
26,12	,	62705	,	-23094	,	-20995	,	-7.818896	,	0
26,12	,	62737	,	-23086	,	-20980	,	-6.3361716	,	0
26,12	,	62753	,	-23080	,	-20975	,	-4.1014085	,	1
26,12	,	62768	,	-23063	,	-20970	,	-1.1117156	,	3
26,12	,	62801	,	-23064	,	-20980	,	2.5560136	,	5
26,12	,	62817	,	-23077	,	-20969	,	6.5512133	,	8
26,12	,	62849	,	-23056	,	-20964	,	10.242584	,	11
26,12	,	62865	,	-23061	,	-20966	,	13.1719675	,	14
26,12	,	62881	,	-23058	,	-20962	,	15.188302	,	16
26,12	,	62912	,	-23068	,	-20967	,	16.180355	,	18
26,12	,	62928	,	-23064	,	-20974	,	16.032913	,	18
26,12	,	62944	,	-23056	,	-20977	,	14.826963	,	17
26,12	,	62976	,	-23064	,	-20971	,	12.903	,	15
26,12	,	62992	,	-23064	,	-20964	,	10.613575	,	13
26,12	,	63025	,	-23049	,	-20959	,	8.244042	,	10
26,12	,	63041	,	-23046	,	-20967	,	6.1942105	,	7
26,12	,	63057	,	-23046	,	-20966	,	4.852595	,	4
26,12	,	63089	,	-23048	,	-20963	,	4.3009977	,	2
26,12	,	63104	,	-23045	,	-20967	,	4.332425	,	0
26,12	,	63120	,	-23049	,	-20969	,	4.652787	,	0
26,12	,	63152	,	-23056	,	-20967	,	4.950122	,	0
26,12	,	63169	,	-23054	,	-20970	,	4.9283876	,	0
26,12	,	63184	,	-23061	,	-20971	,	4.4210706	,	0
26,12	,	63217	,	-23053	,	-20967	,	3.4427722	,	0
26,12	,	63233	,	-23059	,	-20971	,	2.160477	,	0
26,12	,	63265	,	-23062	,	-20960	,	0.7746916	,	0
26,12	,	63280	,	-23069	,	-20970	,	-0.6302782	,	0
26,12	,	63296	,	-23055	,	-20970	,	-2.0054057	,	0
26,12	,	63328	,	-23058	,	-20970	,	-3.1523542	,	0
26,12	,	63344	,	-23068	,	-20966	,	-3.8761768	,	0
26,12	,	63360	,	-23064	,	-20976	,	-4.224122	,	0
26,12	,	63392	,	-23070	,	-20974	,	-4.3589277	,	0
26,12	,	63409	,	-23073	,	-20972	,	-4.4142885	,	0
26,12	,	63441	,	-23069	,	-20971	,	-4.4836264	,	0
26,12	,	63457	,	-23081	,	-20982	,	-4.6013365	,	0
26,12	,	63473	,	-23087	,	-20980	,	-4.8562374	,	0
26,12	,	63504	,	-23077	,	-20974	,	-5.3501143	,	0
26,12	,	63520	,	-23084	,	-20986	,	-5.974103	,	0
26,12	,	63536	,	-23078	,	-20976	,	-6.4916635	,	0
26,12	,	63568	,	-23084	,	-20985	,	-6.743536	,	0
26,12	,	63584	,	-23082	,	-20983	,	-6.679245	,	0
26,12	,	63600	,	-23092	,	-20984	,	-6.363268	,	0
26,13	,	63632	,	-23096	,	-20980	,	-5.99296	,	0
26,13	,	63648	,	-23101	,	-20983	,	-5.8180046	,	0
26,13	,	63680	,	-23084	,	-20985	,	-5.9073744	,	0
26,13	,	63696	,	-23092	,	-20986	,	-6.028143	,	0
26,13	,	63712	,	-23068	,	-20966	,	-5.798083	,	0
26,13	,	63744	,	-23059	,	-20961	,	-4.790058	,	0
26,13	,	63760	,	-23048	,	-20964	,	-2.6347356	,	1
26,13	,	63776	,	-23042	,	-20974	,	0.7387972	,	3
26,13	,	63808	,	-23040	,	-20954	,	5.015933	,	6
26,13	,	63824	,	-23048	,	-20977	,	9.56158	,	10
26,13	,	63856	,	-23049	,	-20970	,	13.556704	,	14
26,13	,	63872	,	-23043	,	-20961	,	16.322039	,	17
26,13	,	63888	,	-23048	,	-20963	,	17.579014	,	19
26,13	,	63920	,	-23055	,	-20964	,	17.335114	,	20
26,13	,	63936	,	-23047	,	-20982	,	15.740567	,	20
26,13	,	63952	,	-23053	,	-20960	,	13.145409	,	19
26,13	,	63984	,	-23056	,	-20966	,	9.9969845	,	17
26,13	,	64000	,	-23042	,	-20956	,	6.7249246	,	14
26,13	,	64032	,	-23039	,	-20967	,	3.8341422	,	10
26,13	,	64048	,	-23050	,	-20952	,	1.7447329	,	6
26,13	,	64064	,	-23046	,	-20961	,	0.4937184	,	3
26,13	,	64096	,	-23047	,	-20962	,	-0.13860428	,	1
26,13	,	64112	,	-23049	,	-20970	,	-0.37168205	,	0
26,13	,	64128	,	-23050	,	-20964	,	-0.39506882	,	0
26,13	,	64160	,	-23047	,	-20968	,	-0.3534304	,	0
26,13	,	64176	,	-23054	,	-20983	,	-0.32811353	,	0
26,13	,	64192	,	-23047	,	-20958	,	-0.3740338	,	0
26,13	,	64224	,	-23062	,	-20964	,	-0.5456263	,	0
26,13	,	64240	,	-23047	,	-20969	,	-0.88651615	,	0
26,13	,	64272	,	-23061	,	-20965	,	-1.3595718	,	0
26,13	,	64288	,	-23065	,	-20960	,	-1.9252121	,	0
26,13	,	64304	,	-23060	,	-20975	,	-2.6164231	,	0
26,13	,	64336	,	-23062	,	-20971	,	-3.371658	,	0
26,13	,	64352	,	-23070	,	-20976	,	-4.0601587	,	0
26,13	,	64368	,	-23072	,	-20964	,	-4.6777534	,	0
26,13	,	64400	,	-23067	,	-20972	,	-5.2639976	,	0
26,13	,	64416	,	-23073	,	-20984	,	-5.7544866	,	0
26,13	,	64448	,	-23075	,	-20964	,	-6.084276	,	0
26,13	,	64464	,	-23082	,	-20982	,	-6.305979	,	0
26,13	,	64480	,	-23083	,	-20979	,	-6.531686	,	0
26,13	,	64512	,	-23082	,	-20979	,	-6.813991	,	0
26,13	,	64528	,	-23093	,	-20980	,	-7.133198	,	0
26,13	,	64544	,	-23091	,	-20982	,	-7.494402	,	0
26,13	,	64576	,	-23090	,	-20985	,	-7.883197	,	0
26,13	,	64592	,	-23094	,	-20980	,	-8.187689	,	0
26,13	,	64608	,	-23090	,	-20989	,	-8.287201	,	0
26,14	,	64640	,	-23090	,	-20988	,	-8.091475	,	0
26,14	,	64656	,	-23091	,	-20999	,	-7.5379825	,	0
26,14	,	64688	,	-23072	,	-20962	,	-6.567745	,	0
26,14	,	64704	,	-23058	,	-20966	,	-4.9740076	,	0
26,14	,	64720	,	-23059	,	-20966	,	-2.4947639	,	1
26,14	,	64752	,	-23047	,	-20963	,	0.8589041	,	3
26,14	,	64768	,	-23042	,	-20965	,	4.801795	,	6
26,14	,	64784	,	-23034	,	-20954	,	8.977442	,	9
26,14	,	64816	,	-23040	,	-20960	,	12.975192	,	13
26,14	,	64832	,	-23031	,	-20953	,	16.33048	,	16
26,14	,	64864	,	-23035	,	-20950	,	18.675522	,	19
26,14	,	64880	,	-23038	,	-20959	,	19.801718	,	21
26,14	,	64896	,	-23037	,	-20974	,	19.616821	,	22
26,14	,	64928	,	-23040	,	-20945	,	18.191818	,	21
26,14	,	64944	,	-23019	,	-20952	,	15.871465	,	19
26,14	,	64960	,	-23030	,	-20944	,	13.242527	,	16
26,14	,	64991	,	-23030	,	-20943	,	10.773297	,	13
26,14	,	65007	,	-23025	,	-20942	,	8.610729	,	9
26,14	,	65024	,	-23021	,	-20953	,	6.8214555	,	6
26,14	,	65055	,	-23015	,	-20943	,	5.5328064	,	3
26,14	,	65072	,	-23021	,	-20950	,	4.8106675	,	1
26,14	,	65104	,	-23028	,	-20946	,	4.5014496	,	0
26,14	,	65120	,	-23017	,	-20948	,	4.313769	,	0
26,14	,	65136	,	-23022	,	-20973	,	4.0911007	,	0
26,14	,	65168	,	-23030	,	-20939	,	3.77921	,	0
26,14	,	65184	,	-23033	,	-20950	,	3.2332284	,	0
26,14	,	65200	,	-23027	,	-20967	,	2.338645	,	0
26,14	,	65231	,	-23036	,	-20949	,	1.1667463	,	0
26,14	,	65247	,	-23040	,	-20961	,	-0.16897929	,	0
26,14	,	65279	,	-23033	,	-20956	,	-1.5917058	,	0
26,14	,	65296	,	-23035	,	-20952	,	-2.9293146	,	0
26,14	,	65312	,	-23037	,	-20956	,	-3.9657116	,	0
26,14	,	65344	,	-23040	,	-20955	,	-4.619095	,	0
26,14	,	65360	,	-23036	,	-20962	,	-4.9238467	,	0
26,14	,	65376	,	-23045	,	-20972	,	-4.9476123	,	0
26,14	,	65408	,	-23040	,	-20943	,	-4.7907	,	0
26,14	,	65424	,	-23052	,	-20967	,	-4.581705	,	0
26,14	,	65440	,	-23057	,	-20964	,	-4.503375	,	0
26,14	,	65471	,	-23056	,	-20963	,	-4.744221	,	0
26,14	,	65487	,	-23055	,	-20966	,	-5.3070564	,	0
26,14	,	65519	,	-23059	,	-20963	,	-6.0042877	,	0
26,14	,	65535	,	-23060	,	-20962	,	-6.649452	,	0
26,14	,	65551	,	-23065	,	-20966	,	-7.154396	,	0
26,14	,	65584	,	-23064	,	-20960	,	-7.502917	,	0
26,14	,	65600	,	-23071	,	-20968	,	-7.7072706	,	0
26,14	,	65616	,	-23071	,	-20979	,	-7.805709	,	0
26,15	,	65647	,	-23069	,	-20966	,	-7.821691	,	0
26,15	,	65663	,	-23061	,	-20965	,	-7.6659546	,	0
26,15	,	65695	,	-23058	,	-20965	,	-7.1427603	,	0
26,15	,	65712	,	-23040	,	-20964	,	-6.02184	,	0
26,15	,	65728	,	-23037	,	-20957	,	-4.0785646	,	1
26,15	,	65759	,	-23025	,	-20954	,	-1.2102721	,	2
26,15	,	65775	,	-23021	,	-20955	,	2.4559302	,	4
26,15	,	65791	,	-23019	,	-20954	,	6.5724187	,	7
26,15	,	65823	,	-23024	,	-20946	,	10.605233	,	11
26,15	,	65840	,	-23004	,	-20950	,	14.028351	,	15
26,15	,	65871	,	-23013	,	-20964	,	16.579323	,	18
26,15	,	65887	,	-23015	,	-20932	,	18.13777	,	20
26,15	,	65903	,	-23024	,	-20952	,	18.505047	,	21
26,15	,	65935	,	-23019	,	-20953	,	17.54062	,	20
26,15	,	65951	,	-23014	,	-20951	,	15.412397	,	19
26,15	,	65967	,	-23012	,	-20950	,	12.6037	,	17
26,15	,	65999	,	-23013	,	-20944	,	9.660921	,	14
26,15	,	66015	,	-23005	,	-20947	,	7.0049243	,	10
26,15	,	66031	,	-23012	,	-20943	,	4.9055514	,	6
26,15	,	66063	,	-22998	,	-20943	,	3.4833417	,	3
26,15	,	66079	,	-23002	,	-20947	,	2.7743618	,	1
26,15	,	66111	,	-23005	,	-20954	,	2.6982203	,	0
26,15	,	66127	,	-22990	,	-20937	,	3.054625	,	0
26,15	,	66143	,	-23004	,	-20952	,	3.676491	,	0
26,15	,	66175	,	-23011	,	-20953	,	4.3184056	,	0
26,15	,	66191	,	-23015	,	-20950	,	4.556636	,	0
26,15	,	66207	,	-23005	,	-20946	,	4.118039	,	0
26,15	,	66239	,	-23011	,	-20954	,	3.1082344	,	0
26,15	,	66255	,	-23015	,	-20955	,	1.7893865	,	0
26,15	,	66287	,	-23029	,	-20947	,	0.2756734	,	0
26,15	,	66303	,	-23020	,	-20952	,	-1.4485996	,	0
26,15	,	66319	,	-23020	,	-20959	,	-3.2587166	,	0
26,15	,	66351	,	-23028	,	-20966	,	-4.87922	,	0
26,15	,	66367	,	-23027	,	-20943	,	-6.153101	,	0
26,15	,	66383	,	-23028	,	-20950	,	-7.0636864	,	0
26,15	,	66415	,	-23036	,	-20959	,	-7.629732	,	0
26,15	,	66431	,	-23035	,	-20951	,	-7.9336987	,	0
26,15	,	66447	,	-23049	,	-20962	,	-8.131277	,	0
26,15	,	66479	,	-23036	,	-20957	,	-8.359042	,	0
26,15	,	66495	,	-23054	,	-20957	,	-8.633957	,	0
26,15	,	66527	,	-23043	,	-20963	,	-8.906719	,	0
26,15	,	66543	,	-23053	,	-20960	,	-9.115365	,	0
26,15	,	66559	,	-23049	,	-20957	,	-9.182404	,	0
26,15	,	66591	,	-23054	,	-20978	,	-9.060715	,	0
26,15	,	66607	,	-23054	,	-20957	,	-8.748067	,	0
26,16	,	66623	,	-23051	,	-20957	,	-8.255907	,	0
26,16	,	66655	,	-23041	,	-20961	,	-7.516544	,	0
26,16	,	66671	,	-23039	,	-20961	,	-6.365919	,	0
26,16	,	66703	,	-23036	,	-20954	,	-4.7018375	,	1
26,16	,	66719	,	-23027	,	-20963	,	-2.5602016	,	2
26,16	,	66735	,	-23024	,	-20957	,	-0.039561987	,	4
26,16	,	66767	,	-23015	,	-20956	,	2.7358487	,	6
26,16	,	66783	,	-23023	,	-20953	,	5.565777	,	8
26,16	,	66799	,	-23018	,	-20954	,	8.129482	,	10
26,16	,	66831	,	-23020	,	-20970	,	10.084314	,	12
26,16	,	66847	,	-23016	,	-20938	,	11.228645	,	13
26,16	,	66863	,	-23021	,	-20953	,	11.527621	,	14
26,16	,	66895	,	-23034	,	-20953	,	10.976591	,	13
26,16	,	66911	,	-23022	,	-20962	,	9.562189	,	12
26,16	,	66943	,	-23018	,	-20956	,	7.5016794	,	10
26,16	,	66959	,	-23025	,	-20947	,	5.2529364	,	8
26,16	,	66975	,	-23022	,	-20957	,	3.1789546	,	6
26,16	,	67007	,	-23022	,	-20953	,	1.4494445	,	4
26,16	,	67023	,	-23018	,	-20952	,	0.16172957	,	2
26,16	,	67039	,	-23024	,	-20949	,	-0.64079213	,	1
26,16	,	67071	,	-23019	,	-20956	,	-1.0041332	,	0
26,16	,	67087	,	-23019	,	-20953	,	-1.0150747	,	0
26,16	,	67119	,	-23014	,	-20952	,	-0.7297429	,	0
26,16	,	67135	,	-23033	,	-20958	,	-0.2677528	,	0
26,16	,	67151	,	-23042	,	-20958	,	0.007890403	,	0
26,16	,	67183	,	-23045	,	-20959	,	-0.37360337	,	0
26,16	,	67199	,	-23040	,	-20962	,	-1.5763922	,	0
26,16	,	67215	,	-23040	,	-20964	,	-3.312148	,	0
26,16	,	67247	,	-23044	,	-20966	,	-5.1122465	,	0
26,16	,	67262	,	-23040	,	-20960	,	-6.6147327	,	0
26,16	,	67278	,	-23043	,	-20961	,	-7.603738	,	0
26,16	,	67311	,	-23043	,	-20972	,	-7.9855185	,	0
26,16	,	67327	,	-23052	,	-20966	,	-7.8349886	,	0
26,16	,	67358	,	-23054	,	-20970	,	-7.3937736	,	0
26,16	,	67374	,	-23062	,	-20970	,	-6.9634724	,	0
26,16	,	67391	,	-23066	,	-20966	,	-6.79531	,	0
26,16	,	67423	,	-23069	,	-20967	,	-7.0279884	,	0
26,16	,	67439	,	-23068	,	-20968	,	-7.6310873	,	0
26,16	,	67455	,	-23064	,	-20977	,	-8.381294	,	0
26,16	,	67487	,	-23059	,	-20975	,	-8.923415	,	0
26,16	,	67503	,	-23064	,	-20982	,	-8.950707	,	0
26,16	,	67535	,	-23076	,	-20975	,	-8.44476	,	0
26,16	,	67551	,	-23090	,	-20981	,	-7.7698665	,	0
26,16	,	67567	,	-23087	,	-20984	,	-7.4290147	,	0
26,16	,	67598	,	-23088	,	-20984	,	-7.6489124	,	0
26,16	,	67615	,	-23063	,	-20975	,	-8.158825	,	0
26,17	,	67630	,	-23053	,	-20970	,	-8.259331	,	0
26,17	,	67663	,	-23043	,	-20969	,	-7.2064457	,	0
26,17	,	67679	,	-23047	,	-20970	,	-4.713213	,	1
26,17	,	67694	,	-23046	,	-20965	,	-1.118643	,	3
26,17	,	67727	,	-23039	,	-20969	,	2.90255	,	6
26,17	,	67743	,	-23043	,	-20966	,	6.7230144	,	10
26,17	,	67775	,	-23031	,	-20967	,	9.916354	,	13
26,17	,	67791	,	-23038	,	-20963	,	12.26475	,	16
26,17	,	67807	,	-23035	,	-20971	,	13.671816	,	18
26,17	,	67838	,	-23033	,	-20956	,	14.113575	,	19
26,17	,	67855	,	-23034	,	-20961	,	13.692558	,	19
26,17	,	67870	,	-23039	,	-20967	,	12.570951	,	18
26,17	,	67902	,	-23032	,	-20951	,	10.912774	,	16
26,17	,	67919	,	-23037	,	-20960	,	8.9399395	,	13
26,17	,	67951	,	-23042	,	-20967	,	6.859137	,	9
26,17	,	67967	,	-23029	,	-20956	,	4.818686	,	6
26,17	,	67983	,	-23033	,	-20968	,	3.0294104	,	3
26,17	,	68014	,	-23038	,	-20963	,	1.6696696	,	1
26,17	,	68030	,	-23033	,	-20954	,	0.7263582	,	0
26,17	,	68047	,	-23034	,	-20964	,	0.11574376	,	0
26,17	,	68079	,	-23029	,	-20960	,	-0.19523412	,	0
26,17	,	68094	,	-23035	,	-20955	,	-0.23093507	,	0
26,17	,	68110	,	-23041	,	-20959	,	-0.11321496	,	0
26,17	,	68142	,	-23044	,	-20963	,	-0.08365876	,	0
26,17	,	68159	,	-23050	,	-20971	,	-0.37443674	,	0
26,17	,	68190	,	-23043	,	-20966	,	-1.0587004	,	0
26,17	,	68206	,	-23062	,	-20968	,	-2.0648983	,	0
26,17	,	68222	,	-23057	,	-20971	,	-3.339275	,	0
26,17	,	68255	,	-23058	,	-20968	,	-4.8072042	,	0
26,17	,	68270	,	-23045	,	-20976	,	-6.1906796	,	0
26,17	,	68286	,	-23047	,	-20975	,	-7.0740566	,	0
26,17	,	68318	,	-23058	,	-20964	,	-7.2242393	,	0
26,17	,	68334	,	-23060	,	-20971	,	-6.8009834	,	0
26,17	,	68366	,	-23068	,	-20969	,	-6.1895185	,	0
26,17	,	68382	,	-23059	,	-20972	,	-5.689298	,	0
26,17	,	68398	,	-23061	,	-20978	,	-5.344219	,	0
26,17	,	68430	,	-23059	,	-20979	,	-5.021895	,	0
26,17	,	68446	,	-23068	,	-20969	,	-4.644478	,	0
26,17	,	68462	,	-23074	,	-20971	,	-4.3143806	,	0
26,17	,	68494	,	-23076	,	-20982	,	-4.235979	,	0
26,17	,	68510	,	-23075	,	-20978	,	-4.5104065	,	0
26,17	,	68526	,	-23079	,	-20989	,	-5.054015	,	0
26,17	,	68558	,	-23076	,	-20968	,	-5.69147	,	0
26,17	,	68574	,	-23092	,	-20972	,	-6.2999277	,	0
26,17	,	68606	,	-23097	,	-20981	,	-6.951764	,	0
26,18	,	68622	,	-23080	,	-20986	,	-7.733185	,	0
26,18	,	68638	,	-23066	,	-20972	,	-8.331317	,	0
26,18	,	68670	,	-23051	,	-20980	,	-8.070941	,	0
26,18	,	68686	,	-23052	,	-20968	,	-6.418749	,	0
26,18	,	68702	,	-23052	,	-20967	,	-3.4001815	,	1
26,18	,	68734	,	-23040	,	-20965	,	0.4838202	,	4
26,18	,	68750	,	-23032	,	-20970	,	4.699622	,	7
26,18	,	68782	,	-23045	,	-20991	,	8.800332	,	11
26,18	,	68798	,	-23038	,	-20952	,	12.251383	,	15
26,18	,	68814	,	-23029	,	-20968	,	14.631366	,	18
26,18	,	68846	,	-23026	,	-20968	,	15.925805	,	20
26,18	,	68862	,	-23034	,	-20962	,	16.317043	,	21
26,18	,	68878	,	-23038	,	-20971	,	15.857362	,	21
26,18	,	68910	,	-23032	,	-20969	,	14.541949	,	20
26,18	,	68926	,	-23038	,	-20955	,	12.514942	,	17
26,18	,	68958	,	-23031	,	-20968	,	10.053993	,	14
26,18	,	68974	,	-23024	,	-20960	,	7.5279403	,	10
26,18	,	68990	,	-23036	,	-20963	,	5.3071303	,	6
26,18	,	69022	,	-23028	,	-20978	,	3.5519838	,	3
26,18	,	69038	,	-23026	,	-20950	,	2.2682097	,	1
26,18	,	69054	,	-23031	,	-20956	,	1.4550233	,	0
26,18	,	69086	,	-23022	,	-20964	,	1.0682584	,	0
26,18	,	69102	,	-23027	,	-20966	,	1.0343881	,	0
26,18	,	69118	,	-23028	,	-20965	,	1.242175	,	0
26,18	,	69150	,	-23035	,	-20961	,	1.483284	,	0
26,18	,	69166	,	-23038	,	-20959	,	1.501685	,	0
26,18	,	69198	,	-23039	,	-20965	,	1.1121118	,	0
26,18	,	69214	,	-23031	,	-20966	,	0.34002507	,	0
26,18	,	69230	,	-23033	,	-20967	,	-0.56628364	,	0
26,18	,	69262	,	-23047	,	-20980	,	-1.3989127	,	0
26,18	,	69278	,	-23037	,	-20959	,	-2.1653388	,	0
26,18	,	69294	,	-23050	,	-20976	,	-2.9238694	,	0
26,18	,	69326	,	-23046	,	-20974	,	-3.684108	,	0
26,18	,	69342	,	-23053	,	-20980	,	-4.444955	,	0
26,18	,	69374	,	-23053	,	-20966	,	-5.191473	,	0
26,18	,	69390	,	-23054	,	-20973	,	-5.890581	,	0
26,18	,	69406	,	-23059	,	-20977	,	-6.4947653	,	0
26,18	,	69438	,	-23060	,	-20978	,	-6.980521	,	0
26,18	,	69454	,	-23073	,	-20974	,	-7.4020243	,	0
26,18	,	69470	,	-23061	,	-20975	,	-7.836905	,	0
26,18	,	69502	,	-23060	,	-20991	,	-8.192883	,	0
26,18	,	69518	,	-23075	,	-20974	,	-8.290033	,	0
26,18	,	69534	,	-23080	,	-20978	,	-8.2056465	,	0
26,18	,	69566	,	-23081	,	-20988	,	-8.207137	,	0
26,18	,	69582	,	-23076	,	-20983	,	-8.390104	,	0
26,18	,	69614	,	-23085	,	-20981	,	-8.631262	,	0
26,19	,	69630	,	-23077	,	-20984	,	-8.781225	,	0
26,19	,	69646	,	-23064	,	-20984	,	-8.637073	,	0
26,19	,	69678	,	-23060	,	-20977	,	-7.8574533	,	0
26,19	,	69694	,	-23045	,	-20974	,	-6.1351495	,	0
26,19	,	69710	,	-23040	,	-20972	,	-3.3563094	,	1
26,19	,	69742	,	-23044	,	-20988	,	0.3027997	,	3
26,19	,	69758	,	-23055	,	-20955	,	4.2616606	,	6
26,19	,	69790	,	-23039	,	-20974	,	7.763165	,	9
26,19	,	69806	,	-23046	,	-20971	,	10.329919	,	12
26,19	,	69822	,	-23038	,	-20972	,	11.847161	,	14
26,19	,	69854	,	-23052	,	-20977	,	12.335419	,	15
26,19	,	69870	,	-23056	,	-20977	,	11.784872	,	15
26,19	,	69886	,	-23049	,	-20968	,	10.227934	,	15
26,19	,	69918	,	-23046	,	-20967	,	7.9579988	,	14
26,19	,	69934	,	-23045	,	-20965	,	5.4797053	,	12
26,19	,	69949	,	-23043	,	-20965	,	3.2471962	,	9
26,19	,	69982	,	-23042	,	-20976	,	1.5423918	,	6
26,19	,	69998	,	-23038	,	-20956	,	0.49090624	,	3
26,19	,	70030	,	-23040	,	-20968	,	0.087993264	,	1
26,19	,	70046	,	-23043	,	-20966	,	0.18686795	,	0
26,19	,	70062	,	-23043	,	-20968	,	0.5389116	,	0
26,19	,	70094	,	-23037	,	-20963	,	0.94489723	,	0
26,19	,	70110	,	-23044	,	-20966	,	1.3193791	,	0
26,19	,	70126	,	-23050	,	-20960	,	1.5516895	,	0
26,19	,	70158	,	-23053	,	-20968	,	1.4448943	,	0
26,19	,	70173	,	-23043	,	-20967	,	0.91483444	,	0
26,19	,	70205	,	-23043	,	-20970	,	0.14701259	,	0
26,19	,	70221	,	-23050	,	-20976	,	-0.5902782	,	0
26,19	,	70237	,	-23054	,	-20963	,	-1.220081	,	0
26,19	,	70270	,	-23057	,	-20975	,	-1.8400936	,	0
26,19	,	70286	,	-23060	,	-20979	,	-2.550771	,	0
26,19	,	70302	,	-23071	,	-20974	,	-3.4229128	,	0
26,19	,	70333	,	-23075	,	-20976	,	-4.5561376	,	0
26,19	,	70349	,	-23071	,	-20975	,	-5.978186	,	0
26,19	,	70365	,	-23070	,	-20990	,	-7.4817657	,	0
26,19	,	70397	,	-23071	,	-20984	,	-8.716775	,	0
26,19	,	70413	,	-23079	,	-20977	,	-9.453926	,	0
26,19	,	70446	,	-23077	,	-20979	,	-9.694944	,	0
26,19	,	70462	,	-23080	,	-20991	,	-9.549484	,	0
26,19	,	70478	,	-23079	,	-20976	,	-9.106067	,	0
26,19	,	70509	,	-23087	,	-20985	,	-8.457687	,	0
26,19	,	70525	,	-23091	,	-20985	,	-7.7762694	,	0
26,19	,	70542	,	-23091	,	-20985	,	-7.259773	,	0
26,19	,	70573	,	-23097	,	-20989	,	-7.01021	,	0
26,19	,	70589	,	-23077	,	-20983	,	-6.935936	,	0
26,20	,	70621	,	-23074	,	-20982	,	-6.6791687	,	0
26,20	,	70637	,	-23058	,	-20978	,	-5.757201	,	0
26,20	,	70653	,	-23059	,	-20980	,	-3.860085	,	0
26,20	,	70685	,	-23057	,	-20984	,	-1.0428834	,	1
26,20	,	70701	,	-23054	,	-20974	,	2.3055644	,	3
26,20	,	70717	,	-23054	,	-20963	,	5.6796927	,	6
26,20	,	70749	,	-23054	,	-20971	,	8.614401	,	9
26,20	,	70765	,	-23044	,	-20968	,	10.797846	,	11
26,20	,	70781	,	-23034	,	-20965	,	12.226999	,	13
26,20	,	70813	,	-23038	,	-20962	,	13.11986	,	14
26,20	,	70829	,	-23044	,	-20972	,	13.569723	,	14
26,20	,	70861	,	-23046	,	-20970	,	13.430513	,	14
26,20	,	70877	,	-23045	,	-20969	,	12.559066	,	13
26,20	,	70893	,	-23042	,	-20970	,	11.024601	,	11
26,20	,	70925	,	-23029	,	-20964	,	9.147321	,	8
26,20	,	70941	,	-23034	,	-20971	,	7.381588	,	5
26,20	,	70957	,	-23035	,	-20963	,	6.0157757	,	3
26,20	,	70989	,	-23036	,	-20969	,	5.031666	,	1
26,20	,	71005	,	-23038	,	-20967	,	4.27454	,	0
26,20	,	71037	,	-23044	,	-20970	,	3.5785117	,	0
26,20	,	71053	,	-23042	,	-20966	,	2.795636	,	0
26,20	,	71069	,	-23049	,	-20966	,	1.8493295	,	0
26,20	,	71101	,	-23041	,	-20964	,	0.7597383	,	0
26,20	,	71117	,	-23047	,	-20973	,	-0.3583789	,	0
26,20	,	71133	,	-23052	,	-20973	,	-1.3944519	,	0
26,20	,	71165	,	-23050	,	-20974	,	-2.3336139	,	0
26,20	,	71181	,	-23051	,	-20973	,	-3.160378	,	0
26,20	,	71213	,	-23062	,	-20966	,	-3.8520288	,	0
26,20	,	71229	,	-23051	,	-20966	,	-4.447794	,	0
26,20	,	71245	,	-23054	,	-20981	,	-4.913082	,	0
26,20	,	71277	,	-23063	,	-20973	,	-5.157126	,	0
26,20	,	71293	,	-23069	,	-20970	,	-5.2725134	,	0
26,20	,	71309	,	-23067	,	-20976	,	-5.4738026	,	0
26,20	,	71341	,	-23066	,	-20975	,	-5.8242426	,	0
26,20	,	71357	,	-23063	,	-20982	,	-6.179758	,	0
26,20	,	71373	,	-23070	,	-20978	,	-6.3583555	,	0
26,20	,	71405	,	-23072	,	-20978	,	-6.3141007	,	0
26,20	,	71421	,	-23078	,	-20988	,	-6.153123	,	0
26,20	,	71453	,	-23078	,	-20981	,	-6.0238724	,	0
26,20	,	71469	,	-23082	,	-20981	,	-6.0189624	,	0
26,20	,	71485	,	-23090	,	-20983	,	-6.188445	,	0
26,20	,	71517	,	-23085	,	-20980	,	-6.560394	,	0
26,20	,	71533	,	-23083	,	-20988	,	-7.030537	,	0
26,20	,	71549	,	-23099	,	-20995	,	-7.4293838	,	0
26,20	,	71581	,	-23098	,	-20985	,	-7.770052	,	0
26,20	,	71597	,	-23098	,	-20992	,	-8.151323	,	0
26,21	,	71629	,	-23094	,	-20994	,	-8.502653	,	0
26,21	,	71645	,	-23078	,	-20983	,	-8.543951	,	0
26,21	,	71661	,	-23070	,	-20984	,	-7.854947	,	0
26,21	,	71692	,	-23076	,	-20988	,	-6.153713	,	0
26,21	,	71709	,	-23059	,	-20973	,	-3.535174	,	1
26,21	,	71725	,	-23054	,	-20978	,	-0.2560842	,	3
26,21	,	71757	,	-23052	,	-20974	,	3.4430804	,	6
26,21	,	71773	,	-23044	,	-20973	,	7.248339	,	9
26,21	,	71789	,	-23042	,	-20970	,	10.8106365	,	12
26,21	,	71821	,	-23043	,	-20973	,	13.812623	,	15
26,21	,	71837	,	-23038	,	-20968	,	15.9735775	,	18
26,21	,	71869	,	-23048	,	-20969	,	17.097477	,	20
26,21	,	71885	,	-23046	,	-20973	,	17.06969	,	21
26,21	,	71901	,	-23042	,	-20966	,	15.916628	,	20
26,21	,	71933	,	-23038	,	-20971	,	13.925546	,	18
26,21	,	71949	,	-23043	,	-20968	,	11.52894	,	15
26,21	,	71965	,	-23040	,	-20961	,	9.069896	,	12
26,21	,	71997	,	-23043	,	-20971	,	6.756574	,	9
26,21	,	72013	,	-23037	,	-20959	,	4.7385054	,	6
26,21	,	72045	,	-23042	,	-20962	,	3.1233964	,	3
26,21	,	72061	,	-23034	,	-20963	,	1.9601467	,	1
26,21	,	72077	,	-23035	,	-20959	,	1.2726347	,	0
26,21	,	72109	,	-23033	,	-20969	,	1.0551403	,	0
26,21	,	72125	,	-23048	,	-20970	,	1.152052	,	0
26,21	,	72141	,	-23037	,	-20964	,	1.2636588	,	0
26,21	,	72173	,	-23040	,	-20974	,	1.1997166	,	0
26,21	,	72188	,	-23043	,	-20959	,	0.96659786	,	0
26,21	,	72204	,	-23043	,	-20965	,	0.602331	,	0
26,21	,	72236	,	-23045	,	-20965	,	0.12869966	,	0
26,21	,	72252	,	-23047	,	-20970	,	-0.42078927	,	0
26,21	,	72285	,	-23043	,	-20976	,	-1.0004944	,	0
26,21	,	72301	,	-23068	,	-20973	,	-1.6386681	,	0
26,21	,	72317	,	-23065	,	-20974	,	-2.556554	,	0
26,21	,	72348	,	-23052	,	-20978	,	-3.8718767	,	0
26,21	,	72364	,	-23056	,	-20975	,	-5.266466	,	0
26,21	,	72380	,	-23062	,	-20970	,	-6.3189445	,	0
26,21	,	72413	,	-23070	,	-20990	,	-6.9438353	,	0
26,21	,	72429	,	-23064	,	-20968	,	-7.297215	,	0
26,21	,	72461	,	-23076	,	-20968	,	-7.5120716	,	0
26,21	,	72477	,	-23077	,	-20972	,	-7.691382	,	0
26,21	,	72492	,	-23074	,	-20977	,	-7.9062614	,	0
26,21	,	72524	,	-23076	,	-20983	,	-8.09004	,	0
26,21	,	72540	,	-23071	,	-20971	,	-8.090614	,	0
26,21	,	72557	,	-23096	,	-20984	,	-7.889447	,	0
26,21	,	72588	,	-23088	,	-20987	,	-7.7215557	,	0
26,21	,	72605	,	-23089	,	-20989	,	-7.7924814	,	0
26,22	,	72620	,	-23089	,	-20985	,	-8.02005	,	0
26,22	,	72652	,	-23099	,	-20998	,	-8.247604	,	0
26,22	,	72668	,	-23086	,	-20978	,	-8.397337	,	0
26,22	,	72700	,	-23069	,	-20983	,	-8.240345	,	0
26,22	,	72716	,	-23065	,	-20973	,	-7.3210707	,	0
26,22	,	72732	,	-23047	,	-20971	,	-5.2590723	,	0
26,22	,	72764	,	-23055	,	-20977	,	-2.0079634	,	2
26,22	,	72780	,	-23051	,	-20972	,	2.049359	,	5
26,22	,	72796	,	-23058	,	-20966	,	6.2006264	,	9
26,22	,	72828	,	-23050	,	-20963	,	9.732306	,	13
26,22	,	72845	,	-23053	,	-20976	,	12.201694	,	16
26,22	,	72876	,	-23048	,	-20969	,	13.479761	,	18
26,22	,	72892	,	-23044	,	-20990	,	13.686792	,	19
26,22	,	72908	,	-23061	,	-20959	,	13.030051	,	19
26,22	,	72940	,	-23050	,	-20962	,	11.625708	,	19
26,22	,	72956	,	-23050	,	-20970	,	9.635246	,	17
26,22	,	72972	,	-23035	,	-20959	,	7.4631467	,	14
26,22	,	73004	,	-23051	,	-20966	,	5.566399	,	10
26,22	,	73020	,	-23037	,	-20968	,	4.1628695	,	6
26,22	,	73036	,	-23038	,	-20958	,	3.2907405	,	3
26,22	,	73068	,	-23047	,	-20969	,	2.904276	,	1
26,22	,	73084	,	-23042	,	-20967	,	2.795526	,	0
26,22	,	73116	,	-23043	,	-20974	,	2.7303963	,	0
26,22	,	73132	,	-23035	,	-20984	,	2.6414752	,	0
26,22	,	73148	,	-23044	,	-20954	,	2.56666	,	0
26,22	,	73180	,	-23044	,	-20973	,	2.4762993	,	0
26,22	,	73196	,	-23036	,	-20971	,	2.2965422	,	0
26,22	,	73212	,	-23049	,	-20971	,	2.024444	,	0
26,22	,	73244	,	-23050	,	-20970	,	1.6142061	,	0
26,22	,	73260	,	-23045	,	-20971	,	0.98046184	,	0
26,22	,	73292	,	-23051	,	-20965	,	0.17079288	,	0
26,22	,	73308	,	-23050	,	-20971	,	-0.6965495	,	0
26,22	,	73324	,	-23059	,	-20966	,	-1.5753362	,	0
26,22	,	73356	,	-23059	,	-20969	,	-2.499062	,	0
26,22	,	73372	,	-23059	,	-20979	,	-3.478213	,	0
26,22	,	73388	,	-23061	,	-20958	,	-4.4231043	,	0
26,22	,	73420	,	-23061	,	-20971	,	-5.2094045	,	0
26,22	,	73436	,	-23068	,	-20973	,	-5.7776875	,	0
26,22	,	73452	,	-23063	,	-20969	,	-6.136615	,	0
26,22	,	73484	,	-23083	,	-20974	,	-6.3626313	,	0
26,22	,	73500	,	-23077	,	-20973	,	-6.6400976	,	0
26,22	,	73532	,	-23075	,	-20980	,	-7.078034	,	0
26,22	,	73548	,	-23076	,	-20981	,	-7.5300364	,	0
26,22	,	73564	,	-23079	,	-20978	,	-7.783534	,	0
26,22	,	73596	,	-23085	,	-20982	,	-7.7842174	,	0
26,22	,	73612	,	-23095	,	-20987	,	-7.6810822	,	0
26,23	,	73628	,	-23081	,	-20973	,	-7.6565323	,	0
26,23	,	73660	,	-23080	,	-20972	,	-7.635158	,	0
26,23	,	73676	,	-23082	,	-20978	,	-7.353387	,	0
26,23	,	73708	,	-23068	,	-20969	,	-6.6204176	,	0
26,23	,	73724	,	-23060	,	-20961	,	-5.279557	,	0
26,23	,	73740	,	-23045	,	-20966	,	-3.1364202	,	1
26,23	,	73772	,	-23042	,	-20968	,	-0.08738685	,	3
26,23	,	73788	,	-23041	,	-20963	,	3.6988628	,	6
26,23	,	73804	,	-23041	,	-20965	,	7.733311	,	9
26,23	,	73836	,	-23038	,	-20959	,	11.407617	,	13
26,23	,	73852	,	-23041	,	-20968	,	14.228269	,	16
26,23	,	73868	,	-23042	,	-20944	,	15.8771	,	18
26,23	,	73900	,	-23041	,	-20956	,	16.224918	,	19
26,23	,	73916	,	-23046	,	-20957	,	15.346248	,	19
26,23	,	73948	,	-23032	,	-20957	,	13.516489	,	18
26,23	,	73964	,	-23028	,	-20949	,	11.239031	,	16
26,23	,	73980	,	-23027	,	-20950	,	9.09293	,	13
26,23	,	74012	,	-23023	,	-20957	,	7.450639	,	10
26,23	,	74028	,	-23026	,	-20952	,	6.4055963	,	6
26,23	,	74060	,	-23023	,	-20941	,	5.857349	,	3
26,23	,	74076	,	-23024	,	-20940	,	5.623364	,	1
26,23	,	74092	,	-23025	,	-20957	,	5.517724	,	0
26,23	,	74124	,	-23029	,	-20934	,	5.35315	,	0
26,23	,	74140	,	-23029	,	-20945	,	4.963413	,	0
26,23	,	74156	,	-23030	,	-20946	,	4.273553	,	0
26,23	,	74188	,	-23021	,	-20942	,	3.367063	,	0
26,23	,	74204	,	-23026	,	-20941	,	2.4564264	,	0
26,23	,	74236	,	-23032	,	-20949	,	1.6811001	,	0
26,23	,	74252	,	-23029	,	-20947	,	1.0022715	,	0
26,23	,	74268	,	-23031	,	-20945	,	0.35747135	,	0
26,23	,	74300	,	-23032	,	-20949	,	-0.2452842	,	0
26,23	,	74316	,	-23029	,	-20954	,	-0.7724129	,	0
26,23	,	74332	,	-23038	,	-20938	,	-1.2163852	,	0
26,23	,	74364	,	-23044	,	-20945	,	-1.671989	,	0
26,23	,	74380	,	-23044	,	-20953	,	-2.2975042	,	0
26,23	,	74396	,	-23048	,	-20945	,	-3.1558657	,	0
26,23	,	74428	,	-23049	,	-20949	,	-4.1781693	,	0
26,23	,	74443	,	-23045	,	-20958	,	-5.206258	,	0
26,23	,	74476	,	-23043	,	-20955	,	-6.0115566	,	0
26,23	,	74492	,	-23057	,	-20952	,	-6.4492683	,	0
26,23	,	74507	,	-23056	,	-20955	,	-6.6199913	,	0
26,23	,	74540	,	-23048	,	-20958	,	-6.674059	,	0
26,23	,	74556	,	-23058	,	-20971	,	-6.596739	,	0
26,23	,	74572	,	-23059	,	-20946	,	-6.374147	,	0
26,23	,	74604	,	-23055	,	-20956	,	-6.0720177	,	0
26,24	,	74620	,	-23069	,	-20970	,	-5.747747	,	0
26,24	,	74651	,	-23065	,	-20960	,	-5.5109253	,	0
26,24	,	74667	,	-23071	,	-20961	,	-5.482315	,	0
26,24	,	74684	,	-23076	,	-20976	,	-5.701637	,	0
26,24	,	74715	,	-23077	,	-20976	,	-6.1674814	,	0
26,24	,	74731	,	-23075	,	-20980	,	-6.797963	,	0
26,24	,	74748	,	-23063	,	-20961	,	-7.338708	,	0
26,24	,	74780	,	-23058	,	-20961	,	-7.3943152	,	0
26,24	,	74795	,	-23052	,	-20967	,	-6.616827	,	0
26,24	,	74811	,	-23029	,	-20947	,	-4.802664	,	0
26,24	,	74844	,	-23040	,	-20955	,	-1.8983371	,	1
26,24	,	74859	,	-23037	,	-20947	,	1.7953904	,	3
26,24	,	74892	,	-23030	,	-20961	,	5.6603594	,	6
26,24	,	74908	,	-23018	,	-20943	,	9.209859	,	9
26,24	,	74924	,	-23015	,	-20943	,	12.276028	,	12
26,24	,	74955	,	-23029	,	-20951	,	14.736039	,	15
26,24	,	74972	,	-23021	,	-20949	,	16.30552	,	17
26,24	,	74987	,	-23027	,	-20956	,	16.742035	,	18
26,24	,	75019	,	-23025	,	-20952	,	16.038025	,	18
26,24	,	75035	,	-23021	,	-20961	,	14.384423	,	17
26,24	,	75067	,	-23020	,	-20942	,	12.128197	,	15
26,24	,	75083	,	-23022	,	-20946	,	9.65946	,	12
26,24	,	75100	,	-23017	,	-20946	,	7.283713	,	9
26,24	,	75131	,	-23011	,	-20944	,	5.255841	,	6
26,24	,	75147	,	-23015	,	-20948	,	3.7902794	,	3
26,24	,	75163	,	-23009	,	-20951	,	2.9564111	,	1
26,24	,	75195	,	-23010	,	-20945	,	2.6807842	,	0
26,24	,	75211	,	-23014	,	-20944	,	2.80038	,	0
26,24	,	75243	,	-23015	,	-20948	,	3.0678923	,	0
26,24	,	75259	,	-23022	,	-20943	,	3.206388	,	0
26,24	,	75275	,	-23017	,	-20955	,	3.0089655	,	0
26,24	,	75307	,	-23012	,	-20944	,	2.4754672	,	0
26,24	,	75323	,	-23016	,	-20943	,	1.8054527	,	0
26,24	,	75339	,	-23023	,	-20954	,	1.1472373	,	0
26,24	,	75371	,	-23035	,	-20946	,	0.4070629	,	0
26,24	,	75387	,	-23029	,	-20948	,	-0.62558174	,	0
26,24	,	75403	,	-23029	,	-20952	,	-1.9670355	,	0
26,24	,	75435	,	-23033	,	-20953	,	-3.3900268	,	0
26,24	,	75451	,	-23039	,	-20948	,	-4.6857576	,	0
26,24	,	75483	,	-23039	,	-20961	,	-5.791942	,	0
26,24	,	75499	,	-23039	,	-20951	,	-6.6858344	,	0
26,24	,	75515	,	-23045	,	-20966	,	-7.3279696	,	0
26,24	,	75547	,	-23042	,	-20961	,	-7.7062297	,	0
26,24	,	75563	,	-23054	,	-20961	,	-7.8627176	,	0
26,24	,	75579	,	-23051	,	-20961	,	-7.908267	,	0
26,24	,	75611	,	-23052	,	-20967	,	-7.9366426	,	0
26,25	,	75627	,	-23057	,	-20958	,	-7.9465694	,	0
26,25	,	75659	,	-23058	,	-20962	,	-7.9257975	,	0
26,25	,	75675	,	-23052	,	-20958	,	-7.850812	,	0
26,25	,	75691	,	-23058	,	-20966	,	-7.6329184	,	0
26,25	,	75723	,	-23062	,	-20969	,	-7.2360144	,	0
26,25	,	75739	,	-23064	,	-20968	,	-6.7570333	,	0
26,25	,	75755	,	-23075	,	-20977	,	-6.3701606	,	0
26,25	,	75787	,	-23069	,	-20978	,	-6.2405705	,	0
26,25	,	75803	,	-23079	,	-20973	,	-6.4139767	,	0
26,25	,	75819	,	-23069	,	-20966	,	-6.7884955	,	0
26,25	,	75851	,	-23048	,	-20948	,	-7.040844	,	0
26,25	,	75867	,	-23037	,	-20948	,	-6.5650554	,	0
26,25	,	75899	,	-23030	,	-20951	,	-4.8067455	,	0
26,25	,	75915	,	-23023	,	-20951	,	-1.6510224	,	1
26,25	,	75931	,	-23032	,	-20950	,	2.512287	,	4
26,25	,	75963	,	-23032	,	-20950	,	6.903353	,	8
26,25	,	75979	,	-23020	,	-20949	,	10.72538	,	12
26,25	,	75995	,	-23026	,	-20937	,	13.547331	,	15
26,25	,	76027	,	-23024	,	-20952	,	15.22593	,	17
26,25	,	76043	,	-23021	,	-20943	,	15.7366295	,	18
26,25	,	76075	,	-23024	,	-20935	,	15.19648	,	18
26,25	,	76091	,	-23016	,	-20941	,	13.851384	,	18
26,25	,	76107	,	-23021	,	-20938	,	12.021964	,	17
26,25	,	76139	,	-23017	,	-20938	,	10.010363	,	14
26,25	,	76155	,	-23012	,	-20938	,	8.0629425	,	10
26,25	,	76171	,	-23022	,	-20939	,	6.36161	,	6
26,25	,	76203	,	-23015	,	-20935	,	4.9407587	,	3
26,25	,	76219	,	-23022	,	-20931	,	3.7387457	,	1
26,25	,	76235	,	-23018	,	-20931	,	2.6993444	,	0
26,25	,	76267	,	-23015	,	-20935	,	1.8115187	,	0
26,25	,	76283	,	-23014	,	-20934	,	1.1382242	,	0
26,25	,	76315	,	-23023	,	-20928	,	0.70526993	,	0
26,25	,	76331	,	-23027	,	-20934	,	0.36918485	,	0
26,25	,	76347	,	-23019	,	-20936	,	-0.051202953	,	0
26,25	,	76379	,	-23021	,	-20930	,	-0.54797006	,	0
26,25	,	76395	,	-23022	,	-20932	,	-0.98476523	,	0
26,25	,	76411	,	-23025	,	-20936	,	-1.2964438	,	0
26,25	,	76443	,	-23029	,	-20937	,	-1.5301008	,	0
26,25	,	76459	,	-23035	,	-20945	,	-1.8084713	,	0
26,25	,	76491	,	-23026	,	-20945	,	-2.2272968	,	0
26,25	,	76507	,	-23040	,	-20946	,	-2.7668877	,	0
26,25	,	76523	,	-23038	,	-20932	,	-3.399557	,	0
26,25	,	76555	,	-23032	,	-20935	,	-4.094725	,	0
26,25	,	76571	,	-23051	,	-20939	,	-4.7680926	,	0
26,25	,	76587	,	-23044	,	-20935	,	-5.4294224	,	0
26,26	,	76619	,	-23043	,	-20943	,	-6.0981245	,	0
26,26	,	76635	,	-23042	,	-20936	,	-6.6236496	,	0
26,26	,	76666	,	-23034	,	-20936	,	-6.783326	,	0
26,26	,	76683	,	-23059	,	-20941	,	-6.504936	,	0
26,26	,	76699	,	-23055	,	-20946	,	-6.043977	,	0
26,26	,	76731	,	-23058	,	-20945	,	-5.760913	,	0
26,26	,	76747	,	-23067	,	-20959	,	-5.8138504	,	0
26,26	,	76763	,	-23069	,	-20945	,	-6.2424717	,	0
26,26	,	76795	,	-23052	,	-20951	,	-6.9425735	,	0
26,26	,	76811	,	-23052	,	-20945	,	-7.5136323	,	0
26,26	,	76826	,	-23043	,	-20947	,	-7.469037	,	0
26,26	,	76859	,	-23029	,	-20941	,	-6.4780445	,	0
26,26	,	76875	,	-23027	,	-20944	,	-4.3796644	,	0
26,26	,	76907	,	-23025	,	-20935	,	-1.2775955	,	2
26,26	,	76923	,	-23026	,	-20937	,	2.3904564	,	5
26,26	,	76938	,	-23021	,	-20930	,	6.039838	,	8
26,26	,	76970	,	-23014	,	-20932	,	9.218543	,	11
26,26	,	76986	,	-23011	,	-20942	,	11.731123	,	14
26,26	,	77002	,	-23007	,	-20917	,	13.548806	,	16
26,26	,	77035	,	-23020	,	-20930	,	14.628067	,	17
26,26	,	77051	,	-23028	,	-20940	,	14.768572	,	18
26,26	,	77082	,	-23028	,	-20930	,	13.72583	,	18
26,26	,	77098	,	-23018	,	-20931	,	11.5569935	,	16
26,26	,	77114	,	-23012	,	-20931	,	8.764765	,	13
26,26	,	77146	,	-23005	,	-20926	,	6.0653987	,	10
26,26	,	77162	,	-23011	,	-20931	,	4.01366	,	7
26,26	,	77178	,	-23016	,	-20935	,	2.7448087	,	4
26,26	,	77211	,	-23011	,	-20932	,	2.0580275	,	2
26,26	,	77226	,	-23007	,	-20951	,	1.7468823	,	1
26,26	,	77243	,	-23014	,	-20925	,	1.7108343	,	0
26,26	,	77274	,	-23019	,	-20929	,	1.7878982	,	0
26,26	,	77290	,	-23016	,	-20931	,	1.7457054	,	0
26,26	,	77322	,	-23018	,	-20923	,	1.4648309	,	0
26,26	,	77338	,	-23017	,	-20925	,	0.9763316	,	0
26,26	,	77355	,	-23028	,	-20939	,	0.32672846	,	0
26,26	,	77386	,	-23029	,	-20925	,	-0.52287686	,	0
26,26	,	77402	,	-23027	,	-20932	,	-1.6031749	,	0
26,26	,	77418	,	-23031	,	-20938	,	-2.8082156	,	0
26,26	,	77450	,	-23018	,	-20941	,	-3.9147127	,	0
26,26	,	77466	,	-23029	,	-20953	,	-4.670111	,	0
26,26	,	77498	,	-23032	,	-20930	,	-4.981303	,	0
26,26	,	77514	,	-23037	,	-20943	,	-5.0060067	,	0
26,26	,	77530	,	-23040	,	-20948	,	-4.9835677	,	0
26,26	,	77562	,	-23031	,	-20949	,	-5.030319	,	0
26,26	,	77579	,	-23037	,	-20946	,	-5.0723953	,	0
26,26	,	77594	,	-23047	,	-20936	,	-5.0461483	,	0
26,27	,	77626	,	-23048	,	-20943	,	-5.0823812	,	0
26,27	,	77642	,	-23057	,	-20940	,	-5.3731127	,	0
26,27	,	77658	,	-23055	,	-20943	,	-6.0038576	,	0
26,27	,	77690	,	-23065	,	-20940	,	-6.9343233	,	0
26,27	,	77706	,	-23063	,	-20960	,	-8.051475	,	0
26,27	,	77738	,	-23063	,	-20927	,	-9.178285	,	0
26,27	,	77754	,	-23069	,	-20965	,	-10.097092	,	0
26,27	,	77770	,	-23089	,	-20962	,	-10.770832	,	0
26,27	,	77802	,	-23070	,	-20959	,	-11.357008	,	0
26,27	,	77818	,	-23075	,	-20950	,	-11.823082	,	0
26,27	,	77834	,	-23061	,	-20949	,	-11.852746	,	0
26,27	,	77866	,	-23044	,	-20949	,	-11.035587	,	0
26,27	,	77882	,	-23033	,	-20945	,	-8.957958	,	0
26,27	,	77914	,	-23032	,	-20939	,	-5.450736	,	2
26,27	,	77930	,	-23028	,	-20930	,	-0.82520866	,	5
26,27	,	77946	,	-23028	,	-20943	,	4.2524586	,	9
26,27	,	77978	,	-23026	,	-20919	,	9.043073	,	14
26,27	,	77994	,	-23028	,	-20932	,	12.931654	,	18
26,27	,	78010	,	-23019	,	-20934	,	15.554487	,	21
26,27	,	78042	,	-23020	,	-20926	,	16.869461	,	23
26,27	,	78058	,	-23016	,	-20932	,	17.061466	,	24
26,27	,	78074	,	-23028	,	-20934	,	16.32615	,	24
26,27	,	78106	,	-23020	,	-20929	,	14.78348	,	22
26,27	,	78122	,	-23021	,	-20935	,	12.617441	,	19
26,27	,	78154	,	-23021	,	-20934	,	10.136936	,	15
26,27	,	78170	,	-23013	,	-20929	,	7.676249	,	10
26,27	,	78186	,	-23013	,	-20936	,	5.5579615	,	6
26,27	,	78218	,	-23025	,	-20912	,	3.956232	,	3
26,27	,	78234	,	-23015	,	-20932	,	2.7828016	,	1
26,27	,	78250	,	-23014	,	-20922	,	1.9207485	,	0
26,27	,	78282	,	-23011	,	-20929	,	1.3964667	,	0
26,27	,	78298	,	-23021	,	-20933	,	1.2099732	,	0
26,27	,	78330	,	-23027	,	-20935	,	1.154793	,	0
26,27	,	78346	,	-23026	,	-20935	,	0.91266817	,	0
26,27	,	78362	,	-23034	,	-20928	,	0.2815467	,	0
26,27	,	78394	,	-23018	,	-20935	,	-0.70051265	,	0
26,27	,	78410	,	-23021	,	-20932	,	-1.7340298	,	0
26,27	,	78426	,	-23026	,	-20941	,	-2.4828115	,	0
26,27	,	78458	,	-23035	,	-20930	,	-2.9024742	,	0
26,27	,	78474	,	-23032	,	-20939	,	-3.1918926	,	0
26,27	,	78490	,	-23034	,	-20941	,	-3.4997725	,	0
26,27	,	78522	,	-23041	,	-20944	,	-3.857326	,	0
26,27	,	78538	,	-23048	,	-20939	,	-4.3280325	,	0
26,27	,	78570	,	-23043	,	-20942	,	-4.993642	,	0
26,27	,	78586	,	-23045	,	-20944	,	-5.784523	,	0
26,27	,	78602	,	-23055	,	-20945	,	-6.5443406	,	0
26,28	,	78634	,	-23053	,	-20940	,	-7.2190065	,	0
26,28	,	78650	,	-23044	,	-20940	,	-7.753499	,	0
26,28	,	78666	,	-23064	,	-20949	,	-8.0326	,	0
26,28	,	78698	,	-23068	,	-20940	,	-8.147169	,	0
26,28	,	78714	,	-23066	,	-20946	,	-8.355148	,	0
26,28	,	78746	,	-23068	,	-20958	,	-8.729399	,	0
26,28	,	78762	,	-23072	,	-20953	,	-9.150257	,	0
26,28	,	78778	,	-23078	,	-20955	,	-9.532394	,	0
26,28	,	78810	,	-23070	,	-20953	,	-9.837405	,	0
26,28	,	78826	,	-23081	,	-20960	,	-9.978515	,	0
26,28	,	78841	,	-23084	,	-20971	,	-9.925056	,	0
26,28	,	78873	,	-23077	,	-20960	,	-9.732365	,	0
26,28	,	78890	,	-23061	,	-20949	,	-9.277461	,	0
26,28	,	78906	,	-23055	,	-20963	,	-8.190691	,	0
26,28	,	78938	,	-23054	,	-20931	,	-6.191705	,	1
26,28	,	78954	,	-23049	,	-20946	,	-3.3556614	,	2
26,28	,	78986	,	-23039	,	-20941	,	0.014336348	,	4
26,28	,	79002	,	-23037	,	-20945	,	3.6137662	,	7
26,28	,	79018	,	-23033	,	-20949	,	7.1552978	,	10
26,28	,	79050	,	-23032	,	-20955	,	10.332628	,	13
26,28	,	79065	,	-23040	,	-20944	,	12.8180065	,	16
26,28	,	79081	,	-23024	,	-20938	,	14.350494	,	18
26,28	,	79113	,	-23040	,	-20940	,	14.877672	,	19
26,28	,	79129	,	-23035	,	-20949	,	14.450113	,	18
26,28	,	79162	,	-23043	,	-20950	,	13.108492	,	17
26,28	,	79178	,	-23044	,	-20936	,	10.967752	,	15
26,28	,	79194	,	-23028	,	-20944	,	8.322073	,	12
26,28	,	79225	,	-23030	,	-20937	,	5.686244	,	9
26,28	,	79241	,	-23030	,	-20939	,	3.5522265	,	6
26,28	,	79257	,	-23030	,	-20938	,	2.1129727	,	3
26,28	,	79289	,	-23025	,	-20940	,	1.3406374	,	1
26,28	,	79305	,	-23024	,	-20943	,	1.1598506	,	0
26,28	,	79338	,	-23034	,	-20948	,	1.4208893	,	0
26,28	,	79354	,	-23018	,	-20946	,	1.8885016	,	0
26,28	,	79369	,	-23048	,	-20944	,	2.3106256	,	0
26,28	,	79401	,	-23034	,	-20948	,	2.3757763	,	0
26,28	,	79417	,	-23044	,	-20936	,	1.8619368	,	0
26,28	,	79433	,	-23042	,	-20945	,	0.8166963	,	0
26,28	,	79465	,	-23045	,	-20948	,	-0.5681815	,	0
26,28	,	79482	,	-23042	,	-20945	,	-2.0510654	,	0
26,28	,	79498	,	-23048	,	-20946	,	-3.3923895	,	0
26,28	,	79529	,	-23037	,	-20953	,	-4.4160037	,	0
26,28	,	79545	,	-23052	,	-20941	,	-5.01997	,	0
26,28	,	79577	,	-23049	,	-20941	,	-5.252121	,	0
26,28	,	79593	,	-23046	,	-20948	,	-5.2449365	,	0
26,28	,	79609	,	-23048	,	-20950	,	-5.0424585	,	0
26,29	,	79642	,	-23063	,	-20955	,	-4.7179976	,	0
26,29	,	79657	,	-23054	,	-20960	,	-4.482596	,	0
26,29	,	79673	,	-23060	,	-20952	,	-4.461581	,	0
26,29	,	79705	,	-23065	,	-20955	,	-4.6287103	,	0
26,29	,	79721	,	-23069	,	-20957	,	-4.9834385	,	0
26,29	,	79753	,	-23070	,	-20951	,	-5.545027	,	0
26,29	,	79770	,	-23067	,	-20959	,	-6.2256775	,	0
26,29	,	79785	,	-23072	,	-20953	,	-6.8465557	,	0
26,29	,	79817	,	-23072	,	-20960	,	-7.27279	,	0
26,29	,	79833	,	-23080	,	-20964	,	-7.4934983	,	0
26,29	,	79849	,	-23063	,	-20951	,	-7.5174346	,	0
26,29	,	79881	,	-23053	,	-20953	,	-7.1493464	,	0
26,29	,	79897	,	-23056	,	-20954	,	-6.0635276	,	0
26,29	,	79913	,	-23038	,	-20938	,	-4.1148467	,	1
26,29	,	79945	,	-23047	,	-20949	,	-1.4031746	,	2
26,29	,	79961	,	-23045	,	-20937	,	1.7314835	,	4
26,29	,	79993	,	-23033	,	-20944	,	4.8257637	,	7
26,29	,	80009	,	-23040	,	-20946	,	7.560965	,	10
26,29	,	80025	,	-23038	,	-20940	,	9.720009	,	12
26,29	,	80057	,	-23039	,	-20948	,	11.085016	,	14
26,29	,	80073	,	-23048	,	-20944	,	11.501471	,	15
26,29	,	80089	,	-23050	,	-20948	,	10.885315	,	15
26,29	,	80121	,	-23047	,	-20953	,	9.301875	,	14
26,29	,	80137	,	-23039	,	-20949	,	7.0924206	,	13
26,29	,	80169	,	-23051	,	-20948	,	4.7275352	,	11
26,29	,	80185	,	-23038	,	-20942	,	2.5508666	,	8
26,29	,	80201	,	-23039	,	-20940	,	0.8056421	,	5
26,29	,	80233	,	-23028	,	-20950	,	-0.26276183	,	3
26,29	,	80249	,	-23039	,	-20941	,	-0.52549934	,	1
26,29	,	80265	,	-23037	,	-20952	,	-0.13372883	,	0
26,29	,	80297	,	-23044	,	-20939	,	0.5374325	,	0
26,29	,	80313	,	-23040	,	-20950	,	1.1217667	,	0
26,29	,	80329	,	-23051	,	-20950	,	1.3837156	,	0
26,29	,	80361	,	-23038	,	-20944	,	1.232807	,	0
26,29	,	80377	,	-23047	,	-20954	,	0.75910395	,	0
26,29	,	80409	,	-23043	,	-20937	,	0.1379515	,	0
26,29	,	80425	,	-23060	,	-20948	,	-0.569862	,	0
26,29	,	80441	,	-23053	,	-20938	,	-1.441056	,	0
26,29	,	80473	,	-23060	,	-20940	,	-2.5110118	,	0
26,29	,	80489	,	-23058	,	-20939	,	-3.6868231	,	0
26,29	,	80505	,	-23054	,	-20949	,	-4.7939253	,	0
26,29	,	80537	,	-23071	,	-20948	,	-5.683481	,	0
26,29	,	80553	,	-23057	,	-20947	,	-6.33809	,	0
26,29	,	80585	,	-23073	,	-20952	,	-6.7912636	,	0
26,29	,	80601	,	-23067	,	-20947	,	-7.0779743	,	0
26,29	,	80617	,	-23077	,	-20966	,	-7.271503	,	0
26,30	,	80649	,	-23077	,	-20939	,	-7.4494042	,	0
26,30	,	80665	,	-23083	,	-20957	,	-7.6819515	,	0
26,30	,	80681	,	-23078	,	-20951	,	-7.978569	,	0
26,30	,	80713	,	-23087	,	-20952	,	-8.259053	,	0
26,30	,	80729	,	-23085	,	-20955	,	-8.454194	,	0
26,30	,	80745	,	-23081	,	-20958	,	-8.510445	,	0
26,30	,	80777	,	-23077	,	-20946	,	-8.29232	,	0
26,30	,	80793	,	-23065	,	-20940	,	-7.5886016	,	0
26,30	,	80825	,	-23045	,	-20944	,	-6.108821	,	0
26,30	,	80841	,	-23041	,	-20940	,	-3.536531	,	1
26,30	,	80857	,	-23044	,	-20958	,	0.13914275	,	3
26,30	,	80889	,	-23043	,	-20932	,	4.4183874	,	6
26,30	,	80905	,	-23034	,	-20941	,	8.595566	,	10
26,30	,	80921	,	-23032	,	-20938	,	12.161285	,	14
26,30	,	80953	,	-23032	,	-20939	,	14.846686	,	17
26,30	,	80969	,	-23043	,	-20934	,	16.44395	,	19
26,30	,	81001	,	-23033	,	-20939	,	16.786442	,	20
26,30	,	81017	,	-23028	,	-20938	,	15.97102	,	20
26,30	,	81033	,	-23031	,	-20938	,	14.377386	,	19
26,30	,	81065	,	-23019	,	-20927	,	12.4325485	,	17
26,30	,	81081	,	-23021	,	-20929	,	10.525963	,	14
26,30	,	81097	,	-23021	,	-20941	,	8.933869	,	10
26,30	,	81129	,	-23017	,	-20917	,	7.7279606	,	6
26,30	,	81145	,	-23009	,	-20926	,	6.913243	,	3
26,30	,	81161	,	-23020	,	-20935	,	6.4853277	,	1
26,30	,	81193	,	-23012	,	-20928	,	6.3080196	,	0
26,30	,	81209	,	-23017	,	-20930	,	6.1742163	,	0
26,30	,	81241	,	-23017	,	-20928	,	5.9312763	,	0
26,30	,	81257	,	-23024	,	-20937	,	5.4508166	,	0
26,30	,	81273	,	-23024	,	-20930	,	4.6192737	,	0
26,30	,	81305	,	-23023	,	-20931	,	3.43073	,	0
26,30	,	81321	,	-23016	,	-20931	,	2.0634112	,	0
26,30	,	81337	,	-23028	,	-20951	,	0.7656529	,	0
26,30	,	81369	,	-23029	,	-20920	,	-0.37606907	,	0
26,30	,	81384	,	-23042	,	-20932	,	-1.4824903	,	0
26,30	,	81417	,	-23031	,	-20936	,	-2.6887684	,	0
26,30	,	81432	,	-23037	,	-20936	,	-3.9420645	,	0
26,30	,	81449	,	-23031	,	-20940	,	-5.0329366	,	0
26,30	,	81481	,	-23030	,	-20935	,	-5.745718	,	0
26,30	,	81497	,	-23042	,	-20944	,	-5.987659	,	0
26,30	,	81513	,	-23044	,	-20945	,	-5.905076	,	0
26,30	,	81545	,	-23047	,	-20951	,	-5.771106	,	0
26,30	,	81561	,	-23039	,	-20944	,	-5.7185097	,	0
26,30	,	81576	,	-23045	,	-20956	,	-5.6777954	,	0
26,30	,	81608	,	-23055	,	-20935	,	-5.597026	,	0
26,31	,	81624	,	-23060	,	-20941	,	-5.6191664	,	0
26,31	,	81657	,	-23062	,	-20942	,	-5.939681	,	0
26,31	,	81673	,	-23058	,	-20938	,	-6.5698586	,	0
26,31	,	81689	,	-23076	,	-20947	,	-7.3786373	,	0
26,31	,	81721	,	-23065	,	-20950	,	-8.2744255	,	0
26,31	,	81737	,	-23064	,	-20942	,	-9.102311	,	0
26,31	,	81752	,	-23061	,	-20953	,	-9.556524	,	0
26,31	,	81785	,	-23046	,	-20943	,	-9.328348	,	0
26,31	,	81800	,	-23035	,	-20952	,	-8.123347	,	0
26,31	,	81832	,	-23044	,	-20963	,	-5.792354	,	1
26,31	,	81848	,	-23029	,	-20931	,	-2.5655937	,	3
26,31	,	81864	,	-23019	,	-20941	,	1.1701853	,	6
26,31	,	81896	,	-23030	,	-20940	,	5.080083	,	9
26,31	,	81913	,	-23023	,	-20937	,	8.713512	,	12
26,31	,	81928	,	-23025	,	-20948	,	11.580513	,	15
26,31	,	81960	,	-23017	,	-20948	,	13.423202	,	17
26,31	,	81976	,	-23021	,	-20946	,	14.240068	,	18
26,31	,	81992	,	-23014	,	-20945	,	14.174719	,	18
26,31	,	82024	,	-23016	,	-20943	,	13.446362	,	17
26,31	,	82040	,	-23022	,	-20943	,	12.251905	,	15
26,31	,	82072	,	-23020	,	-20945	,	10.679743	,	12
26,31	,	82088	,	-23010	,	-20933	,	8.851573	,	9
26,31	,	82105	,	-23005	,	-20944	,	7.0875907	,	6
26,31	,	82137	,	-23013	,	-20942	,	5.7168074	,	3
26,31	,	82153	,	-23005	,	-20936	,	4.8179355	,	1
26,31	,	82169	,	-23002	,	-20934	,	4.3293543	,	0
26,31	,	82200	,	-23004	,	-20936	,	4.204439	,	0
26,31	,	82216	,	-23002	,	-20939	,	4.34177	,	0
26,31	,	82248	,	-23005	,	-20935	,	4.564976	,	0
26,31	,	82264	,	-23005	,	-20935	,	4.691106	,	0
26,31	,	82280	,	-23006	,	-20932	,	4.589984	,	0
26,31	,	82312	,	-23021	,	-20949	,	4.1542435	,	0
26,31	,	82328	,	-23019	,	-20933	,	3.2295597	,	0
26,31	,	82344	,	-23019	,	-20946	,	1.7621086	,	0
26,31	,	82376	,	-23026	,	-20946	,	-0.08704603	,	0
26,31	,	82392	,	-23018	,	-20944	,	-2.0599265	,	0
26,31	,	82424	,	-23032	,	-20937	,	-3.9054568	,	0
26,31	,	82440	,	-23020	,	-20938	,	-5.4394774	,	0
26,31	,	82456	,	-23027	,	-20945	,	-6.525787	,	0
26,31	,	82488	,	-23026	,	-20945	,	-7.0735993	,	0
26,31	,	82504	,	-23038	,	-20940	,	-7.154621	,	0
26,31	,	82520	,	-23037	,	-20939	,	-7.0074677	,	0
26,31	,	82552	,	-23032	,	-20953	,	-6.828393	,	0
26,31	,	82568	,	-23033	,	-20938	,	-6.6030593	,	0
26,31	,	82584	,	-23033	,	-20945	,	-6.217551	,	0
26,32	,	82616	,	-23039	,	-20954	,	-5.6524343	,	0
26,32	,	82632	,	-23059	,	-20958	,	-5.1103487	,	0
26,32	,	82664	,	-23052	,	-20960	,	-4.9643393	,	0
26,32	,	82680	,	-23045	,	-20953	,	-5.356478	,	0
26,32	,	82696	,	-23052	,	-20952	,	-6.018223	,	0
26,32	,	82728	,	-23052	,	-20953	,	-6.6303844	,	0
26,32	,	82744	,	-23065	,	-20954	,	-7.105459	,	0
26,32	,	82760	,	-23064	,	-20960	,	-7.5426207	,	0
26,32	,	82792	,	-23065	,	-20963	,	-8.03083	,	0
26,32	,	82808	,	-23066	,	-20959	,	-8.5128	,	0
26,32	,	82840	,	-23055	,	-20955	,	-8.800911	,	0
26,32	,	82856	,	-23039	,	-20959	,	-8.554285	,	0
26,32	,	82872	,	-23030	,	-20953	,	-7.3232203	,	0
26,32	,	82904	,	-23030	,	-20956	,	-4.8541985	,	1
26,32	,	82920	,	-23024	,	-20948	,	-1.3305988	,	3
26,32	,	82936	,	-23017	,	-20948	,	2.7759697	,	6
26,32	,	82968	,	-23021	,	-20943	,	6.944852	,	10
26,32	,	82984	,	-23015	,	-20947	,	10.667377	,	14
26,32	,	83000	,	-23019	,	-20949	,	13.515413	,	17
26,32	,	83032	,	-23020	,	-20946	,	15.208724	,	19
26,32	,	83048	,	-23019	,	-20950	,	15.63121	,	20
26,32	,	83080	,	-23024	,	-20955	,	14.85045	,	20
26,32	,	83096	,	-23019	,	-20940	,	13.087482	,	19
26,32	,	83112	,	-23013	,	-20946	,	10.713809	,	17
26,32	,	83144	,	-23020	,	-20949	,	8.184254	,	14
26,32	,	83160	,	-23013	,	-20955	,	5.8507233	,	10
26,32	,	83176	,	-23011	,	-20951	,	3.9410648	,	6
26,32	,	83208	,	-23015	,	-20948	,	2.5910652	,	3
26,32	,	83224	,	-23018	,	-20947	,	1.7529628	,	1
26,32	,	83256	,	-23017	,	-20944	,	1.2391955	,	0
26,32	,	83272	,	-23024	,	-20957	,	0.8606055	,	0
26,32	,	83288	,	-23023	,	-20958	,	0.45193785	,	0
26,32	,	83320	,	-23022	,	-20950	,	-0.08124691	,	0
26,32	,	83336	,	-23030	,	-20961	,	-0.7361758	,	0
26,32	,	83352	,	-23024	,	-20956	,	-1.4786243	,	0
26,32	,	83384	,	-23035	,	-20951	,	-2.2631814	,	0
26,32	,	83400	,	-23034	,	-20964	,	-3.0693798	,	0
26,32	,	83416	,	-23034	,	-20960	,	-3.886099	,	0
26,32	,	83448	,	-23038	,	-20959	,	-4.6423	,	0
26,32	,	83464	,	-23031	,	-20962	,	-5.238785	,	0
26,32	,	83496	,	-23040	,	-20960	,	-5.592514	,	0
26,32	,	83512	,	-23033	,	-20958	,	-5.670903	,	0
26,32	,	83528	,	-23049	,	-20978	,	-5.5389295	,	0
26,32	,	83560	,	-23042	,	-20953	,	-5.355645	,	0
26,32	,	83576	,	-23055	,	-20962	,	-5.2881446	,	0
26,32	,	83592	,	-23059	,	-20969	,	-5.4778786	,	0
26,33	,	83623	,	-23056	,	-20971	,	-6.0084257	,	0
26,33	,	83639	,	-23061	,	-20973	,	-6.7949505	,	0
26,33	,	83671	,	-23081	,	-20981	,	-7.741309	,	0
26,33	,	83688	,	-23074	,	-20974	,	-8.913312	,	0
26,33	,	83703	,	-23087	,	-20974	,	-10.3332815	,	0
26,33	,	83735	,	-23072	,	-20977	,	-11.808029	,	0
26,33	,	83751	,	-23069	,	-20979	,	-12.9326725	,	0
26,33	,	83768	,	-23065	,	-20988	,	-13.22836	,	0
26,33	,	83800	,	-23057	,	-20964	,	-12.393584	,	0
26,33	,	83816	,	-23045	,	-20973	,	-10.341083	,	0
26,33	,	83831	,	-23032	,	-20969	,	-7.07922	,	2
26,33	,	83863	,	-23034	,	-20966	,	-2.758491	,	5
26,33	,	83879	,	-23039	,	-20965	,	2.1431322	,	9
26,33	,	83912	,	-23040	,	-20963	,	6.8392763	,	13
26,33	,	83928	,	-23036	,	-20963	,	10.586456	,	17
26,33	,	83944	,	-23033	,	-20965	,	13.007607	,	20
26,33	,	83976	,	-23040	,	-20961	,	14.072697	,	22
26,33	,	83992	,	-23037	,	-20961	,	13.895451	,	23
26,33	,	84008	,	-23048	,	-20985	,	12.63073	,	23
26,33	,	84040	,	-23039	,	-20953	,	10.495079	,	21
26,33	,	84055	,	-23038	,	-20968	,	7.8519034	,	18
26,33	,	84087	,	-23038	,	-20963	,	5.1677804	,	14
26,33	,	84103	,	-23042	,	-20965	,	2.7946844	,	10
26,33	,	84119	,	-23048	,	-20970	,	0.8503759	,	6
26,33	,	84152	,	-23046	,	-20958	,	-0.7133813	,	3
26,33	,	84168	,	-23035	,	-20964	,	-1.9042286	,	1
26,33	,	84184	,	-23036	,	-20964	,	-2.576391	,	0
26,33	,	84215	,	-23040	,	-20962	,	-2.6294267	,	0
26,33	,	84231	,	-23032	,	-20964	,	-2.15385	,	0
26,33	,	84248	,	-23041	,	-20983	,	-1.3296766	,	0
26,33	,	84279	,	-23038	,	-20952	,	-0.38304365	,	0
26,33	,	84295	,	-23044	,	-20964	,	0.4316095	,	0
26,33	,	84327	,	-23048	,	-20962	,	0.90175486	,	0
26,33	,	84344	,	-23043	,	-20966	,	0.91998017	,	0
26,33	,	84360	,	-23057	,	-20962	,	0.4970278	,	0
26,33	,	84391	,	-23055	,	-20970	,	-0.34739918	,	0
26,33	,	84407	,	-23059	,	-20965	,	-1.581636	,	0
26,33	,	84423	,	-23067	,	-20968	,	-3.093409	,	0
26,33	,	84455	,	-23056	,	-20968	,	-4.712481	,	0
26,33	,	84471	,	-23065	,	-20971	,	-6.1927695	,	0
26,33	,	84503	,	-23060	,	-20989	,	-7.287592	,	0
26,33	,	84519	,	-23067	,	-20961	,	-7.8756847	,	0
26,33	,	84535	,	-23077	,	-20976	,	-8.031725	,	0
26,33	,	84567	,	-23076	,	-20975	,	-8.009911	,	0
26,33	,	84583	,	-23080	,	-20978	,	-8.029163	,	0
26,33	,	84599	,	-23085	,	-20975	,	-8.16037	,	0
26,34	,	84631	,	-23074	,	-20976	,	-8.358465	,	0
26,34	,	84647	,	-23080	,	-20977	,	-8.444766	,	0
26,34	,	84663	,	-23079	,	-20983	,	-8.238062	,	0
26,34	,	84695	,	-23091	,	-20987	,	-7.7569447	,	0
26,34	,	84711	,	-23079	,	-20979	,	-7.163354	,	0
26,34	,	84743	,	-23061	,	-20981	,	-6.4275494	,	0
26,34	,	84759	,	-23053	,	-20958	,	-5.1747904	,	0
26,34	,	84775	,	-23056	,	-20963	,	-3.069846	,	1
26,34	,	84807	,	-23046	,	-20968	,	-0.17898011	,	3
26,34	,	84823	,	-23057	,	-20971	,	3.1051996	,	5
26,34	,	84839	,	-23047	,	-20966	,	6.260161	,	8
26,34	,	84871	,	-23047	,	-20962	,	8.854097	,	11
26,34	,	84887	,	-23046	,	-20959	,	10.677221	,	13
26,34	,	84919	,	-23037	,	-20963	,	11.706211	,	14
26,34	,	84935	,	-23029	,	-20962	,	12.119947	,	15
26,34	,	84951	,	-23036	,	-20965	,	12.192247	,	15
26,34	,	84983	,	-23046	,	-20979	,	11.976519	,	14
26,34	,	84999	,	-23040	,	-20947	,	11.281773	,	12
26,34	,	85015	,	-23043	,	-20959	,	10.006887	,	10
26,34	,	85047	,	-23032	,	-20957	,	8.324196	,	7
26,34	,	85063	,	-23034	,	-20960	,	6.575828	,	4
26,34	,	85095	,	-23031	,	-20965	,	5.071778	,	2
26,34	,	85111	,	-23037	,	-20959	,	3.941843	,	1
26,34	,	85127	,	-23033	,	-20961	,	3.1412299	,	0
26,34	,	85159	,	-23038	,	-20956	,	2.553242	,	0
26,34	,	85175	,	-23050	,	-20950	,	2.0017583	,	0
26,34	,	85191	,	-23029	,	-20956	,	1.3242799	,	0
26,34	,	85223	,	-23034	,	-20980	,	0.616657	,	0
26,34	,	85239	,	-23039	,	-20944	,	0.10329819	,	0
26,34	,	85255	,	-23045	,	-20964	,	-0.23040485	,	0
26,34	,	85287	,	-23038	,	-20958	,	-0.55398643	,	0
26,34	,	85303	,	-23043	,	-20957	,	-0.9271672	,	0
26,34	,	85335	,	-23046	,	-20958	,	-1.3263956	,	0
26,34	,	85351	,	-23047	,	-20958	,	-1.7633781	,	0
26,34	,	85367	,	-23041	,	-20969	,	-2.2248883	,	0
26,34	,	85399	,	-23057	,	-20969	,	-2.6642747	,	0
26,34	,	85415	,	-23052	,	-20972	,	-3.1324804	,	0
26,34	,	85431	,	-23058	,	-20961	,	-3.7160766	,	0
26,34	,	85463	,	-23065	,	-20975	,	-4.4371347	,	0
26,34	,	85479	,	-23066	,	-20965	,	-5.3106194	,	0
26,34	,	85511	,	-23075	,	-20973	,	-6.345179	,	0
26,34	,	85527	,	-23072	,	-20971	,	-7.500225	,	0
26,34	,	85543	,	-23067	,	-20978	,	-8.609745	,	0
26,34	,	85575	,	-23082	,	-20973	,	-9.434038	,	0
26,34	,	85591	,	-23083	,	-20975	,	-9.923428	,	0
26,34	,	85607	,	-23094	,	-20983	,	-10.253702	,	0
26,35	,	85639	,	-23086	,	-20980	,	-10.585305	,	0
26,35	,	85655	,	-23095	,	-20984	,	-10.909135	,	0
26,35	,	85671	,	-23094	,	-20979	,	-11.129122	,	0
26,35	,	85703	,	-23100	,	-20991	,	-11.200729	,	0
26,35	,	85719	,	-23102	,	-20983	,	-11.141619	,	0
26,35	,	85751	,	-23089	,	-20981	,	-10.923262	,	0
26,35	,	85767	,	-23079	,	-20982	,	-10.311693	,	0
26,35	,	85783	,	-23075	,	-20974	,	-8.948242	,	0
26,35	,	85815	,	-23060	,	-20974	,	-6.613046	,	1
26,35	,	85831	,	-23056	,	-20975	,	-3.295188	,	3
26,35	,	85847	,	-23057	,	-20972	,	0.77849007	,	6
26,35	,	85879	,	-23058	,	-20966	,	5.082259	,	10
26,35	,	85895	,	-23058	,	-20971	,	8.955014	,	14
26,35	,	85927	,	-23053	,	-20968	,	11.893563	,	17
26,35	,	85943	,	-23045	,	-20976	,	13.733241	,	19
26,35	,	85959	,	-23053	,	-20975	,	14.572244	,	20
26,35	,	85991	,	-23070	,	-20961	,	14.437696	,	20
26,35	,	86007	,	-23060	,	-20974	,	13.204149	,	19
26,35	,	86022	,	-23054	,	-20971	,	10.995567	,	17
26,35	,	86055	,	-23059	,	-20960	,	8.305231	,	14
26,35	,	86071	,	-23047	,	-20969	,	5.6684885	,	10
26,35	,	86102	,	-23059	,	-20962	,	3.4643822	,	6
26,35	,	86119	,	-23059	,	-20957	,	1.8141131	,	3
26,35	,	86135	,	-23053	,	-20968	,	0.6330483	,	1
26,35	,	86167	,	-23053	,	-20970	,	-0.13481629	,	0
26,35	,	86183	,	-23052	,	-20969	,	-0.49418694	,	0
26,35	,	86199	,	-23040	,	-20972	,	-0.4399221	,	0
26,35	,	86231	,	-23044	,	-20968	,	0.07738688	,	0
26,35	,	86247	,	-23053	,	-20967	,	0.97747964	,	0
26,35	,	86278	,	-23052	,	-20979	,	1.929389	,	0
26,35	,	86294	,	-23048	,	-20969	,	2.6085134	,	0
26,35	,	86311	,	-23056	,	-20971	,	2.8903906	,	0
26,35	,	86343	,	-23052	,	-20969	,	2.7588077	,	0
26,35	,	86359	,	-23066	,	-20969	,	2.2090774	,	0
26,35	,	86375	,	-23054	,	-20973	,	1.2544456	,	0
26,35	,	86407	,	-23067	,	-20981	,	-0.00414598	,	0
26,35	,	86422	,	-23059	,	-20968	,	-1.388326	,	0
26,35	,	86438	,	-23065	,	-20979	,	-2.7104332	,	0
26,35	,	86471	,	-23071	,	-20981	,	-3.8488314	,	0
26,35	,	86487	,	-23064	,	-20979	,	-4.7786036	,	0
26,35	,	86518	,	-23078	,	-20983	,	-5.5005445	,	0
26,35	,	86534	,	-23076	,	-20980	,	-6.067844	,	0
26,35	,	86550	,	-23082	,	-20981	,	-6.583018	,	0
26,35	,	86582	,	-23077	,	-20984	,	-7.069791	,	0
26,35	,	86598	,	-23077	,	-20979	,	-7.4302955	,	0
26,35	,	86615	,	-23067	,	-20981	,	-7.470253	,	0
26,36	,	86646	,	-23090	,	-20983	,	-7.0792284	,	0
26,36	,	86663	,	-23087	,	-20985	,	-6.464526	,	0
26,36	,	86694	,	-23096	,	-20988	,	-6.001292	,	0
26,36	,	86710	,	-23096	,	-20989	,	-5.9229155	,	0
26,36	,	86726	,	-23107	,	-20987	,	-6.2961197	,	0
26,36	,	86758	,	-23100	,	-20985	,	-7.0706954	,	0
26,36	,	86775	,	-23090	,	-20978	,	-7.977868	,	0
26,36	,	86791	,	-23079	,	-20978	,	-8.4949045	,	0
26,36	,	86823	,	-23066	,	-20975	,	-8.040863	,	0
26,36	,	86838	,	-23063	,	-20973	,	-6.2497306	,	0
26,36	,	86870	,	-23069	,	-20981	,	-3.211511	,	1
26,36	,	86886	,	-23061	,	-20983	,	0.5298705	,	4
26,36	,	86902	,	-23074	,	-20986	,	4.2690096	,	7
26,36	,	86934	,	-23080	,	-20973	,	7.309282	,	10
26,36	,	86950	,	-23073	,	-20981	,	9.106565	,	13
26,36	,	86966	,	-23073	,	-20970	,	9.537337	,	14
26,36	,	86998	,	-23082	,	-20978	,	8.825625	,	14
26,36	,	87014	,	-23072	,	-20970	,	7.2813644	,	14
26,36	,	87030	,	-23079	,	-20963	,	5.272403	,	14
26,36	,	87062	,	-23078	,	-20972	,	3.1642857	,	13
26,36	,	87078	,	-23072	,	-20975	,	1.2362733	,	10
26,36	,	87110	,	-23065	,	-20970	,	-0.23524642	,	7
26,36	,	87126	,	-23068	,	-20981	,	-1.0042833	,	4
26,36	,	87142	,	-23076	,	-20974	,	-1.0722041	,	1
26,36	,	87174	,	-23070	,	-20966	,	-0.71550924	,	0
26,36	,	87190	,	-23076	,	-20975	,	-0.23995385	,	0
26,36	,	87206	,	-23068	,	-20977	,	0.18608707	,	0
26,36	,	87238	,	-23077	,	-20975	,	0.5049964	,	0
26,36	,	87254	,	-23069	,	-20974	,	0.69707865	,	0
26,36	,	87286	,	-23065	,	-20980	,	0.8071654	,	0
26,36	,	87302	,	-23087	,	-20979	,	0.8657437	,	0
26,36	,	87319	,	-23081	,	-20977	,	0.68984646	,	0
26,36	,	87350	,	-23076	,	-20981	,	0.10952681	,	0
26,36	,	87366	,	-23080	,	-20984	,	-0.74157226	,	0
26,36	,	87382	,	-23085	,	-20987	,	-1.6432294	,	0
26,36	,	87414	,	-23081	,	-20975	,	-2.4914412	,	0
26,36	,	87430	,	-23093	,	-20986	,	-3.2535021	,	0
26,36	,	87446	,	-23088	,	-20999	,	-3.9481618	,	0
26,36	,	87478	,	-23104	,	-20982	,	-4.6417494	,	0
26,36	,	87494	,	-23105	,	-20985	,	-5.458564	,	0
26,36	,	87526	,	-23100	,	-20987	,	-6.469671	,	0
26,36	,	87542	,	-23099	,	-20983	,	-7.4971156	,	0
26,36	,	87558	,	-23107	,	-20982	,	-8.258374	,	0
26,36	,	87590	,	-23108	,	-20992	,	-8.65408	,	0
26,36	,	87606	,	-23110	,	-20984	,	-8.750436	,	0
26,37	,	87622	,	-23111	,	-20997	,	-8.628923	,	0
26,37	,	87654	,	-23113	,	-20981	,	-8.34768	,	0
26,37	,	87670	,	-23122	,	-20990	,	-7.992701	,	0
26,37	,	87702	,	-23110	,	-20977	,	-7.654334	,	0
26,37	,	87718	,	-23105	,	-20987	,	-7.251157	,	0
26,37	,	87734	,	-23094	,	-20974	,	-6.490735	,	0
26,37	,	87766	,	-23088	,	-20981	,	-5.0618963	,	0
26,37	,	87782	,	-23085	,	-20977	,	-2.8315623	,	1
26,37	,	87798	,	-23088	,	-20978	,	0.028705597	,	3
26,37	,	87830	,	-23083	,	-20969	,	3.0973604	,	5
26,37	,	87846	,	-23084	,	-20976	,	5.932031	,	8
26,37	,	87862	,	-23089	,	-20977	,	8.183302	,	10
26,37	,	87894	,	-23082	,	-20959	,	9.60732	,	12
26,37	,	87910	,	-23072	,	-20967	,	10.204049	,	13
26,37	,	87942	,	-23089	,	-20969	,	10.175275	,	13
26,37	,	87958	,	-23072	,	-20971	,	9.672901	,	13
26,37	,	87974	,	-23079	,	-20971	,	8.829498	,	12
26,37	,	88006	,	-23081	,	-20971	,	7.7999516	,	10
26,37	,	88022	,	-23074	,	-20968	,	6.67306	,	8
26,37	,	88038	,	-23073	,	-20967	,	5.5646715	,	5
26,37	,	88070	,	-23062	,	-20963	,	4.677722	,	3
26,37	,	88086	,	-23065	,	-20965	,	4.2106466	,	1
26,37	,	88117	,	-23063	,	-20981	,	4.2222605	,	0
26,37	,	88134	,	-23065	,	-20952	,	4.577306	,	0
26,37	,	88150	,	-23068	,	-20969	,	5.031863	,	0
26,37	,	88182	,	-23066	,	-20965	,	5.3412	,	0
26,37	,	88198	,	-23065	,	-20967	,	5.3573213	,	0
26,37	,	88214	,	-23068	,	-20962	,	5.053446	,	0
26,37	,	88246	,	-23070	,	-20973	,	4.4528427	,	0
26,37	,	88262	,	-23069	,	-20973	,	3.595101	,	0
26,37	,	88278	,	-23075	,	-20964	,	2.5440924	,	0
26,37	,	88310	,	-23074	,	-20969	,	1.3663929	,	0
26,37	,	88326	,	-23080	,	-20974	,	0.11776233	,	0
26,37	,	88358	,	-23079	,	-20984	,	-1.1536568	,	0
26,37	,	88374	,	-23072	,	-20956	,	-2.3486989	,	0
26,37	,	88390	,	-23079	,	-20974	,	-3.2895765	,	0
26,37	,	88422	,	-23086	,	-20963	,	-3.9031787	,	0
26,37	,	88438	,	-23082	,	-20976	,	-4.304826	,	0
26,37	,	88454	,	-23097	,	-20965	,	-4.6579537	,	0
26,37	,	88486	,	-23082	,	-20979	,	-5.0721245	,	0
26,37	,	88502	,	-23096	,	-20974	,	-5.529207	,	0
26,37	,	88534	,	-23090	,	-20971	,	-5.9338098	,	0
26,37	,	88550	,	-23109	,	-20975	,	-6.2877407	,	0
26,37	,	88566	,	-23099	,	-20972	,	-6.70183	,	0
26,37	,	88598	,	-23101	,	-20988	,	-7.1916018	,	0
26,37	,	88614	,	-23098	,	-20960	,	-7.5799775	,	0
26,38	,	88630	,	-23111	,	-20972	,	-7.7159424	,	0
26,38	,	88661	,	-23115	,	-20978	,	-7.6882963	,	0
26,38	,	88678	,	-23106	,	-20978	,	-7.6686563	,	0
26,38	,	88709	,	-23096	,	-20972	,	-7.569995	,	0
26,38	,	88725	,	-23092	,	-20967	,	-7.050147	,	0
26,38	,	88741	,	-23083	,	-20972	,	-5.810327	,	0
26,38	,	88773	,	-23074	,	-20965	,	-3.724967	,	1
26,38	,	88790	,	-23064	,	-20965	,	-0.7998736	,	3
26,38	,	88805	,	-23070	,	-20959	,	2.78056	,	5
26,38	,	88838	,	-23063	,	-20982	,	6.5807343	,	8
26,38	,	88854	,	-23064	,	-20944	,	10.064853	,	11
26,38	,	88870	,	-23058	,	-20959	,	12.829961	,	14
26,38	,	88902	,	-23052	,	-20959	,	14.707245	,	16
26,38	,	88918	,	-23044	,	-20954	,	15.772997	,	17
26,38	,	88949	,	-23047	,	-20956	,	16.225683	,	18
26,38	,	88965	,	-23045	,	-20946	,	16.184818	,	17
26,38	,	88981	,	-23046	,	-20954	,	15.658662	,	15
26,38	,	89014	,	-23044	,	-20948	,	14.658129	,	13
26,38	,	89030	,	-23045	,	-20952	,	13.249732	,	10
26,38	,	89046	,	-23043	,	-20947	,	11.543935	,	7
26,38	,	89077	,	-23033	,	-20961	,	9.734979	,	4
26,38	,	89093	,	-23024	,	-20932	,	8.153757	,	2
26,38	,	89125	,	-23036	,	-20942	,	7.0881767	,	1
26,38	,	89141	,	-23034	,	-20942	,	6.4970374	,	0
26,38	,	89157	,	-23038	,	-20940	,	6.0883145	,	0
26,38	,	89189	,	-23037	,	-20947	,	5.607313	,	0
26,38	,	89205	,	-23038	,	-20941	,	4.9422617	,	0
26,38	,	89221	,	-23052	,	-20948	,	4.027157	,	0
26,38	,	89253	,	-23035	,	-20950	,	2.8068216	,	0
26,38	,	89270	,	-23041	,	-20950	,	1.4184923	,	0
26,38	,	89286	,	-23043	,	-20947	,	0.13286531	,	0
26,38	,	89317	,	-23030	,	-20958	,	-0.85844505	,	0
26,38	,	89333	,	-23050	,	-20938	,	-1.4629717	,	0
26,38	,	89365	,	-23045	,	-20955	,	-1.7792387	,	0
26,38	,	89381	,	-23052	,	-20946	,	-2.0456111	,	0
26,38	,	89397	,	-23039	,	-20952	,	-2.363284	,	0
26,38	,	89429	,	-23045	,	-20965	,	-2.6200314	,	0
26,38	,	89445	,	-23059	,	-20954	,	-2.74612	,	0
26,38	,	89461	,	-23045	,	-20958	,	-2.8695471	,	0
26,38	,	89493	,	-23046	,	-20958	,	-3.032043	,	0
26,38	,	89509	,	-23060	,	-20960	,	-3.145535	,	0
26,38	,	89541	,	-23056	,	-20954	,	-3.2772965	,	0
26,38	,	89557	,	-23055	,	-20974	,	-3.5315328	,	0
26,38	,	89573	,	-23060	,	-20952	,	-3.854412	,	0
26,38	,	89605	,	-23057	,	-20962	,	-4.1479864	,	0
26,39	,	89621	,	-23058	,	-20965	,	-4.336611	,	0
26,39	,	89637	,	-23072	,	-20960	,	-4.4210052	,	0
26,39	,	89669	,	-23070	,	-20963	,	-4.559682	,	0
26,39	,	89685	,	-23076	,	-20971	,	-4.9216213	,	0
26,39	,	89701	,	-23077	,	-20961	,	-5.5370717	,	0
26,39	,	89733	,	-23072	,	-20966	,	-6.293428	,	0
26,39	,	89749	,	-23073	,	-20963	,	-6.9505253	,	0
26,39	,	89781	,	-23045	,	-20954	,	-7.1399107	,	0
26,39	,	89797	,	-23055	,	-20961	,	-6.4280214	,	0
26,39	,	89813	,	-23030	,	-20943	,	-4.5574837	,	0
26,39	,	89845	,	-23036	,	-20941	,	-1.568037	,	1
26,39	,	89861	,	-23022	,	-20936	,	2.263382	,	3
26,39	,	89877	,	-23028	,	-20941	,	6.467166	,	6
26,39	,	89909	,	-23025	,	-20941	,	10.467354	,	10
26,39	,	89925	,	-23021	,	-20937	,	13.736202	,	14
26,39	,	89957	,	-23011	,	-20937	,	16.00534	,	17
26,39	,	89973	,	-23008	,	-20938	,	17.328712	,	19
26,39	,	89989	,	-23021	,	-20937	,	17.832119	,	20
26,39	,	90021	,	-23018	,	-20943	,	17.474602	,	20
26,39	,	90038	,	-23018	,	-20940	,	16.191103	,	19
26,39	,	90053	,	-23013	,	-20930	,	14.137788	,	17
26,39	,	90085	,	-23009	,	-20928	,	11.685739	,	14
26,39	,	90101	,	-22996	,	-20933	,	9.321863	,	10
26,39	,	90117	,	-22990	,	-20936	,	7.5580163	,	6
26,39	,	90149	,	-23005	,	-20930	,	6.6685033	,	3
26,39	,	90165	,	-23002	,	-20940	,	6.4439282	,	1
26,39	,	90197	,	-23006	,	-20938	,	6.407943	,	0
26,39	,	90213	,	-23002	,	-20935	,	6.2137566	,	0
26,39	,	90229	,	-23002	,	-20935	,	5.753954	,	0
26,39	,	90261	,	-23005	,	-20930	,	5.062468	,	0
26,39	,	90277	,	-23001	,	-20941	,	4.213917	,	0
26,39	,	90293	,	-23000	,	-20918	,	3.313291	,	0
26,39	,	90325	,	-23004	,	-20940	,	2.4674664	,	0
26,39	,	90341	,	-23006	,	-20939	,	1.7011591	,	0
26,39	,	90373	,	-23005	,	-20938	,	0.97883415	,	0
26,39	,	90389	,	-23013	,	-20934	,	0.26487327	,	0
26,39	,	90405	,	-23027	,	-20935	,	-0.5656802	,	0
26,39	,	90437	,	-23023	,	-20944	,	-1.7328722	,	0
26,39	,	90453	,	-23021	,	-20946	,	-3.2729344	,	0
26,39	,	90469	,	-23011	,	-20947	,	-4.8674207	,	0
26,39	,	90501	,	-23021	,	-20950	,	-6.0728054	,	0
26,39	,	90517	,	-23029	,	-20942	,	-6.7104964	,	0
26,39	,	90533	,	-23032	,	-20939	,	-6.965225	,	0
26,39	,	90565	,	-23032	,	-20950	,	-7.102232	,	0
26,39	,	90581	,	-23030	,	-20951	,	-7.214134	,	0
26,39	,	90613	,	-23040	,	-20951	,	-7.2733784	,	0
26,40	,	90629	,	-23040	,	-20949	,	-7.307399	,	0
26,40	,	90645	,	-23043	,	-20950	,	-7.389394	,	0
26,40	,	90677	,	-23042	,	-20950	,	-7.5229826	,	0
26,40	,	90693	,	-23064	,	-20944	,	-7.7293863	,	0
26,40	,	90709	,	-23051	,	-20955	,	-8.135179	,	0
26,40	,	90741	,	-23062	,	-20956	,	-8.772284	,	0
26,40	,	90757	,	-23062	,	-20963	,	-9.509257	,	0
26,40	,	90789	,	-23060	,	-20961	,	-10.1900425	,	0
26,40	,	90805	,	-23049	,	-20953	,	-10.582716	,	0
26,40	,	90821	,	-23025	,	-20948	,	-10.247763	,	0
26,40	,	90853	,	-23025	,	-20933	,	-8.656204	,	0
26,40	,	90869	,	-23020	,	-20943	,	-5.6085386	,	1
26,40	,	90885	,	-23014	,	-20940	,	-1.4269419	,	4
26,40	,	90917	,	-23013	,	-20933	,	3.2929745	,	8
26,40	,	90933	,	-23022	,	-20935	,	7.857224	,	12
26,40	,	90949	,	-23013	,	-20937	,	11.576422	,	16
26,40	,	90981	,	-23014	,	-20947	,	14.023976	,	19
26,40	,	90997	,	-23017	,	-20939	,	15.111859	,	21
26,40	,	91029	,	-23021	,	-20952	,	14.90732	,	22
26,40	,	91045	,	-23020	,	-20944	,	13.558521	,	22
26,40	,	91061	,	-23015	,	-20939	,	11.368496	,	21
26,40	,	91092	,	-23019	,	-20937	,	8.7708645	,	18
26,40	,	91109	,	-23016	,	-20945	,	6.164851	,	14
26,40	,	91125	,	-23020	,	-20939	,	3.8141518	,	10
26,40	,	91157	,	-23007	,	-20943	,	1.9096746	,	6
26,40	,	91173	,	-23000	,	-20936	,	0.6902826	,	3
26,40	,	91204	,	-23012	,	-20940	,	0.32831967	,	1
26,40	,	91221	,	-23014	,	-20943	,	0.6449403	,	0
26,40	,	91237	,	-23016	,	-20943	,	1.1885788	,	0
26,40	,	91268	,	-23006	,	-20956	,	1.6241	,	0
26,40	,	91285	,	-23018	,	-20934	,	1.863693	,	0
26,40	,	91301	,	-23025	,	-20940	,	1.8255377	,	0
26,40	,	91333	,	-23014	,	-20949	,	1.3806179	,	0
26,40	,	91349	,	-23031	,	-20940	,	0.5386212	,	0
26,40	,	91364	,	-23025	,	-20949	,	-0.6159664	,	0
26,40	,	91396	,	-23026	,	-20950	,	-1.9667767	,	0
26,40	,	91413	,	-23038	,	-20955	,	-3.3449244	,	0
26,40	,	91445	,	-23029	,	-20950	,	-4.6418247	,	0
26,40	,	91461	,	-23036	,	-20955	,	-5.7626863	,	0
26,40	,	91477	,	-23029	,	-20951	,	-6.571247	,	0
26,40	,	91509	,	-23044	,	-20963	,	-7.0102468	,	0
26,40	,	91524	,	-23042	,	-20950	,	-7.188582	,	0
26,40	,	91540	,	-23035	,	-20954	,	-7.2302465	,	0
26,40	,	91572	,	-23044	,	-20964	,	-7.1122513	,	0
26,40	,	91588	,	-23044	,	-20958	,	-6.8138847	,	0
26,41	,	91621	,	-23050	,	-20962	,	-6.4358883	,	0
26,41	,	91637	,	-23055	,	-20967	,	-6.1307526	,	0
26,41	,	91652	,	-23068	,	-20963	,	-6.0925536	,	0
26,41	,	91684	,	-23058	,	-20961	,	-6.4747276	,	0
26,41	,	91700	,	-23061	,	-20964	,	-7.1779547	,	0
26,41	,	91716	,	-23064	,	-20965	,	-7.9094477	,	0
26,41	,	91748	,	-23060	,	-20984	,	-8.431702	,	0
26,41	,	91764	,	-23062	,	-20954	,	-8.594254	,	0
26,41	,	91796	,	-23039	,	-20962	,	-8.212982	,	0
26,41	,	91812	,	-23037	,	-20962	,	-7.00425	,	0
26,41	,	91828	,	-23025	,	-20957	,	-4.7440705	,	1
26,41	,	91860	,	-23021	,	-20948	,	-1.4688079	,	3
26,41	,	91876	,	-23019	,	-20948	,	2.5159302	,	6
26,41	,	91893	,	-23030	,	-20956	,	6.6444597	,	9
26,41	,	91924	,	-23015	,	-20948	,	10.240676	,	13
26,41	,	91940	,	-23017	,	-20948	,	12.880125	,	16
26,41	,	91956	,	-23024	,	-20955	,	14.435345	,	18
26,41	,	91988	,	-23013	,	-20967	,	14.888427	,	19
26,41	,	92004	,	-23012	,	-20943	,	14.39777	,	19
26,41	,	92036	,	-23020	,	-20952	,	13.254259	,	18
26,41	,	92052	,	-23012	,	-20945	,	11.670013	,	16
26,41	,	92068	,	-23018	,	-20945	,	9.812189	,	13
26,41	,	92100	,	-23016	,	-20944	,	7.850063	,	10
26,41	,	92116	,	-23017	,	-20940	,	5.9088635	,	6
26,41	,	92132	,	-23007	,	-20944	,	4.141131	,	3
26,41	,	92164	,	-23013	,	-20945	,	2.7445145	,	1
26,41	,	92180	,	-23013	,	-20949	,	1.79777	,	0
26,41	,	92212	,	-23009	,	-20943	,	1.2263887	,	0
26,41	,	92228	,	-23017	,	-20956	,	0.92515016	,	0
26,41	,	92244	,	-23012	,	-20937	,	0.77434695	,	0
26,41	,	92276	,	-23012	,	-20950	,	0.6728421	,	0
26,41	,	92292	,	-23019	,	-20948	,	0.56774676	,	0
26,41	,	92308	,	-23016	,	-20950	,	0.38683382	,	0
26,41	,	92340	,	-23018	,	-20954	,	0.08341628	,	0
26,41	,	92356	,	-23030	,	-20952	,	-0.3647641	,	0
26,41	,	92372	,	-23019	,	-20953	,	-1.0149138	,	0
26,41	,	92404	,	-23032	,	-20946	,	-1.8570217	,	0
26,41	,	92420	,	-23036	,	-20949	,	-2.848809	,	0
26,41	,	92452	,	-23032	,	-20945	,	-3.981316	,	0
26,41	,	92468	,	-23031	,	-20959	,	-5.120353	,	0
26,41	,	92484	,	-23037	,	-20944	,	-6.03962	,	0
26,41	,	92516	,	-23039	,	-20952	,	-6.642311	,	0
26,41	,	92532	,	-23044	,	-20957	,	-6.993537	,	0
26,41	,	92548	,	-23045	,	-20954	,	-7.2130547	,	0
26,41	,	92580	,	-23054	,	-20966	,	-7.415439	,	0
26,41	,	92596	,	-23063	,	-20964	,	-7.7453427	,	0
26,42	,	92628	,	-23052	,	-20961	,	-8.301091	,	0
26,42	,	92644	,	-23056	,	-20959	,	-8.938515	,	0
26,42	,	92660	,	-23066	,	-20960	,	-9.418158	,	0
26,42	,	92692	,	-23063	,	-20962	,	-9.68969	,	0
26,42	,	92708	,	-23068	,	-20971	,	-9.799825	,	0
26,42	,	92724	,	-23082	,	-20952	,	-9.819839	,	0
26,42	,	92756	,	-23065	,	-20963	,	-9.854788	,	0
26,42	,	92772	,	-23054	,	-20965	,	-9.758951	,	0
26,42	,	92788	,	-23049	,	-20952	,	-9.081697	,	0
26,42	,	92820	,	-23033	,	-20957	,	-7.4220023	,	0
26,42	,	92836	,	-23046	,	-20953	,	-4.69427	,	1
26,42	,	92868	,	-23035	,	-20952	,	-1.2209301	,	3
26,42	,	92884	,	-23037	,	-20951	,	2.4521775	,	6
26,42	,	92900	,	-23044	,	-20948	,	5.797559	,	9
26,42	,	92932	,	-23032	,	-20953	,	8.386421	,	12
26,42	,	92948	,	-23020	,	-20952	,	10.108408	,	14
26,42	,	92964	,	-23025	,	-20945	,	11.1926155	,	15
26,42	,	92996	,	-23021	,	-20954	,	11.8443575	,	16
26,42	,	93012	,	-23027	,	-20949	,	12.079444	,	16
26,42	,	93044	,	-23035	,	-20956	,	11.780129	,	15
26,42	,	93060	,	-23023	,	-20945	,	10.827845	,	13
26,42	,	93076	,	-23022	,	-20951	,	9.344416	,	10
26,42	,	93108	,	-23020	,	-20946	,	7.676978	,	7
26,42	,	93124	,	-23013	,	-20947	,	6.1710157	,	4
26,42	,	93140	,	-23020	,	-20947	,	5.044648	,	2
26,42	,	93172	,	-23020	,	-20946	,	4.29342	,	1
26,42	,	93188	,	-23017	,	-20956	,	3.75729	,	0
26,42	,	93204	,	-23022	,	-20949	,	3.3090246	,	0
26,42	,	93236	,	-23023	,	-20952	,	2.861641	,	0
26,42	,	93252	,	-23028	,	-20949	,	2.3149464	,	0
26,42	,	93284	,	-23029	,	-20950	,	1.5842913	,	0
26,42	,	93300	,	-23020	,	-20947	,	0.6912484	,	0
26,42	,	93316	,	-23025	,	-20952	,	-0.19108188	,	0
26,42	,	93348	,	-23028	,	-20949	,	-0.90243834	,	0
26,42	,	93364	,	-23024	,	-20955	,	-1.4187485	,	0
26,42	,	93380	,	-23038	,	-20956	,	-1.8068668	,	0
26,42	,	93412	,	-23024	,	-20953	,	-2.1679528	,	0
26,42	,	93428	,	-23021	,	-20959	,	-2.4640293	,	0
26,42	,	93460	,	-23040	,	-20944	,	-2.5692754	,	0
26,42	,	93476	,	-23042	,	-20952	,	-2.6213577	,	0
26,42	,	93492	,	-23046	,	-20957	,	-2.9401464	,	0
26,42	,	93524	,	-23042	,	-20952	,	-3.6442623	,	0
26,42	,	93540	,	-23043	,	-20948	,	-4.569063	,	0
26,42	,	93556	,	-23050	,	-20959	,	-5.4769373	,	0
26,42	,	93587	,	-23054	,	-20965	,	-6.277361	,	0
26,42	,	93603	,	-23044	,	-20958	,	-6.954589	,	0
26,43	,	93620	,	-23054	,	-20963	,	-7.402913	,	0
26,43	,	93652	,	-23061	,	-20963	,	-7.5781407	,	0
26,43	,	93668	,	-23062	,	-20961	,	-7.63033	,	0
26,43	,	93700	,	-23061	,	-20960	,	-7.707342	,	0
26,43	,	93716	,	-23057	,	-20966	,	-7.7756205	,	0
26,43	,	93731	,	-23062	,	-20959	,	-7.6898303	,	0
26,43	,	93763	,	-23067	,	-20964	,	-7.393836	,	0
26,43	,	93779	,	-23063	,	-20966	,	-6.9672737	,	0
26,43	,	93796	,	-23064	,	-20967	,	-6.468277	,	0
26,43	,	93828	,	-23059	,	-20962	,	-5.860683	,	0
26,43	,	93844	,	-23046	,	-20957	,	-5.012315	,	0
26,43	,	93876	,	-23048	,	-20963	,	-3.7274003	,	0
26,43	,	93892	,	-23052	,	-20962	,	-1.9750514	,	1
26,43	,	93907	,	-23032	,	-20958	,	0.07127571	,	2
26,43	,	93939	,	-23040	,	-20961	,	2.2847161	,	4
26,43	,	93955	,	-23038	,	-20956	,	4.529534	,	6
26,43	,	93971	,	-23041	,	-20957	,	6.503907	,	8
26,43	,	94004	,	-23037	,	-20960	,	7.9064	,	9
26,43	,	94020	,	-23033	,	-20956	,	8.6361065	,	10
26,43	,	94051	,	-23032	,	-20966	,	8.796282	,	10
26,43	,	94068	,	-23044	,	-20960	,	8.502923	,	10
26,43	,	94083	,	-23035	,	-20958	,	7.760626	,	9
26,43	,	94115	,	-23047	,	-20956	,	6.575348	,	8
26,43	,	94131	,	-23028	,	-20958	,	5.084546	,	6
26,43	,	94147	,	-23034	,	-20956	,	3.5929976	,	4
26,43	,	94179	,	-23028	,	-20956	,	2.423942	,	2
26,43	,	94196	,	-23040	,	-20952	,	1.6819639	,	1
26,43	,	94211	,	-23031	,	-20954	,	1.2528757	,	0
26,43	,	94243	,	-23046	,	-20958	,	0.9522259	,	0
26,43	,	94259	,	-23028	,	-20953	,	0.6440163	,	0
26,43	,	94291	,	-23033	,	-20960	,	0.35873324	,	0
26,43	,	94307	,	-23037	,	-20953	,	0.20256278	,	0
26,43	,	94323	,	-23044	,	-20957	,	0.117800325	,	0
26,43	,	94355	,	-23045	,	-20954	,	-0.09452398	,	0
26,43	,	94371	,	-23038	,	-20956	,	-0.54403275	,	0
26,43	,	94387	,	-23042	,	-20959	,	-1.1367402	,	0
26,43	,	94419	,	-23046	,	-20960	,	-1.7184055	,	0
26,43	,	94435	,	-23054	,	-20952	,	-2.277684	,	0
26,43	,	94467	,	-23046	,	-20961	,	-2.8918447	,	0
26,43	,	94483	,	-23055	,	-20957	,	-3.5499449	,	0
26,43	,	94499	,	-23060	,	-20953	,	-4.214234	,	0
26,43	,	94531	,	-23061	,	-20958	,	-4.930775	,	0
26,43	,	94547	,	-23071	,	-20961	,	-5.7612963	,	0
26,43	,	94563	,	-23074	,	-20965	,	-6.7541046	,	0
26,43	,	94595	,	-23066	,	-20970	,	-7.869151	,	0
26,43	,	94611	,	-23070	,	-20963	,	-8.871082	,	0
26,44	,	94627	,	-23068	,	-20977	,	-9.474491	,	0
26,44	,	94659	,	-23074	,	-20970	,	-9.551506	,	0
26,44	,	94675	,	-23077	,	-20962	,	-9.1819725	,	0
26,44	,	94707	,	-23080	,	-20973	,	-8.578695	,	0
26,44	,	94723	,	-23094	,	-20974	,	-8.007076	,	0
26,44	,	94739	,	-23073	,	-20965	,	-7.659019	,	0
26,44	,	94771	,	-23073	,	-20965	,	-7.406734	,	0
26,44	,	94787	,	-23053	,	-20965	,	-6.8059044	,	0
26,44	,	94803	,	-23063	,	-20964	,	-5.447796	,	0
26,44	,	94835	,	-23057	,	-20962	,	-3.2908678	,	1
26,44	,	94851	,	-23055	,	-20963	,	-0.64107823	,	3
26,44	,	94883	,	-23052	,	-20963	,	2.1300874	,	5
26,44	,	94899	,	-23057	,	-20974	,	4.6879864	,	7
26,44	,	94915	,	-23058	,	-20954	,	6.6931357	,	9
26,44	,	94947	,	-23048	,	-20960	,	7.9292645	,	11
26,44	,	94963	,	-23066	,	-20962	,	8.380998	,	12
26,44	,	94979	,	-23064	,	-20961	,	8.041517	,	12
26,44	,	95011	,	-23057	,	-20965	,	6.935008	,	12
26,44	,	95027	,	-23058	,	-20963	,	5.333361	,	11
26,44	,	95043	,	-23047	,	-20955	,	3.6717904	,	9
