Data recorded on Wed Jul 26 15-20-27 CAT 2017
Time: 15:21:15
Time		Millis		IR PPG		Red PPG		Filtered		SSF
21,24	,	97499	,	-27559	,	-25342	,	-27.515635	,	0
21,24	,	97531	,	-27573	,	-25317	,	-26.353725	,	0
21,24	,	97547	,	-27579	,	-25326	,	-23.756044	,	1
21,24	,	97563	,	-27592	,	-25343	,	-20.853464	,	3
21,24	,	97595	,	-27592	,	-25334	,	-18.43621	,	5
21,24	,	97611	,	-27582	,	-25317	,	-16.768545	,	7
21,24	,	97643	,	-27588	,	-25338	,	-15.602622	,	8
21,24	,	97659	,	-27571	,	-25340	,	-14.489366	,	9
21,24	,	97675	,	-27579	,	-25328	,	-13.036586	,	10
21,24	,	97707	,	-27592	,	-25346	,	-11.149007	,	11
21,24	,	97723	,	-27598	,	-25387	,	-9.184191	,	12
21,24	,	97739	,	-27591	,	-25410	,	-7.603065	,	12
21,24	,	97771	,	-27595	,	-25381	,	-6.546224	,	11
21,24	,	97787	,	-27584	,	-25394	,	-5.8484917	,	10
21,24	,	97803	,	-27594	,	-25394	,	-5.2608175	,	8
21,24	,	97835	,	-27582	,	-25385	,	-4.6067715	,	7
21,24	,	97851	,	-27566	,	-25359	,	-3.691945	,	6
21,24	,	97883	,	-27558	,	-25311	,	-2.1784527	,	5
21,24	,	97899	,	-27538	,	-25308	,	0.26584506	,	5
21,24	,	97915	,	-27542	,	-25278	,	3.7407742	,	6
21,24	,	97946	,	-27535	,	-25297	,	7.956315	,	8
21,24	,	97963	,	-27534	,	-25320	,	12.306905	,	11
21,24	,	97979	,	-27547	,	-25306	,	16.094196	,	14
21,24	,	98011	,	-27549	,	-25315	,	18.624546	,	17
21,24	,	98027	,	-27554	,	-25309	,	19.388565	,	19
21,24	,	98059	,	-27556	,	-25316	,	18.269567	,	19
21,24	,	98075	,	-27558	,	-25333	,	15.53275	,	19
21,24	,	98091	,	-27566	,	-25348	,	11.664138	,	18
21,24	,	98123	,	-27569	,	-25347	,	7.1755915	,	16
21,24	,	98139	,	-27589	,	-25402	,	2.4407945	,	13
21,24	,	98155	,	-27618	,	-25432	,	-2.4945607	,	9
21,24	,	98187	,	-27631	,	-25453	,	-7.904893	,	5
21,24	,	98203	,	-27642	,	-25476	,	-13.966427	,	2
21,24	,	98219	,	-27659	,	-25505	,	-20.467205	,	0
21,24	,	98251	,	-27661	,	-25492	,	-26.919388	,	0
21,24	,	98266	,	-27681	,	-25508	,	-32.758194	,	0
21,24	,	98299	,	-27691	,	-25519	,	-37.564888	,	0
21,24	,	98315	,	-27688	,	-25534	,	-41.09811	,	0
21,24	,	98331	,	-27703	,	-25549	,	-43.149952	,	0
21,24	,	98363	,	-27707	,	-25555	,	-43.65442	,	0
21,24	,	98379	,	-27717	,	-25571	,	-42.80168	,	0
21,24	,	98395	,	-27716	,	-25577	,	-40.89096	,	0
21,24	,	98426	,	-27711	,	-25603	,	-38.12964	,	1
21,24	,	98442	,	-27725	,	-25609	,	-34.63514	,	3
21,24	,	98475	,	-27750	,	-25619	,	-30.770567	,	6
21,24	,	98491	,	-27741	,	-25600	,	-27.1997	,	9
21,25	,	98507	,	-27723	,	-25601	,	-24.244257	,	12
21,25	,	98539	,	-27716	,	-25599	,	-21.508608	,	14
21,25	,	98555	,	-27706	,	-25588	,	-18.341822	,	16
21,25	,	98571	,	-27690	,	-25574	,	-14.302301	,	19
21,25	,	98602	,	-27684	,	-25567	,	-9.227011	,	23
21,25	,	98618	,	-27688	,	-25560	,	-3.3239098	,	27
21,25	,	98651	,	-27685	,	-25569	,	2.7791247	,	30
21,25	,	98667	,	-27657	,	-25545	,	8.435015	,	33
21,25	,	98683	,	-27642	,	-25534	,	13.487385	,	35
21,25	,	98714	,	-27653	,	-25532	,	18.060167	,	37
21,25	,	98730	,	-27635	,	-25499	,	22.029955	,	39
21,25	,	98746	,	-27633	,	-25510	,	25.139362	,	40
21,25	,	98778	,	-27640	,	-25506	,	27.212944	,	40
21,25	,	98794	,	-27624	,	-25507	,	28.100891	,	38
21,25	,	98810	,	-27623	,	-25482	,	27.836264	,	33
21,25	,	98843	,	-27614	,	-25473	,	26.70439	,	28
21,25	,	98859	,	-27629	,	-25484	,	24.975979	,	22
21,25	,	98890	,	-27638	,	-25487	,	22.650179	,	17
21,25	,	98907	,	-27641	,	-25502	,	19.527119	,	12
21,25	,	98923	,	-27648	,	-25510	,	15.531643	,	8
21,25	,	98955	,	-27649	,	-25516	,	10.851594	,	5
21,25	,	98970	,	-27656	,	-25511	,	5.842642	,	2
21,25	,	98986	,	-27665	,	-25512	,	0.86345625	,	0
21,25	,	99018	,	-27672	,	-25513	,	-3.8532515	,	0
21,25	,	99035	,	-27677	,	-25505	,	-8.166765	,	0
21,25	,	99066	,	-27689	,	-25514	,	-11.97273	,	0
21,25	,	99082	,	-27677	,	-25522	,	-15.14941	,	0
21,25	,	99098	,	-27687	,	-25523	,	-17.470676	,	0
21,25	,	99130	,	-27694	,	-25531	,	-18.777672	,	0
21,25	,	99146	,	-27702	,	-25543	,	-19.204811	,	0
21,25	,	99162	,	-27709	,	-25545	,	-19.076859	,	0
21,25	,	99194	,	-27727	,	-25555	,	-18.775192	,	0
21,25	,	99210	,	-27722	,	-25535	,	-18.649479	,	0
21,25	,	99226	,	-27732	,	-25534	,	-18.822441	,	0
21,25	,	99258	,	-27715	,	-25523	,	-19.095352	,	0
21,25	,	99274	,	-27724	,	-25537	,	-19.060566	,	0
21,25	,	99306	,	-27737	,	-25538	,	-18.455746	,	0
21,25	,	99323	,	-27744	,	-25553	,	-17.454647	,	0
21,25	,	99339	,	-27744	,	-25545	,	-16.43409	,	1
21,25	,	99370	,	-27734	,	-25539	,	-15.53643	,	2
21,25	,	99386	,	-27729	,	-25536	,	-14.539896	,	2
21,25	,	99402	,	-27702	,	-25518	,	-12.975815	,	2
21,25	,	99434	,	-27723	,	-25533	,	-10.434219	,	3
21,25	,	99450	,	-27708	,	-25494	,	-6.971347	,	5
21,25	,	99482	,	-27688	,	-25453	,	-2.9336395	,	8
21,26	,	99498	,	-27660	,	-25424	,	1.6358461	,	12
21,26	,	99514	,	-27655	,	-25399	,	6.9576807	,	16
21,26	,	99546	,	-27654	,	-25399	,	12.945252	,	20
21,26	,	99562	,	-27658	,	-25382	,	18.943808	,	24
21,26	,	99578	,	-27671	,	-25414	,	23.958298	,	29
21,26	,	99610	,	-27678	,	-25388	,	27.00842	,	34
21,26	,	99626	,	-27674	,	-25397	,	27.505976	,	36
21,26	,	99642	,	-27658	,	-25386	,	25.606974	,	34
21,26	,	99674	,	-27664	,	-25396	,	22.121494	,	31
21,26	,	99690	,	-27666	,	-25350	,	17.937935	,	27
21,26	,	99722	,	-27661	,	-25379	,	13.6624	,	23
21,26	,	99738	,	-27675	,	-25386	,	9.656873	,	18
21,26	,	99754	,	-27672	,	-25411	,	6.0658245	,	13
21,26	,	99786	,	-27691	,	-25410	,	2.8370833	,	8
21,26	,	99802	,	-27689	,	-25424	,	-0.19677925	,	3
21,26	,	99818	,	-27700	,	-25425	,	-3.1818004	,	0
21,26	,	99850	,	-27695	,	-25427	,	-6.1010394	,	0
21,26	,	99866	,	-27707	,	-25430	,	-8.795086	,	0
21,26	,	99898	,	-27696	,	-25427	,	-11.050894	,	0
21,26	,	99914	,	-27706	,	-25456	,	-12.642744	,	0
21,26	,	99930	,	-27703	,	-25419	,	-13.433586	,	0
21,26	,	99962	,	-27724	,	-25432	,	-13.530829	,	0
21,26	,	99978	,	-27733	,	-25435	,	-13.349564	,	0
21,26	,	99994	,	-27719	,	-25428	,	-13.316652	,	0
21,26	,	100026	,	-27734	,	-25438	,	-13.483712	,	0
21,26	,	100042	,	-27733	,	-25429	,	-13.694132	,	0
21,26	,	100058	,	-27729	,	-25428	,	-13.81966	,	0
21,26	,	100090	,	-27730	,	-25427	,	-13.672964	,	0
21,26	,	100106	,	-27730	,	-25425	,	-13.068146	,	0
21,26	,	100138	,	-27718	,	-25420	,	-11.903885	,	0
21,26	,	100154	,	-27758	,	-25426	,	-10.288689	,	1
21,26	,	100170	,	-27727	,	-25392	,	-8.653007	,	2
21,26	,	100202	,	-27709	,	-25372	,	-7.172766	,	3
21,26	,	100218	,	-27710	,	-25365	,	-5.4120936	,	4
21,26	,	100234	,	-27709	,	-25363	,	-3.0019083	,	5
21,26	,	100266	,	-27706	,	-25369	,	-0.07279873	,	7
21,26	,	100282	,	-27697	,	-25363	,	3.0376635	,	9
21,26	,	100314	,	-27705	,	-25354	,	6.0104165	,	12
21,26	,	100330	,	-27706	,	-25358	,	8.483893	,	14
21,26	,	100346	,	-27689	,	-25332	,	10.175849	,	15
21,26	,	100378	,	-27690	,	-25304	,	11.149144	,	15
21,26	,	100394	,	-27697	,	-25326	,	11.611134	,	14
21,26	,	100410	,	-27696	,	-25301	,	11.572004	,	13
21,26	,	100442	,	-27676	,	-25269	,	11.047714	,	12
21,26	,	100458	,	-27669	,	-25229	,	10.3910885	,	10
21,26	,	100474	,	-27646	,	-25229	,	10.183752	,	8
21,27	,	100506	,	-27628	,	-25183	,	10.992897	,	5
21,27	,	100522	,	-27619	,	-25135	,	13.179923	,	3
21,27	,	100553	,	-27602	,	-25096	,	16.71687	,	3
21,27	,	100570	,	-27585	,	-25071	,	21.270485	,	5
21,27	,	100586	,	-27563	,	-25032	,	26.462067	,	9
21,27	,	100618	,	-27553	,	-25003	,	31.949726	,	14
21,27	,	100634	,	-27543	,	-24982	,	37.31617	,	19
21,27	,	100650	,	-27545	,	-24933	,	41.9787	,	24
21,27	,	100682	,	-27531	,	-24923	,	45.318504	,	28
21,27	,	100698	,	-27535	,	-24913	,	46.92304	,	31
21,27	,	100729	,	-27547	,	-24904	,	46.56373	,	32
21,27	,	100746	,	-27539	,	-24901	,	44.101074	,	30
21,27	,	100761	,	-27551	,	-24888	,	39.65065	,	27
21,27	,	100794	,	-27543	,	-24880	,	33.65059	,	23
21,27	,	100810	,	-27546	,	-24887	,	26.756218	,	18
21,27	,	100826	,	-27556	,	-24881	,	19.653868	,	13
21,27	,	100858	,	-27560	,	-24874	,	12.810516	,	8
21,27	,	100874	,	-27549	,	-24880	,	6.5489244	,	4
21,27	,	100905	,	-27554	,	-24865	,	1.2672501	,	1
21,27	,	100922	,	-27552	,	-24862	,	-2.6904273	,	0
21,27	,	100938	,	-27550	,	-24858	,	-5.217267	,	0
21,27	,	100970	,	-27540	,	-24870	,	-6.3486524	,	0
21,27	,	100986	,	-27539	,	-24867	,	-6.1523213	,	0
21,27	,	101002	,	-27550	,	-24872	,	-4.8594112	,	0
21,27	,	101034	,	-27544	,	-24871	,	-2.9673986	,	1
21,27	,	101050	,	-27539	,	-24869	,	-0.97960615	,	2
21,27	,	101066	,	-27552	,	-24877	,	0.7888646	,	3
21,27	,	101097	,	-27551	,	-24900	,	2.0677714	,	4
21,27	,	101114	,	-27571	,	-24931	,	2.5551808	,	5
21,27	,	101146	,	-27572	,	-24927	,	1.9809034	,	5
21,27	,	101162	,	-27589	,	-24953	,	0.20724857	,	5
21,27	,	101178	,	-27601	,	-24953	,	-2.7381377	,	5
21,27	,	101210	,	-27592	,	-24951	,	-6.6137376	,	5
21,27	,	101226	,	-27598	,	-24958	,	-10.82995	,	4
21,27	,	101241	,	-27597	,	-24954	,	-14.631571	,	3
21,27	,	101273	,	-27579	,	-24947	,	-17.350784	,	2
21,27	,	101290	,	-27577	,	-24947	,	-18.41397	,	1
21,27	,	101322	,	-27596	,	-24953	,	-17.625122	,	0
21,27	,	101338	,	-27585	,	-24948	,	-15.421863	,	0
21,27	,	101354	,	-27587	,	-24960	,	-12.4670315	,	2
21,27	,	101385	,	-27594	,	-24928	,	-9.281551	,	4
21,27	,	101401	,	-27586	,	-24935	,	-6.2902822	,	7
21,27	,	101417	,	-27599	,	-24931	,	-3.8094587	,	9
21,27	,	101449	,	-27601	,	-24933	,	-2.0611615	,	11
21,27	,	101465	,	-27597	,	-24926	,	-1.1643252	,	12
21,27	,	101482	,	-27598	,	-24937	,	-0.99849355	,	12
21,28	,	101514	,	-27598	,	-24922	,	-1.2769313	,	12
21,28	,	101530	,	-27605	,	-24918	,	-1.7699226	,	12
21,28	,	101561	,	-27606	,	-24919	,	-2.3886952	,	10
21,28	,	101577	,	-27604	,	-24909	,	-3.0834978	,	8
21,28	,	101593	,	-27609	,	-24916	,	-3.7531288	,	5
21,28	,	101625	,	-27604	,	-24895	,	-4.2908854	,	3
21,28	,	101642	,	-27589	,	-24901	,	-4.530328	,	1
21,28	,	101657	,	-27584	,	-24908	,	-4.1570697	,	0
21,28	,	101690	,	-27569	,	-24889	,	-2.8571763	,	0
21,28	,	101706	,	-27573	,	-24889	,	-0.53780794	,	1
21,28	,	101737	,	-27571	,	-24882	,	2.5439668	,	3
21,28	,	101753	,	-27566	,	-24876	,	5.8706694	,	6
21,28	,	101769	,	-27562	,	-24879	,	8.962315	,	9
21,28	,	101801	,	-27560	,	-24875	,	11.523599	,	12
21,28	,	101817	,	-27558	,	-24877	,	13.385873	,	14
21,28	,	101833	,	-27555	,	-24892	,	14.468153	,	15
21,28	,	101866	,	-27563	,	-24869	,	14.745747	,	16
21,28	,	101881	,	-27564	,	-24872	,	14.188944	,	16
21,28	,	101897	,	-27575	,	-24878	,	12.759548	,	15
21,28	,	101929	,	-27571	,	-24883	,	10.484331	,	13
21,28	,	101945	,	-27587	,	-24896	,	7.499804	,	10
21,28	,	101977	,	-27587	,	-24892	,	3.9870267	,	7
21,28	,	101993	,	-27586	,	-24905	,	0.1931653	,	4
21,28	,	102009	,	-27588	,	-24913	,	-3.4811144	,	2
21,28	,	102042	,	-27592	,	-24921	,	-6.625106	,	1
21,28	,	102058	,	-27600	,	-24942	,	-9.036862	,	0
21,28	,	102073	,	-27625	,	-24984	,	-10.858213	,	0
21,28	,	102105	,	-27650	,	-24990	,	-12.6413555	,	0
21,28	,	102121	,	-27650	,	-25017	,	-15.03651	,	0
21,28	,	102153	,	-27653	,	-25032	,	-18.199778	,	0
21,28	,	102169	,	-27658	,	-25026	,	-21.683834	,	0
21,28	,	102185	,	-27661	,	-25026	,	-24.850002	,	0
21,28	,	102217	,	-27685	,	-25040	,	-27.274559	,	0
21,28	,	102233	,	-27675	,	-25042	,	-28.87128	,	0
21,28	,	102250	,	-27683	,	-25046	,	-29.635784	,	0
21,28	,	102281	,	-27677	,	-25033	,	-29.45833	,	0
21,28	,	102297	,	-27673	,	-25040	,	-28.205715	,	0
21,28	,	102313	,	-27668	,	-25054	,	-25.789902	,	1
21,28	,	102345	,	-27653	,	-25022	,	-22.193771	,	3
21,28	,	102361	,	-27639	,	-25037	,	-17.429256	,	6
21,28	,	102393	,	-27656	,	-25024	,	-11.674938	,	10
21,28	,	102409	,	-27636	,	-25020	,	-5.4818754	,	15
21,28	,	102426	,	-27637	,	-25007	,	0.5107727	,	21
21,28	,	102457	,	-27634	,	-25002	,	5.858881	,	26
21,28	,	102473	,	-27642	,	-24997	,	10.177083	,	31
21,28	,	102489	,	-27626	,	-24988	,	13.158911	,	35
21,29	,	102521	,	-27630	,	-24981	,	14.797549	,	36
21,29	,	102537	,	-27615	,	-24973	,	15.374481	,	35
21,29	,	102569	,	-27633	,	-25005	,	15.214524	,	32
21,29	,	102585	,	-27619	,	-24949	,	14.489653	,	28
21,29	,	102601	,	-27618	,	-24961	,	13.329042	,	23
21,29	,	102633	,	-27616	,	-24963	,	11.962713	,	17
21,29	,	102649	,	-27627	,	-24956	,	10.5492735	,	12
21,29	,	102665	,	-27619	,	-24955	,	9.068102	,	7
21,29	,	102697	,	-27615	,	-24941	,	7.535229	,	3
21,29	,	102713	,	-27613	,	-24941	,	6.1301303	,	1
21,29	,	102729	,	-27622	,	-24946	,	4.9910207	,	0
21,29	,	102761	,	-27630	,	-24946	,	4.0062823	,	0
21,29	,	102777	,	-27622	,	-24962	,	2.9476473	,	0
21,29	,	102809	,	-27618	,	-24989	,	1.7901616	,	0
21,29	,	102825	,	-27633	,	-24969	,	0.6785369	,	0
21,29	,	102841	,	-27640	,	-24979	,	-0.42348087	,	0
21,29	,	102873	,	-27651	,	-24989	,	-1.7740238	,	0
21,29	,	102889	,	-27654	,	-24990	,	-3.5889702	,	0
21,29	,	102905	,	-27662	,	-24991	,	-5.8836627	,	0
21,29	,	102937	,	-27666	,	-24996	,	-8.496537	,	0
21,29	,	102953	,	-27664	,	-25009	,	-11.142506	,	0
21,29	,	102985	,	-27664	,	-25004	,	-13.433753	,	0
21,29	,	103001	,	-27660	,	-25014	,	-14.969817	,	0
21,29	,	103017	,	-27644	,	-25021	,	-15.3969755	,	0
21,29	,	103049	,	-27639	,	-25021	,	-14.404173	,	0
21,29	,	103065	,	-27633	,	-25002	,	-11.876946	,	0
21,29	,	103081	,	-27633	,	-25011	,	-8.067129	,	2
21,29	,	103113	,	-27627	,	-24999	,	-3.511351	,	5
21,29	,	103129	,	-27628	,	-25011	,	1.1789408	,	9
21,29	,	103145	,	-27630	,	-25012	,	5.428835	,	13
21,29	,	103177	,	-27643	,	-25002	,	8.695963	,	17
21,29	,	103193	,	-27637	,	-25004	,	10.545777	,	20
21,29	,	103225	,	-27640	,	-25013	,	10.859585	,	21
21,29	,	103241	,	-27630	,	-25003	,	9.918066	,	21
21,29	,	103257	,	-27623	,	-25004	,	8.291452	,	21
21,29	,	103289	,	-27634	,	-25013	,	6.569749	,	19
21,29	,	103305	,	-27628	,	-24995	,	5.0599146	,	16
21,29	,	103321	,	-27623	,	-25012	,	3.8488927	,	12
21,29	,	103353	,	-27624	,	-25006	,	3.0166721	,	8
21,29	,	103369	,	-27631	,	-25004	,	2.5592763	,	4
21,29	,	103400	,	-27636	,	-25018	,	2.2768807	,	1
21,29	,	103417	,	-27630	,	-24999	,	1.9170039	,	0
21,29	,	103433	,	-27649	,	-25006	,	1.311946	,	0
21,29	,	103464	,	-27641	,	-25013	,	0.3410474	,	0
21,29	,	103481	,	-27643	,	-25023	,	-0.9777784	,	0
21,30	,	103497	,	-27642	,	-25015	,	-2.4094303	,	0
21,30	,	103529	,	-27654	,	-25028	,	-3.7260764	,	0
21,30	,	103545	,	-27654	,	-25003	,	-4.8917146	,	0
21,30	,	103561	,	-27660	,	-25036	,	-5.9725018	,	0
21,30	,	103593	,	-27660	,	-25035	,	-6.99774	,	0
21,30	,	103609	,	-27655	,	-25050	,	-7.8946023	,	0
21,30	,	103640	,	-27657	,	-25040	,	-8.479936	,	0
21,30	,	103656	,	-27647	,	-25033	,	-8.544164	,	0
21,30	,	103673	,	-27644	,	-25033	,	-7.923004	,	0
21,30	,	103705	,	-27623	,	-25041	,	-6.4572363	,	0
21,30	,	103721	,	-27613	,	-25027	,	-3.9461946	,	1
21,30	,	103737	,	-27604	,	-25032	,	-0.28408575	,	3
21,30	,	103769	,	-27602	,	-25044	,	4.3182507	,	6
21,30	,	103785	,	-27594	,	-25001	,	9.34156	,	10
21,30	,	103816	,	-27589	,	-25023	,	14.185329	,	15
21,30	,	103832	,	-27578	,	-25026	,	18.392727	,	19
21,30	,	103849	,	-27582	,	-25023	,	21.694714	,	23
21,30	,	103881	,	-27579	,	-25022	,	23.888477	,	26
21,30	,	103897	,	-27572	,	-25030	,	24.847881	,	28
21,30	,	103913	,	-27577	,	-25021	,	24.622826	,	27
21,30	,	103945	,	-27578	,	-25032	,	23.33937	,	25
21,30	,	103961	,	-27564	,	-25034	,	21.186945	,	22
21,30	,	103992	,	-27563	,	-25027	,	18.56844	,	18
21,30	,	104008	,	-27560	,	-25054	,	15.965526	,	13
21,30	,	104024	,	-27569	,	-25013	,	13.637968	,	9
21,30	,	104057	,	-27569	,	-25033	,	11.555441	,	5
21,30	,	104073	,	-27562	,	-25033	,	9.605425	,	2
21,30	,	104089	,	-27552	,	-25040	,	7.8568487	,	0
21,30	,	104121	,	-27563	,	-25037	,	6.5051384	,	0
21,30	,	104136	,	-27560	,	-25047	,	5.5742617	,	0
21,30	,	104153	,	-27570	,	-25047	,	4.8537827	,	0
21,30	,	104184	,	-27556	,	-25046	,	4.129819	,	0
21,30	,	104200	,	-27555	,	-25043	,	3.4161482	,	0
21,30	,	104233	,	-27558	,	-25041	,	2.8726869	,	0
21,30	,	104249	,	-27562	,	-25065	,	2.5266042	,	0
21,30	,	104265	,	-27566	,	-25035	,	2.2298071	,	0
21,30	,	104296	,	-27563	,	-25045	,	1.8247405	,	0
21,30	,	104312	,	-27549	,	-25038	,	1.3396238	,	0
21,30	,	104328	,	-27536	,	-25042	,	1.106732	,	0
21,30	,	104360	,	-27541	,	-25031	,	1.5355682	,	0
21,30	,	104376	,	-27529	,	-25025	,	2.7498636	,	0
21,30	,	104408	,	-27505	,	-25033	,	4.7065783	,	1
21,30	,	104425	,	-27511	,	-25016	,	7.424318	,	2
21,30	,	104441	,	-27507	,	-25020	,	10.719286	,	4
21,30	,	104472	,	-27481	,	-25022	,	14.186884	,	7
21,30	,	104488	,	-27475	,	-25025	,	17.626558	,	10
21,31	,	104504	,	-27476	,	-24979	,	20.970816	,	13
21,31	,	104536	,	-27453	,	-24967	,	24.02216	,	16
21,31	,	104552	,	-27446	,	-24977	,	26.648434	,	19
21,31	,	104568	,	-27444	,	-24974	,	28.83065	,	21
21,31	,	104601	,	-27444	,	-24969	,	30.414307	,	22
21,31	,	104617	,	-27449	,	-24980	,	31.083435	,	22
21,31	,	104648	,	-27438	,	-24983	,	30.576838	,	20
21,31	,	104664	,	-27426	,	-24966	,	28.97472	,	17
21,31	,	104680	,	-27431	,	-24969	,	26.691326	,	14
21,31	,	104712	,	-27420	,	-24966	,	24.135487	,	11
21,31	,	104728	,	-27434	,	-24987	,	21.520573	,	8
21,31	,	104744	,	-27419	,	-24948	,	18.90882	,	5
21,31	,	104776	,	-27406	,	-24940	,	16.447649	,	3
21,31	,	104792	,	-27401	,	-24931	,	14.505392	,	1
21,31	,	104824	,	-27386	,	-24931	,	13.440532	,	0
21,31	,	104840	,	-27391	,	-24921	,	13.365103	,	0
21,31	,	104856	,	-27398	,	-24910	,	14.007944	,	0
21,31	,	104888	,	-27389	,	-24920	,	14.802708	,	0
21,31	,	104904	,	-27388	,	-24923	,	15.292596	,	0
21,31	,	104920	,	-27391	,	-24920	,	15.289914	,	0
21,31	,	104952	,	-27387	,	-24919	,	14.729229	,	0
21,31	,	104968	,	-27389	,	-24934	,	13.630052	,	0
21,31	,	104984	,	-27395	,	-24908	,	12.068426	,	0
21,31	,	105016	,	-27389	,	-24912	,	10.12764	,	0
21,31	,	105032	,	-27397	,	-24903	,	7.9454703	,	0
21,31	,	105064	,	-27396	,	-24921	,	5.679358	,	0
21,31	,	105080	,	-27403	,	-24911	,	3.423273	,	0
21,31	,	105096	,	-27395	,	-24919	,	1.2575455	,	0
21,31	,	105128	,	-27405	,	-24928	,	-0.6905904	,	0
21,31	,	105144	,	-27414	,	-24912	,	-2.3748312	,	0
21,31	,	105160	,	-27407	,	-24918	,	-3.8802457	,	0
21,31	,	105192	,	-27420	,	-24931	,	-5.2509904	,	0
21,31	,	105208	,	-27405	,	-24932	,	-6.422323	,	0
21,31	,	105240	,	-27395	,	-24903	,	-7.159249	,	0
21,31	,	105256	,	-27372	,	-24917	,	-6.977496	,	0
21,31	,	105272	,	-27364	,	-24911	,	-5.3407326	,	0
21,31	,	105304	,	-27361	,	-24904	,	-2.0551834	,	1
21,31	,	105320	,	-27338	,	-24894	,	2.6063333	,	4
21,31	,	105336	,	-27349	,	-24893	,	8.113969	,	8
21,31	,	105368	,	-27353	,	-24887	,	13.680934	,	13
21,31	,	105384	,	-27336	,	-24889	,	18.39344	,	18
21,31	,	105400	,	-27344	,	-24883	,	21.687557	,	22
21,31	,	105432	,	-27332	,	-24874	,	23.429613	,	25
21,31	,	105448	,	-27333	,	-24886	,	23.742191	,	26
21,31	,	105480	,	-27327	,	-24849	,	22.923214	,	26
21,32	,	105496	,	-27309	,	-24844	,	21.405228	,	25
21,32	,	105512	,	-27287	,	-24820	,	19.84164	,	22
21,32	,	105544	,	-27266	,	-24799	,	19.054472	,	18
21,32	,	105560	,	-27263	,	-24798	,	19.642878	,	13
21,32	,	105576	,	-27242	,	-24782	,	21.675201	,	8
21,32	,	105608	,	-27261	,	-24788	,	24.69743	,	6
21,32	,	105624	,	-27264	,	-24794	,	27.783623	,	6
21,32	,	105672	,	-27255	,	-24789	,	30.508091	,	10
21,32	,	105688	,	-27259	,	-24800	,	29.550892	,	10
21,32	,	105720	,	-27259	,	-24770	,	27.130196	,	10
21,32	,	105736	,	-27248	,	-24782	,	23.549204	,	10
21,32	,	105752	,	-27259	,	-24783	,	19.342072	,	10
21,32	,	105784	,	-27265	,	-24790	,	14.9647455	,	10
21,32	,	105800	,	-27264	,	-24788	,	10.632749	,	8
21,32	,	105832	,	-27253	,	-24790	,	6.565261	,	5
21,32	,	105848	,	-27256	,	-24778	,	3.124023	,	2
21,32	,	105864	,	-27268	,	-24786	,	0.5389557	,	0
21,32	,	105896	,	-27261	,	-24792	,	-1.280618	,	0
21,32	,	105912	,	-27256	,	-24787	,	-2.4793603	,	0
21,32	,	105928	,	-27257	,	-24793	,	-3.0583382	,	0
21,32	,	105960	,	-27264	,	-24773	,	-3.0647316	,	0
21,32	,	105976	,	-27272	,	-24796	,	-2.7618718	,	0
21,32	,	105992	,	-27266	,	-24793	,	-2.4926128	,	0
21,32	,	106024	,	-27264	,	-24791	,	-2.4027898	,	0
21,32	,	106040	,	-27247	,	-24790	,	-2.3216767	,	0
21,32	,	106072	,	-27234	,	-24783	,	-1.8175354	,	0
21,32	,	106088	,	-27233	,	-24772	,	-0.45006967	,	0
21,32	,	106104	,	-27223	,	-24776	,	1.8992761	,	1
21,32	,	106136	,	-27217	,	-24782	,	5.0248117	,	3
21,32	,	106152	,	-27204	,	-24773	,	8.623972	,	6
21,32	,	106168	,	-27211	,	-24778	,	12.351649	,	9
21,32	,	106200	,	-27198	,	-24746	,	15.781618	,	12
21,32	,	106216	,	-27187	,	-24762	,	18.599785	,	15
21,32	,	106248	,	-27189	,	-24761	,	20.73762	,	17
21,32	,	106264	,	-27201	,	-24764	,	22.089785	,	19
21,32	,	106280	,	-27185	,	-24758	,	22.416548	,	20
21,32	,	106312	,	-27189	,	-24757	,	21.672503	,	19
21,32	,	106328	,	-27180	,	-24758	,	20.10022	,	17
21,32	,	106344	,	-27192	,	-24754	,	17.993687	,	14
21,32	,	106376	,	-27173	,	-24757	,	15.600496	,	11
21,32	,	106392	,	-27170	,	-24756	,	13.260399	,	8
21,32	,	106423	,	-27170	,	-24762	,	11.358956	,	5
21,32	,	106440	,	-27166	,	-24725	,	10.065835	,	3
21,32	,	106456	,	-27168	,	-24744	,	9.309208	,	1
21,32	,	106487	,	-27163	,	-24743	,	8.920713	,	0
21,33	,	106503	,	-27175	,	-24744	,	8.678934	,	0
21,33	,	106520	,	-27171	,	-24745	,	8.305632	,	0
21,33	,	106552	,	-27175	,	-24744	,	7.579692	,	0
21,33	,	106568	,	-27170	,	-24745	,	6.474096	,	0
21,33	,	106584	,	-27185	,	-24751	,	5.067219	,	0
21,33	,	106616	,	-27184	,	-24748	,	3.370117	,	0
21,33	,	106632	,	-27185	,	-24767	,	1.3953564	,	0
21,33	,	106663	,	-27186	,	-24767	,	-0.69320345	,	0
21,33	,	106679	,	-27187	,	-24764	,	-2.652055	,	0
21,33	,	106695	,	-27199	,	-24775	,	-4.340201	,	0
21,33	,	106728	,	-27196	,	-24776	,	-5.7760434	,	0
21,33	,	106744	,	-27208	,	-24775	,	-7.0357037	,	0
21,33	,	106760	,	-27200	,	-24769	,	-8.15291	,	0
21,33	,	106792	,	-27211	,	-24776	,	-9.088573	,	0
21,33	,	106808	,	-27221	,	-24781	,	-9.841146	,	0
21,33	,	106839	,	-27223	,	-24781	,	-10.547199	,	0
21,33	,	106855	,	-27218	,	-24792	,	-11.280841	,	0
21,33	,	106871	,	-27208	,	-24797	,	-11.834027	,	0
21,33	,	106904	,	-27195	,	-24802	,	-11.758026	,	0
21,33	,	106920	,	-27198	,	-24790	,	-10.630066	,	0
21,33	,	106936	,	-27176	,	-24794	,	-8.292891	,	1
21,33	,	106967	,	-27176	,	-24793	,	-4.807868	,	3
21,33	,	106983	,	-27176	,	-24788	,	-0.45771074	,	6
21,33	,	106999	,	-27175	,	-24802	,	4.171083	,	10
21,33	,	107031	,	-27181	,	-24810	,	8.362651	,	14
21,33	,	107047	,	-27179	,	-24814	,	11.510464	,	18
21,33	,	107080	,	-27179	,	-24815	,	13.279651	,	21
21,33	,	107096	,	-27175	,	-24820	,	13.680092	,	22
21,33	,	107112	,	-27183	,	-24827	,	12.942844	,	22
21,33	,	107143	,	-27179	,	-24832	,	11.342539	,	21
21,33	,	107159	,	-27182	,	-24827	,	9.166922	,	19
21,33	,	107175	,	-27168	,	-24822	,	6.789688	,	16
21,33	,	107207	,	-27181	,	-24818	,	4.6170073	,	12
21,33	,	107223	,	-27184	,	-24831	,	2.8321886	,	8
21,33	,	107255	,	-27174	,	-24833	,	1.3816073	,	4
21,33	,	107272	,	-27185	,	-24843	,	0.23414326	,	1
21,33	,	107287	,	-27179	,	-24846	,	-0.6117954	,	0
21,33	,	107319	,	-27191	,	-24847	,	-1.2411432	,	0
21,33	,	107336	,	-27187	,	-24852	,	-1.7946894	,	0
21,33	,	107351	,	-27174	,	-24858	,	-2.29219	,	0
21,33	,	107383	,	-27186	,	-24855	,	-2.5585916	,	0
21,33	,	107399	,	-27191	,	-24862	,	-2.5385375	,	0
21,33	,	107415	,	-27191	,	-24895	,	-2.4390857	,	0
21,33	,	107448	,	-27212	,	-24921	,	-2.5527875	,	0
21,33	,	107463	,	-27225	,	-24959	,	-3.2602143	,	0
21,33	,	107495	,	-27254	,	-24993	,	-5.0448155	,	0
21,34	,	107511	,	-27259	,	-25054	,	-8.276569	,	0
21,34	,	107527	,	-27284	,	-25077	,	-12.974552	,	0
21,34	,	107559	,	-27298	,	-25121	,	-18.834259	,	0
21,34	,	107575	,	-27293	,	-25160	,	-25.289577	,	0
21,34	,	107591	,	-27293	,	-25148	,	-31.413065	,	0
21,34	,	107623	,	-27287	,	-25148	,	-36.101307	,	0
21,34	,	107639	,	-27277	,	-25109	,	-38.459347	,	0
21,34	,	107671	,	-27241	,	-25079	,	-37.843975	,	0
21,34	,	107687	,	-27228	,	-25051	,	-33.77867	,	0
21,34	,	107703	,	-27209	,	-25031	,	-26.210442	,	4
21,34	,	107735	,	-27195	,	-25035	,	-15.750891	,	11
21,34	,	107751	,	-27167	,	-25018	,	-3.4328098	,	21
21,34	,	107767	,	-27141	,	-25020	,	9.729348	,	33
21,34	,	107800	,	-27113	,	-24978	,	22.96125	,	46
21,34	,	107816	,	-27097	,	-24971	,	35.647293	,	59
21,34	,	107847	,	-27077	,	-24962	,	47.163387	,	71
21,34	,	107863	,	-27076	,	-24974	,	56.818478	,	82
21,34	,	107879	,	-27061	,	-24959	,	63.9283	,	91
21,34	,	107911	,	-27022	,	-24931	,	68.19961	,	94
21,34	,	107927	,	-27002	,	-24924	,	70.09616	,	91
21,34	,	107943	,	-27010	,	-24897	,	70.37119	,	82
21,34	,	107975	,	-26991	,	-24906	,	69.35989	,	70
21,34	,	107991	,	-26990	,	-24912	,	67.08377	,	57
21,34	,	108007	,	-26984	,	-24924	,	63.59451	,	44
21,34	,	108039	,	-27000	,	-24938	,	58.9189	,	32
21,34	,	108055	,	-27000	,	-24955	,	52.969444	,	21
21,34	,	108087	,	-27003	,	-24980	,	45.741096	,	12
21,34	,	108103	,	-27037	,	-25017	,	37.381927	,	5
21,34	,	108119	,	-27041	,	-25041	,	27.972797	,	1
21,34	,	108151	,	-27058	,	-25126	,	17.645132	,	0
21,34	,	108167	,	-27060	,	-25101	,	6.8698444	,	0
21,34	,	108183	,	-27059	,	-25136	,	-3.5561113	,	0
21,34	,	108215	,	-27069	,	-25111	,	-12.726484	,	0
21,34	,	108231	,	-27064	,	-25141	,	-19.922358	,	0
21,34	,	108263	,	-27065	,	-25145	,	-24.722225	,	0
21,34	,	108279	,	-27064	,	-25159	,	-26.982662	,	0
21,34	,	108295	,	-27072	,	-25170	,	-26.90791	,	0
21,34	,	108327	,	-27069	,	-25177	,	-25.021751	,	0
21,34	,	108343	,	-27072	,	-25179	,	-21.957973	,	1
21,34	,	108359	,	-27071	,	-25179	,	-18.284904	,	4
21,34	,	108391	,	-27045	,	-25131	,	-14.335862	,	7
21,34	,	108407	,	-27039	,	-25112	,	-10.061636	,	10
21,34	,	108423	,	-27038	,	-25107	,	-5.3170996	,	14
21,34	,	108455	,	-27026	,	-25093	,	-0.24103308	,	18
21,34	,	108471	,	-27039	,	-25115	,	4.7624407	,	23
21,35	,	108503	,	-27034	,	-25085	,	9.131519	,	28
21,35	,	108519	,	-27034	,	-25122	,	12.346603	,	32
21,35	,	108535	,	-27035	,	-25122	,	14.168343	,	34
21,35	,	108567	,	-27031	,	-25158	,	14.628605	,	32
21,35	,	108583	,	-27031	,	-25176	,	13.955758	,	29
21,35	,	108599	,	-27034	,	-25197	,	12.481503	,	26
21,35	,	108631	,	-27054	,	-25252	,	10.40851	,	22
21,35	,	108647	,	-27062	,	-25280	,	7.6607585	,	18
21,35	,	108679	,	-27054	,	-25264	,	4.166854	,	13
21,35	,	108695	,	-27049	,	-25253	,	0.28408575	,	8
21,35	,	108711	,	-27048	,	-25262	,	-3.2976077	,	4
21,35	,	108743	,	-27043	,	-25244	,	-5.977177	,	1
21,35	,	108759	,	-27015	,	-25244	,	-7.30399	,	0
21,35	,	108775	,	-26995	,	-25185	,	-6.764263	,	0
21,35	,	108807	,	-26964	,	-25172	,	-3.8347528	,	0
21,35	,	108823	,	-26942	,	-25169	,	1.7463157	,	2
21,35	,	108839	,	-26934	,	-25109	,	9.726239	,	7
21,35	,	108871	,	-26920	,	-25059	,	19.227867	,	14
21,35	,	108887	,	-26904	,	-25059	,	29.038456	,	23
21,35	,	108919	,	-26898	,	-25040	,	38.036995	,	32
21,35	,	108935	,	-26883	,	-25046	,	45.3742	,	40
21,35	,	108951	,	-26867	,	-25019	,	50.58722	,	47
21,35	,	108983	,	-26874	,	-25003	,	53.571476	,	52
21,35	,	108999	,	-26851	,	-24995	,	54.390415	,	54
21,35	,	109015	,	-26853	,	-24976	,	53.28942	,	52
21,35	,	109047	,	-26835	,	-24960	,	50.718422	,	47
21,35	,	109063	,	-26828	,	-24943	,	47.232002	,	40
21,35	,	109094	,	-26815	,	-24906	,	43.415527	,	31
21,35	,	109111	,	-26790	,	-24871	,	39.85332	,	22
21,35	,	109127	,	-26781	,	-24859	,	37.11796	,	14
21,35	,	109159	,	-26796	,	-24856	,	35.43643	,	7
21,35	,	109175	,	-26791	,	-24866	,	34.365337	,	2
21,35	,	109191	,	-26778	,	-24869	,	33.23693	,	0
21,35	,	109222	,	-26797	,	-24872	,	31.656416	,	0
21,35	,	109238	,	-26798	,	-24871	,	29.327835	,	0
21,35	,	109255	,	-26819	,	-24882	,	25.906488	,	0
21,35	,	109287	,	-26812	,	-24906	,	21.214275	,	0
21,35	,	109303	,	-26798	,	-24926	,	15.561309	,	0
21,35	,	109335	,	-26799	,	-24904	,	9.785054	,	0
21,35	,	109351	,	-26796	,	-24923	,	4.767812	,	0
21,35	,	109367	,	-26794	,	-24931	,	1.0343447	,	0
21,35	,	109398	,	-26793	,	-24941	,	-1.2496648	,	0
21,35	,	109414	,	-26806	,	-24950	,	-2.252927	,	0
21,35	,	109431	,	-26796	,	-24952	,	-2.4040163	,	0
21,35	,	109463	,	-26801	,	-24957	,	-2.108854	,	0
21,35	,	109479	,	-26798	,	-24966	,	-1.601864	,	0
21,36	,	109510	,	-26796	,	-24961	,	-1.0164635	,	0
21,36	,	109527	,	-26809	,	-24987	,	-0.47590673	,	0
21,36	,	109542	,	-26806	,	-24997	,	-0.16447425	,	0
21,36	,	109574	,	-26819	,	-24979	,	-0.27761075	,	0
21,36	,	109590	,	-26805	,	-24983	,	-0.8830365	,	0
21,36	,	109606	,	-26794	,	-24997	,	-1.738148	,	0
21,36	,	109639	,	-26806	,	-24986	,	-2.3810465	,	0
21,36	,	109655	,	-26802	,	-24997	,	-2.5751357	,	0
21,36	,	109671	,	-26801	,	-24999	,	-2.387617	,	0
21,36	,	109702	,	-26810	,	-24987	,	-1.9695525	,	0
21,36	,	109718	,	-26809	,	-25003	,	-1.529915	,	0
21,36	,	109750	,	-26819	,	-25019	,	-1.3065608	,	0
21,36	,	109766	,	-26828	,	-25018	,	-1.5238911	,	0
21,36	,	109782	,	-26819	,	-25036	,	-2.3131232	,	0
21,36	,	109815	,	-26832	,	-25013	,	-3.5699584	,	0
21,36	,	109831	,	-26833	,	-25041	,	-5.080232	,	0
21,36	,	109846	,	-26841	,	-25047	,	-6.706991	,	0
21,36	,	109879	,	-26842	,	-25051	,	-8.355993	,	0
21,36	,	109895	,	-26858	,	-25056	,	-9.969132	,	0
21,36	,	109926	,	-26878	,	-25045	,	-11.66516	,	0
21,36	,	109942	,	-26877	,	-25059	,	-13.701003	,	0
21,36	,	109958	,	-26871	,	-25076	,	-16.063082	,	0
21,36	,	109990	,	-26871	,	-25080	,	-18.272694	,	0
21,36	,	110006	,	-26872	,	-25127	,	-19.738873	,	0
21,36	,	110022	,	-26875	,	-25097	,	-20.129217	,	0
21,36	,	110054	,	-26870	,	-25118	,	-19.404797	,	0
21,36	,	110071	,	-26851	,	-25107	,	-17.593987	,	0
21,36	,	110102	,	-26863	,	-25108	,	-14.703555	,	1
21,36	,	110118	,	-26862	,	-25109	,	-10.993156	,	3
21,36	,	110134	,	-26860	,	-25118	,	-7.0202417	,	6
21,36	,	110166	,	-26854	,	-25150	,	-3.2731404	,	9
21,36	,	110182	,	-26861	,	-25134	,	-0.025335312	,	12
21,36	,	110198	,	-26860	,	-25122	,	2.5188577	,	15
21,36	,	110230	,	-26861	,	-25140	,	4.203469	,	17
21,36	,	110247	,	-26861	,	-25165	,	5.017438	,	18
21,36	,	110263	,	-26870	,	-25177	,	5.0431457	,	18
21,36	,	110294	,	-26877	,	-25155	,	4.3123384	,	17
21,36	,	110310	,	-26879	,	-25182	,	2.8276765	,	15
21,36	,	110342	,	-26881	,	-25180	,	0.7156687	,	12
21,36	,	110358	,	-26874	,	-25194	,	-1.6994367	,	9
21,36	,	110374	,	-26878	,	-25184	,	-3.9717016	,	6
21,36	,	110406	,	-26884	,	-25173	,	-5.760288	,	3
21,36	,	110422	,	-26884	,	-25192	,	-6.981572	,	1
21,36	,	110438	,	-26884	,	-25200	,	-7.6904135	,	0
21,36	,	110470	,	-26896	,	-25209	,	-7.99271	,	0
21,36	,	110486	,	-26886	,	-25210	,	-8.046925	,	0
21,37	,	110518	,	-26901	,	-25237	,	-7.975109	,	0
21,37	,	110534	,	-26896	,	-25186	,	-7.864659	,	0
21,37	,	110550	,	-26911	,	-25216	,	-7.8343606	,	0
21,37	,	110582	,	-26913	,	-25222	,	-8.0365505	,	0
21,37	,	110598	,	-26923	,	-25225	,	-8.61199	,	0
21,37	,	110614	,	-26921	,	-25216	,	-9.580571	,	0
21,37	,	110646	,	-26924	,	-25235	,	-10.777059	,	0
21,37	,	110662	,	-26926	,	-25238	,	-11.92804	,	0
21,37	,	110678	,	-26931	,	-25232	,	-12.812538	,	0
21,37	,	110710	,	-26949	,	-25244	,	-13.4181795	,	0
21,37	,	110726	,	-26945	,	-25261	,	-13.932802	,	0
21,37	,	110758	,	-26934	,	-25281	,	-14.412219	,	0
21,37	,	110774	,	-26937	,	-25245	,	-14.575691	,	0
21,37	,	110790	,	-26929	,	-25250	,	-14.074872	,	0
21,37	,	110822	,	-26924	,	-25238	,	-12.717966	,	0
21,37	,	110838	,	-26915	,	-25243	,	-10.444485	,	1
21,37	,	110854	,	-26909	,	-25268	,	-7.3057632	,	3
21,37	,	110886	,	-26911	,	-25250	,	-3.5201292	,	6
21,37	,	110902	,	-26917	,	-25264	,	0.44954777	,	9
21,37	,	110934	,	-26920	,	-25264	,	3.9688935	,	12
21,37	,	110950	,	-26910	,	-25245	,	6.5453444	,	15
21,37	,	110966	,	-26919	,	-25248	,	8.038637	,	17
21,37	,	110998	,	-26912	,	-25266	,	8.531227	,	18
21,37	,	111014	,	-26922	,	-25251	,	8.166135	,	18
21,37	,	111030	,	-26924	,	-25259	,	7.083065	,	17
21,37	,	111062	,	-26928	,	-25266	,	5.398978	,	15
21,37	,	111078	,	-26911	,	-25270	,	3.3507457	,	12
21,37	,	111094	,	-26924	,	-25272	,	1.3495469	,	9
21,37	,	111126	,	-26918	,	-25281	,	-0.27759266	,	6
21,37	,	111142	,	-26914	,	-25258	,	-1.3967011	,	3
21,37	,	111174	,	-26913	,	-25271	,	-1.9278603	,	1
21,37	,	111190	,	-26930	,	-25276	,	-1.938809	,	0
21,37	,	111206	,	-26925	,	-25272	,	-1.7543952	,	0
21,37	,	111238	,	-26933	,	-25307	,	-1.7217574	,	0
21,37	,	111254	,	-26950	,	-25266	,	-2.092751	,	0
21,37	,	111270	,	-26946	,	-25296	,	-3.0884876	,	0
21,37	,	111302	,	-26945	,	-25285	,	-4.700297	,	0
21,37	,	111318	,	-26943	,	-25287	,	-6.5614533	,	0
21,37	,	111350	,	-26960	,	-25293	,	-8.265563	,	0
21,37	,	111366	,	-26953	,	-25282	,	-9.656755	,	0
21,37	,	111382	,	-26962	,	-25293	,	-10.718058	,	0
21,37	,	111414	,	-26964	,	-25268	,	-11.442041	,	0
21,37	,	111430	,	-26959	,	-25271	,	-11.829199	,	0
21,37	,	111446	,	-26954	,	-25306	,	-11.792343	,	0
21,37	,	111478	,	-26960	,	-25311	,	-11.201756	,	0
21,37	,	111494	,	-26952	,	-25267	,	-10.051611	,	0
21,38	,	111510	,	-26927	,	-25286	,	-8.306419	,	1
21,38	,	111542	,	-26926	,	-25279	,	-5.7279067	,	2
21,38	,	111558	,	-26919	,	-25284	,	-2.1806374	,	4
21,38	,	111589	,	-26936	,	-25288	,	1.9941473	,	7
21,38	,	111606	,	-26926	,	-25271	,	6.059923	,	11
21,38	,	111621	,	-26920	,	-25285	,	9.370219	,	15
21,38	,	111654	,	-26929	,	-25290	,	11.655339	,	18
21,38	,	111670	,	-26936	,	-25312	,	12.782085	,	20
21,38	,	111686	,	-26945	,	-25300	,	12.567906	,	21
21,38	,	111718	,	-26953	,	-25341	,	10.904885	,	20
21,38	,	111734	,	-26953	,	-25294	,	7.914161	,	19
21,38	,	111765	,	-26960	,	-25331	,	3.9859633	,	17
21,38	,	111781	,	-26978	,	-25364	,	-0.43175888	,	14
21,38	,	111797	,	-26982	,	-25373	,	-5.068245	,	10
21,38	,	111830	,	-26973	,	-25347	,	-9.64739	,	6
21,38	,	111846	,	-26987	,	-25366	,	-13.695919	,	3
21,38	,	111862	,	-26992	,	-25382	,	-16.83367	,	1
21,38	,	111894	,	-26999	,	-25388	,	-19.003302	,	0
21,38	,	111910	,	-27006	,	-25393	,	-20.34187	,	0
21,38	,	111941	,	-27004	,	-25407	,	-21.007345	,	0
21,38	,	111957	,	-27020	,	-25437	,	-21.122517	,	0
21,38	,	111973	,	-27023	,	-25399	,	-20.868168	,	0
21,38	,	112005	,	-27028	,	-25412	,	-20.471617	,	0
21,38	,	112022	,	-27027	,	-25410	,	-20.032505	,	0
21,38	,	112038	,	-27031	,	-25410	,	-19.488255	,	0
21,38	,	112070	,	-27014	,	-25406	,	-18.648287	,	0
21,38	,	112086	,	-27040	,	-25406	,	-17.323357	,	0
21,38	,	112102	,	-27044	,	-25402	,	-15.667384	,	1
21,38	,	112133	,	-27040	,	-25383	,	-14.102828	,	2
21,38	,	112149	,	-27056	,	-25400	,	-12.900505	,	3
21,38	,	112181	,	-27052	,	-25407	,	-12.162455	,	4
21,38	,	112198	,	-27061	,	-25388	,	-11.904545	,	4
21,38	,	112214	,	-27066	,	-25382	,	-12.048387	,	4
21,38	,	112246	,	-27057	,	-25389	,	-12.430909	,	4
21,38	,	112262	,	-27051	,	-25369	,	-12.7037	,	4
21,38	,	112277	,	-27028	,	-25347	,	-12.321405	,	4
21,38	,	112309	,	-27030	,	-25373	,	-10.751111	,	3
21,38	,	112325	,	-27031	,	-25365	,	-7.8454022	,	3
21,38	,	112357	,	-27040	,	-25369	,	-4.0528026	,	4
21,38	,	112374	,	-27016	,	-25380	,	-0.063191414	,	6
21,38	,	112389	,	-27030	,	-25378	,	3.6552536	,	9
21,38	,	112421	,	-27035	,	-25385	,	6.747448	,	12
21,38	,	112437	,	-27034	,	-25382	,	8.804953	,	15
21,38	,	112453	,	-27033	,	-25346	,	9.620161	,	17
21,38	,	112485	,	-27056	,	-25398	,	9.202037	,	17
21,39	,	112501	,	-27048	,	-25376	,	7.55991	,	17
21,39	,	112517	,	-27046	,	-25394	,	4.895516	,	16
21,39	,	112549	,	-27051	,	-25388	,	1.7451878	,	14
21,39	,	112565	,	-27037	,	-25366	,	-1.2743313	,	11
21,39	,	112597	,	-27049	,	-25374	,	-3.6641502	,	8
21,39	,	112613	,	-27060	,	-25387	,	-5.251898	,	5
21,39	,	112629	,	-27055	,	-25391	,	-6.249951	,	2
21,39	,	112661	,	-27051	,	-25386	,	-6.864503	,	0
21,39	,	112677	,	-27064	,	-25398	,	-7.1289673	,	0
21,39	,	112693	,	-27057	,	-25359	,	-7.116127	,	0
21,39	,	112725	,	-27077	,	-25373	,	-7.006326	,	0
21,39	,	112742	,	-27064	,	-25369	,	-7.000764	,	0
21,39	,	112773	,	-27068	,	-25375	,	-7.141489	,	0
21,39	,	112789	,	-27087	,	-25351	,	-7.3604836	,	0
21,39	,	112805	,	-27080	,	-25362	,	-7.7310686	,	0
21,39	,	112837	,	-27079	,	-25375	,	-8.289083	,	0
21,39	,	112853	,	-27098	,	-25358	,	-8.91643	,	0
21,39	,	112869	,	-27109	,	-25371	,	-9.673673	,	0
21,39	,	112901	,	-27096	,	-25375	,	-10.722089	,	0
21,39	,	112917	,	-27108	,	-25353	,	-11.936195	,	0
21,39	,	112933	,	-27131	,	-25355	,	-13.143836	,	0
21,39	,	112965	,	-27148	,	-25388	,	-14.562365	,	0
21,39	,	112981	,	-27153	,	-25373	,	-16.56406	,	0
21,39	,	113013	,	-27160	,	-25399	,	-19.199812	,	0
21,39	,	113029	,	-27156	,	-25404	,	-22.102436	,	0
21,39	,	113045	,	-27161	,	-25414	,	-24.679192	,	0
21,39	,	113077	,	-27159	,	-25384	,	-26.379402	,	0
21,39	,	113093	,	-27155	,	-25384	,	-26.84243	,	0
21,39	,	113109	,	-27146	,	-25406	,	-25.861332	,	0
21,39	,	113141	,	-27149	,	-25401	,	-23.398308	,	0
21,39	,	113157	,	-27149	,	-25418	,	-19.705496	,	2
21,39	,	113189	,	-27132	,	-25371	,	-15.214408	,	5
21,39	,	113205	,	-27141	,	-25380	,	-10.304031	,	9
21,39	,	113221	,	-27141	,	-25369	,	-5.3901987	,	13
21,39	,	113253	,	-27145	,	-25389	,	-1.0118914	,	17
21,39	,	113269	,	-27154	,	-25386	,	2.3315105	,	21
21,39	,	113285	,	-27152	,	-25385	,	4.3131876	,	24
21,39	,	113317	,	-27171	,	-25392	,	4.8064685	,	25
21,39	,	113333	,	-27158	,	-25389	,	3.887498	,	25
21,39	,	113349	,	-27154	,	-25384	,	1.9626424	,	23
21,39	,	113381	,	-27157	,	-25388	,	-0.28569078	,	20
21,39	,	113397	,	-27158	,	-25405	,	-2.2887025	,	16
21,39	,	113429	,	-27162	,	-25349	,	-3.7910166	,	12
21,39	,	113445	,	-27152	,	-25360	,	-4.720178	,	8
21,39	,	113461	,	-27159	,	-25374	,	-5.03903	,	4
21,40	,	113493	,	-27170	,	-25367	,	-4.847533	,	1
21,40	,	113509	,	-27162	,	-25373	,	-4.4435415	,	0
21,40	,	113525	,	-27166	,	-25377	,	-4.058683	,	0
21,40	,	113557	,	-27166	,	-25348	,	-3.7414062	,	0
21,40	,	113573	,	-27180	,	-25369	,	-3.5524776	,	0
21,40	,	113605	,	-27178	,	-25379	,	-3.6568053	,	0
21,40	,	113621	,	-27175	,	-25374	,	-4.127006	,	0
21,40	,	113637	,	-27178	,	-25366	,	-4.799388	,	0
21,40	,	113669	,	-27185	,	-25367	,	-5.46851	,	0
21,40	,	113685	,	-27210	,	-25376	,	-6.1902266	,	0
21,40	,	113701	,	-27203	,	-25380	,	-7.2678905	,	0
21,40	,	113733	,	-27210	,	-25392	,	-8.848369	,	0
21,40	,	113749	,	-27220	,	-25390	,	-10.774374	,	0
21,40	,	113765	,	-27216	,	-25401	,	-12.802496	,	0
21,40	,	113797	,	-27224	,	-25403	,	-14.661574	,	0
21,40	,	113813	,	-27214	,	-25398	,	-16.04584	,	0
21,40	,	113845	,	-27223	,	-25387	,	-16.68766	,	0
21,40	,	113861	,	-27209	,	-25398	,	-16.418205	,	0
21,40	,	113877	,	-27207	,	-25410	,	-15.151262	,	0
21,40	,	113909	,	-27207	,	-25350	,	-12.907851	,	1
21,40	,	113925	,	-27192	,	-25372	,	-9.8579235	,	3
21,40	,	113941	,	-27196	,	-25361	,	-6.223499	,	6
21,40	,	113973	,	-27197	,	-25345	,	-2.3187842	,	9
21,40	,	113989	,	-27185	,	-25363	,	1.4412909	,	12
21,40	,	114021	,	-27180	,	-25341	,	4.7976966	,	15
21,40	,	114037	,	-27177	,	-25355	,	7.698127	,	18
21,40	,	114053	,	-27189	,	-25327	,	10.046937	,	20
21,40	,	114085	,	-27195	,	-25354	,	11.542382	,	22
21,40	,	114101	,	-27198	,	-25359	,	11.830207	,	22
21,40	,	114117	,	-27205	,	-25378	,	10.769386	,	20
21,40	,	114149	,	-27201	,	-25333	,	8.520117	,	17
21,40	,	114165	,	-27194	,	-25345	,	5.5430503	,	14
21,40	,	114180	,	-27197	,	-25375	,	2.4790874	,	11
21,40	,	114213	,	-27203	,	-25366	,	-0.17274785	,	8
21,40	,	114229	,	-27203	,	-25353	,	-2.2377586	,	5
21,40	,	114261	,	-27197	,	-25358	,	-3.7042096	,	3
21,40	,	114277	,	-27207	,	-25336	,	-4.57634	,	1
21,40	,	114293	,	-27215	,	-25350	,	-4.9921913	,	0
21,40	,	114325	,	-27216	,	-25344	,	-5.2541265	,	0
21,40	,	114341	,	-27213	,	-25365	,	-5.5788245	,	0
21,40	,	114356	,	-27213	,	-25371	,	-5.9394083	,	0
21,40	,	114389	,	-27218	,	-25325	,	-6.207822	,	0
21,40	,	114405	,	-27210	,	-25370	,	-6.2966075	,	0
21,40	,	114437	,	-27217	,	-25366	,	-6.136802	,	0
21,40	,	114453	,	-27223	,	-25332	,	-5.7472796	,	0
21,40	,	114469	,	-27235	,	-25361	,	-5.359876	,	0
21,41	,	114501	,	-27247	,	-25349	,	-5.3649	,	0
21,41	,	114516	,	-27239	,	-25330	,	-6.0502253	,	0
21,41	,	114532	,	-27242	,	-25331	,	-7.31653	,	0
21,41	,	114565	,	-27235	,	-25365	,	-8.7260895	,	0
21,41	,	114581	,	-27221	,	-25358	,	-9.72184	,	0
21,41	,	114612	,	-27221	,	-25362	,	-9.774739	,	0
21,41	,	114629	,	-27215	,	-25341	,	-8.618629	,	0
21,41	,	114645	,	-27212	,	-25331	,	-6.3520617	,	1
21,41	,	114676	,	-27202	,	-25332	,	-3.2597222	,	3
21,41	,	114692	,	-27204	,	-25329	,	0.32055664	,	6
21,41	,	114708	,	-27204	,	-25351	,	3.96359	,	9
21,41	,	114740	,	-27215	,	-25340	,	7.13442	,	12
21,41	,	114756	,	-27201	,	-25322	,	9.366225	,	15
21,41	,	114773	,	-27204	,	-25308	,	10.524496	,	17
21,41	,	114805	,	-27210	,	-25337	,	10.733179	,	18
21,41	,	114821	,	-27201	,	-25335	,	10.142803	,	18
21,41	,	114852	,	-27213	,	-25360	,	8.927687	,	17
21,41	,	114868	,	-27209	,	-25306	,	7.2662144	,	15
21,41	,	114884	,	-27206	,	-25333	,	5.3429947	,	12
21,41	,	114916	,	-27206	,	-25335	,	3.4262295	,	9
21,41	,	114932	,	-27205	,	-25315	,	1.7753913	,	6
21,41	,	114949	,	-27200	,	-25315	,	0.5604031	,	3
21,41	,	114981	,	-27201	,	-25336	,	-0.119231105	,	1
21,41	,	114997	,	-27214	,	-25322	,	-0.3308581	,	0
21,41	,	115028	,	-27217	,	-25333	,	-0.3919095	,	0
21,41	,	115044	,	-27221	,	-25364	,	-0.68095225	,	0
21,41	,	115060	,	-27229	,	-25360	,	-1.4191016	,	0
21,41	,	115092	,	-27230	,	-25381	,	-2.6580272	,	0
21,41	,	115108	,	-27248	,	-25339	,	-4.3709073	,	0
21,41	,	115124	,	-27234	,	-25359	,	-6.465584	,	0
21,41	,	115157	,	-27253	,	-25376	,	-8.708102	,	0
21,41	,	115172	,	-27258	,	-25352	,	-10.877443	,	0
21,41	,	115188	,	-27260	,	-25374	,	-12.904857	,	0
21,41	,	115220	,	-27260	,	-25360	,	-14.683281	,	0
21,41	,	115236	,	-27267	,	-25385	,	-16.020765	,	0
21,41	,	115268	,	-27270	,	-25365	,	-16.812952	,	0
21,41	,	115284	,	-27263	,	-25371	,	-17.03093	,	0
21,41	,	115300	,	-27264	,	-25390	,	-16.58965	,	0
21,41	,	115332	,	-27261	,	-25396	,	-15.40355	,	0
21,41	,	115348	,	-27267	,	-25373	,	-13.544952	,	1
21,41	,	115364	,	-27257	,	-25393	,	-11.229631	,	2
21,41	,	115396	,	-27260	,	-25395	,	-8.667022	,	4
21,41	,	115412	,	-27253	,	-25396	,	-6.006542	,	6
21,41	,	115444	,	-27267	,	-25389	,	-3.4322996	,	8
21,41	,	115460	,	-27256	,	-25404	,	-1.203093	,	10
21,41	,	115476	,	-27263	,	-25395	,	0.48964763	,	12
21,42	,	115508	,	-27254	,	-25387	,	1.6265229	,	13
21,42	,	115524	,	-27251	,	-25376	,	2.3369136	,	14
21,42	,	115540	,	-27248	,	-25350	,	2.8406658	,	13
21,42	,	115572	,	-27266	,	-25380	,	3.2346272	,	12
21,42	,	115588	,	-27258	,	-25372	,	3.3596654	,	10
21,42	,	115604	,	-27259	,	-25381	,	3.0705674	,	8
21,42	,	115636	,	-27250	,	-25364	,	2.489443	,	6
21,42	,	115652	,	-27255	,	-25379	,	1.8817825	,	4
21,42	,	115684	,	-27251	,	-25374	,	1.4284873	,	2
21,42	,	115700	,	-27248	,	-25375	,	1.1992823	,	1
21,42	,	115716	,	-27252	,	-25353	,	1.2137487	,	0
21,42	,	115748	,	-27241	,	-25345	,	1.451397	,	0
21,42	,	115764	,	-27253	,	-25335	,	1.8624836	,	0
21,42	,	115780	,	-27247	,	-25358	,	2.3244393	,	0
21,42	,	115812	,	-27250	,	-25375	,	2.6771436	,	0
21,42	,	115828	,	-27257	,	-25338	,	2.8034964	,	0
21,42	,	115860	,	-27269	,	-25358	,	2.527247	,	0
21,42	,	115876	,	-27264	,	-25343	,	1.6394037	,	0
21,42	,	115892	,	-27294	,	-25361	,	0.022842884	,	0
21,42	,	115924	,	-27274	,	-25365	,	-2.33164	,	0
21,42	,	115940	,	-27289	,	-25376	,	-5.1822114	,	0
21,42	,	115956	,	-27292	,	-25382	,	-8.104302	,	0
21,42	,	115988	,	-27295	,	-25381	,	-10.77886	,	0
21,42	,	116004	,	-27296	,	-25402	,	-12.980743	,	0
21,42	,	116020	,	-27303	,	-25385	,	-14.539325	,	0
21,42	,	116052	,	-27303	,	-25416	,	-15.416897	,	0
21,42	,	116068	,	-27310	,	-25394	,	-15.68997	,	0
21,42	,	116100	,	-27310	,	-25404	,	-15.488131	,	0
21,42	,	116116	,	-27284	,	-25404	,	-14.797414	,	0
21,42	,	116132	,	-27284	,	-25408	,	-13.301721	,	0
21,42	,	116164	,	-27299	,	-25413	,	-10.802715	,	1
21,42	,	116180	,	-27288	,	-25415	,	-7.6344748	,	3
21,42	,	116196	,	-27289	,	-25403	,	-4.328239	,	6
21,42	,	116228	,	-27300	,	-25416	,	-1.3080907	,	9
21,42	,	116244	,	-27299	,	-25406	,	1.0264595	,	12
21,42	,	116276	,	-27295	,	-25398	,	2.423052	,	14
21,42	,	116292	,	-27292	,	-25411	,	2.955457	,	15
21,42	,	116308	,	-27294	,	-25386	,	2.8986163	,	15
21,42	,	116340	,	-27306	,	-25405	,	2.4560268	,	15
21,42	,	116356	,	-27312	,	-25414	,	1.6091163	,	14
21,42	,	116372	,	-27308	,	-25428	,	0.28282905	,	12
21,42	,	116404	,	-27315	,	-25431	,	-1.4170011	,	9
21,42	,	116420	,	-27313	,	-25431	,	-3.251606	,	6
21,42	,	116436	,	-27307	,	-25429	,	-4.943169	,	3
21,42	,	116468	,	-27318	,	-25432	,	-6.228286	,	1
21,42	,	116484	,	-27307	,	-25416	,	-6.9740095	,	0
21,43	,	116516	,	-27304	,	-25407	,	-7.110443	,	0
21,43	,	116532	,	-27304	,	-25403	,	-6.562063	,	0
21,43	,	116548	,	-27302	,	-25392	,	-5.3753448	,	0
21,43	,	116580	,	-27315	,	-25387	,	-3.8040752	,	1
21,43	,	116596	,	-27318	,	-25402	,	-2.286808	,	2
21,43	,	116612	,	-27318	,	-25411	,	-1.2483432	,	3
21,43	,	116644	,	-27334	,	-25428	,	-0.9274961	,	4
21,43	,	116660	,	-27324	,	-25431	,	-1.3994812	,	4
21,43	,	116692	,	-27333	,	-25438	,	-2.5341177	,	4
21,43	,	116708	,	-27341	,	-25445	,	-4.079915	,	4
21,43	,	116724	,	-27347	,	-25443	,	-5.885869	,	4
21,43	,	116756	,	-27356	,	-25443	,	-7.894859	,	4
21,43	,	116772	,	-27349	,	-25466	,	-9.990706	,	3
21,43	,	116788	,	-27366	,	-25453	,	-11.95751	,	2
21,43	,	116819	,	-27356	,	-25454	,	-13.594578	,	1
21,43	,	116836	,	-27347	,	-25477	,	-14.666136	,	0
21,43	,	116852	,	-27356	,	-25478	,	-14.866359	,	0
21,43	,	116884	,	-27366	,	-25482	,	-14.158234	,	0
21,43	,	116900	,	-27366	,	-25480	,	-12.895719	,	0
21,43	,	116932	,	-27379	,	-25486	,	-11.54085	,	1
21,43	,	116948	,	-27369	,	-25492	,	-10.425526	,	2
21,43	,	116964	,	-27367	,	-25497	,	-9.584992	,	3
21,43	,	116996	,	-27363	,	-25517	,	-8.780076	,	3
21,43	,	117012	,	-27366	,	-25520	,	-7.774741	,	3
21,43	,	117028	,	-27379	,	-25524	,	-6.5807714	,	4
21,43	,	117060	,	-27400	,	-25537	,	-5.579047	,	5
21,43	,	117076	,	-27388	,	-25528	,	-5.2939577	,	6
21,43	,	117107	,	-27391	,	-25534	,	-5.85797	,	6
21,43	,	117124	,	-27393	,	-25543	,	-6.9351788	,	5
21,43	,	117139	,	-27394	,	-25548	,	-8.114967	,	4
21,43	,	117172	,	-27396	,	-25548	,	-9.108326	,	3
21,43	,	117188	,	-27400	,	-25555	,	-9.751959	,	3
21,43	,	117204	,	-27393	,	-25556	,	-9.979059	,	3
21,43	,	117236	,	-27411	,	-25555	,	-9.815769	,	2
21,43	,	117252	,	-27404	,	-25563	,	-9.431585	,	1
21,43	,	117268	,	-27409	,	-25563	,	-9.007786	,	0
21,43	,	117299	,	-27406	,	-25555	,	-8.581408	,	0
21,43	,	117315	,	-27415	,	-25558	,	-8.138662	,	0
21,43	,	117348	,	-27415	,	-25564	,	-7.730965	,	0
21,43	,	117364	,	-27417	,	-25557	,	-7.424771	,	0
21,43	,	117380	,	-27433	,	-25572	,	-7.292945	,	0
21,43	,	117412	,	-27430	,	-25565	,	-7.4761972	,	0
21,43	,	117428	,	-27433	,	-25572	,	-8.033884	,	0
21,43	,	117444	,	-27431	,	-25574	,	-8.800534	,	0
21,43	,	117475	,	-27440	,	-25581	,	-9.536471	,	0
21,43	,	117491	,	-27456	,	-25588	,	-10.193224	,	0
21,44	,	117524	,	-27455	,	-25585	,	-10.951403	,	0
21,44	,	117540	,	-27460	,	-25586	,	-11.929802	,	0
21,44	,	117556	,	-27455	,	-25587	,	-12.9880905	,	0
21,44	,	117588	,	-27431	,	-25592	,	-13.699738	,	0
21,44	,	117604	,	-27440	,	-25587	,	-13.471923	,	0
21,44	,	117619	,	-27446	,	-25592	,	-12.042774	,	0
21,44	,	117651	,	-27435	,	-25599	,	-9.687947	,	1
21,44	,	117667	,	-27430	,	-25589	,	-6.783723	,	3
21,44	,	117699	,	-27429	,	-25595	,	-3.5729742	,	5
21,44	,	117715	,	-27443	,	-25587	,	-0.38018417	,	8
21,44	,	117732	,	-27432	,	-25596	,	2.334402	,	11
21,44	,	117764	,	-27435	,	-25590	,	4.2569695	,	13
21,44	,	117780	,	-27426	,	-25582	,	5.381523	,	14
21,44	,	117796	,	-27421	,	-25589	,	5.930724	,	15
21,44	,	117827	,	-27436	,	-25593	,	6.1433535	,	15
21,44	,	117843	,	-27428	,	-25586	,	6.055702	,	14
21,44	,	117859	,	-27417	,	-25593	,	5.6854067	,	12
21,44	,	117891	,	-27424	,	-25594	,	5.243031	,	10
21,44	,	117908	,	-27418	,	-25595	,	4.90988	,	7
21,44	,	117939	,	-27424	,	-25593	,	4.6924376	,	4
21,44	,	117956	,	-27429	,	-25593	,	4.475752	,	2
21,44	,	117971	,	-27434	,	-25593	,	4.0520883	,	1
21,44	,	118003	,	-27419	,	-25590	,	3.3063614	,	0
21,44	,	118019	,	-27424	,	-25597	,	2.3993504	,	0
21,44	,	118035	,	-27428	,	-25598	,	1.5649776	,	0
21,44	,	118067	,	-27432	,	-25599	,	0.836506	,	0
21,44	,	118083	,	-27438	,	-25604	,	0.08521128	,	0
21,44	,	118115	,	-27440	,	-25606	,	-0.8310262	,	0
21,44	,	118131	,	-27437	,	-25601	,	-1.9427214	,	0
21,44	,	118147	,	-27458	,	-25599	,	-3.2017987	,	0
21,44	,	118179	,	-27435	,	-25611	,	-4.5675406	,	0
21,44	,	118195	,	-27437	,	-25605	,	-5.8114605	,	0
21,44	,	118211	,	-27444	,	-25620	,	-6.573341	,	0
21,44	,	118243	,	-27447	,	-25618	,	-6.765304	,	0
21,44	,	118259	,	-27459	,	-25617	,	-6.6232014	,	0
21,44	,	118291	,	-27463	,	-25618	,	-6.50918	,	0
21,44	,	118307	,	-27470	,	-25619	,	-6.7352057	,	0
21,44	,	118323	,	-27465	,	-25613	,	-7.3918066	,	0
21,44	,	118355	,	-27452	,	-25616	,	-8.232437	,	0
21,44	,	118371	,	-27448	,	-25616	,	-8.733334	,	0
21,44	,	118387	,	-27448	,	-25619	,	-8.429003	,	0
21,44	,	118419	,	-27433	,	-25612	,	-7.1428223	,	0
21,44	,	118435	,	-27436	,	-25618	,	-4.908484	,	1
21,44	,	118451	,	-27438	,	-25619	,	-1.9787285	,	3
21,44	,	118483	,	-27428	,	-25608	,	1.1920412	,	5
21,45	,	118499	,	-27426	,	-25621	,	4.2172074	,	8
21,45	,	118531	,	-27424	,	-25610	,	6.883998	,	11
21,45	,	118547	,	-27432	,	-25603	,	9.003513	,	13
21,45	,	118563	,	-27422	,	-25614	,	10.381669	,	15
21,45	,	118595	,	-27423	,	-25612	,	10.970499	,	16
21,45	,	118611	,	-27419	,	-25609	,	10.900501	,	16
21,45	,	118627	,	-27413	,	-25616	,	10.387966	,	15
21,45	,	118659	,	-27415	,	-25608	,	9.676008	,	13
21,45	,	118675	,	-27412	,	-25611	,	8.941567	,	11
21,45	,	118707	,	-27418	,	-25620	,	8.227865	,	8
21,45	,	118723	,	-27410	,	-25596	,	7.502326	,	5
21,45	,	118739	,	-27410	,	-25610	,	6.774596	,	3
21,45	,	118771	,	-27419	,	-25609	,	6.0671425	,	1
21,45	,	118787	,	-27426	,	-25611	,	5.2517157	,	0
21,45	,	118803	,	-27422	,	-25606	,	4.1281996	,	0
21,45	,	118835	,	-27425	,	-25610	,	2.6720908	,	0
21,45	,	118851	,	-27432	,	-25606	,	1.01068	,	0
21,45	,	118883	,	-27416	,	-25609	,	-0.6763935	,	0
21,45	,	118899	,	-27426	,	-25611	,	-2.117571	,	0
21,45	,	118915	,	-27435	,	-25609	,	-3.1470277	,	0
21,45	,	118947	,	-27431	,	-25626	,	-3.87388	,	0
21,45	,	118963	,	-27432	,	-25598	,	-4.433736	,	0
21,45	,	118979	,	-27439	,	-25612	,	-4.856419	,	0
21,45	,	119011	,	-27435	,	-25605	,	-5.1688523	,	0
21,45	,	119027	,	-27442	,	-25613	,	-5.396638	,	0
21,45	,	119043	,	-27449	,	-25619	,	-5.6015644	,	0
21,45	,	119075	,	-27448	,	-25610	,	-5.9085984	,	0
21,45	,	119091	,	-27444	,	-25614	,	-6.331895	,	0
21,45	,	119123	,	-27437	,	-25622	,	-6.6598473	,	0
21,45	,	119139	,	-27434	,	-25614	,	-6.578579	,	0
21,45	,	119155	,	-27424	,	-25623	,	-5.8363304	,	0
21,45	,	119187	,	-27430	,	-25637	,	-4.353017	,	0
21,45	,	119203	,	-27430	,	-25598	,	-2.3191404	,	1
21,45	,	119219	,	-27432	,	-25610	,	-0.1385119	,	3
21,45	,	119251	,	-27420	,	-25608	,	1.8428545	,	5
21,45	,	119267	,	-27410	,	-25600	,	3.5762358	,	6
21,45	,	119299	,	-27421	,	-25601	,	5.1790323	,	7
21,45	,	119315	,	-27409	,	-25601	,	6.6267486	,	8
21,45	,	119331	,	-27412	,	-25597	,	7.8045454	,	9
21,45	,	119363	,	-27419	,	-25604	,	8.614025	,	10
21,45	,	119379	,	-27406	,	-25604	,	8.95022	,	10
21,45	,	119395	,	-27403	,	-25598	,	8.869584	,	9
21,45	,	119427	,	-27407	,	-25610	,	8.576332	,	7
21,45	,	119443	,	-27409	,	-25567	,	8.149156	,	5
21,45	,	119459	,	-27397	,	-25585	,	7.5750713	,	4
21,45	,	119491	,	-27402	,	-25589	,	6.948185	,	3
21,46	,	119507	,	-27408	,	-25590	,	6.345605	,	2
21,46	,	119539	,	-27414	,	-25592	,	5.64106	,	1
21,46	,	119555	,	-27401	,	-25594	,	4.692064	,	0
21,46	,	119571	,	-27403	,	-25594	,	3.602202	,	0
21,46	,	119603	,	-27403	,	-25591	,	2.6057825	,	0
21,46	,	119619	,	-27406	,	-25581	,	1.8196566	,	0
21,46	,	119635	,	-27400	,	-25589	,	1.2476236	,	0
21,46	,	119667	,	-27409	,	-25607	,	0.8600209	,	0
21,46	,	119683	,	-27405	,	-25578	,	0.5768522	,	0
21,46	,	119715	,	-27408	,	-25592	,	0.30979657	,	0
21,46	,	119731	,	-27418	,	-25598	,	-0.023562223	,	0
21,46	,	119747	,	-27422	,	-25593	,	-0.5848042	,	0
21,46	,	119779	,	-27412	,	-25600	,	-1.4774054	,	0
21,46	,	119795	,	-27430	,	-25603	,	-2.6046941	,	0
21,46	,	119811	,	-27434	,	-25603	,	-3.898171	,	0
21,46	,	119843	,	-27425	,	-25597	,	-5.350658	,	0
21,46	,	119859	,	-27427	,	-25597	,	-6.751645	,	0
21,46	,	119875	,	-27417	,	-25596	,	-7.7293925	,	0
21,46	,	119906	,	-27414	,	-25608	,	-7.9530287	,	0
21,46	,	119922	,	-27412	,	-25571	,	-7.2473	,	0
21,46	,	119955	,	-27394	,	-25599	,	-5.5996256	,	0
21,46	,	119971	,	-27398	,	-25605	,	-3.0699635	,	1
21,46	,	119987	,	-27390	,	-25583	,	0.14444685	,	3
21,46	,	120019	,	-27390	,	-25595	,	3.6583989	,	6
21,46	,	120035	,	-27388	,	-25588	,	7.032093	,	9
21,46	,	120051	,	-27390	,	-25591	,	9.866045	,	12
21,46	,	120082	,	-27387	,	-25583	,	11.857748	,	14
21,46	,	120098	,	-27389	,	-25595	,	12.860426	,	15
21,46	,	120130	,	-27400	,	-25592	,	12.825763	,	16
21,46	,	120147	,	-27390	,	-25608	,	11.767279	,	16
21,46	,	120163	,	-27397	,	-25570	,	9.87752	,	15
21,46	,	120195	,	-27396	,	-25604	,	7.496562	,	13
21,46	,	120211	,	-27402	,	-25609	,	4.9247556	,	10
21,46	,	120226	,	-27402	,	-25611	,	2.3679733	,	7
21,46	,	120258	,	-27400	,	-25602	,	0.0029764175	,	4
21,46	,	120274	,	-27397	,	-25609	,	-1.9607475	,	2
21,46	,	120290	,	-27400	,	-25605	,	-3.3369832	,	1
21,46	,	120323	,	-27403	,	-25604	,	-4.087295	,	0
21,46	,	120339	,	-27407	,	-25608	,	-4.349463	,	0
21,46	,	120371	,	-27401	,	-25609	,	-4.31351	,	0
21,46	,	120387	,	-27402	,	-25621	,	-4.071213	,	0
21,46	,	120403	,	-27405	,	-25589	,	-3.65014	,	0
21,46	,	120434	,	-27406	,	-25605	,	-3.1350179	,	0
21,46	,	120450	,	-27417	,	-25607	,	-2.6977463	,	0
21,46	,	120466	,	-27423	,	-25599	,	-2.5884137	,	0
21,46	,	120498	,	-27408	,	-25607	,	-2.9495971	,	0
21,47	,	120515	,	-27427	,	-25597	,	-3.6456528	,	0
21,47	,	120546	,	-27418	,	-25610	,	-4.473465	,	0
21,47	,	120562	,	-27424	,	-25598	,	-5.3013153	,	0
21,47	,	120579	,	-27428	,	-25608	,	-6.0224543	,	0
21,47	,	120610	,	-27427	,	-25608	,	-6.5972176	,	0
21,47	,	120626	,	-27406	,	-25608	,	-6.9013653	,	0
21,47	,	120642	,	-27412	,	-25580	,	-6.6045237	,	0
21,47	,	120674	,	-27393	,	-25604	,	-5.4134564	,	0
21,47	,	120690	,	-27391	,	-25597	,	-3.229842	,	1
21,47	,	120706	,	-27397	,	-25594	,	-0.20827079	,	3
21,47	,	120738	,	-27387	,	-25599	,	3.1899426	,	6
21,47	,	120754	,	-27380	,	-25588	,	6.4849615	,	9
21,47	,	120786	,	-27373	,	-25587	,	9.454762	,	12
21,47	,	120802	,	-27382	,	-25601	,	11.979024	,	14
21,47	,	120818	,	-27375	,	-25590	,	13.843063	,	16
21,47	,	120850	,	-27373	,	-25598	,	14.8705845	,	17
21,47	,	120866	,	-27376	,	-25607	,	15.061422	,	18
21,47	,	120882	,	-27390	,	-25580	,	14.420519	,	17
21,47	,	120914	,	-27383	,	-25600	,	12.881621	,	15
21,47	,	120930	,	-27381	,	-25603	,	10.557602	,	12
21,47	,	120962	,	-27380	,	-25609	,	7.8355074	,	9
21,47	,	120978	,	-27390	,	-25610	,	5.105166	,	6
21,47	,	120994	,	-27377	,	-25614	,	2.6024733	,	4
21,47	,	121026	,	-27381	,	-25611	,	0.5346794	,	2
21,47	,	121042	,	-27386	,	-25612	,	-0.94895244	,	1
21,47	,	121058	,	-27391	,	-25612	,	-1.9224105	,	0
21,47	,	121090	,	-27391	,	-25614	,	-2.6040852	,	0
21,47	,	121106	,	-27395	,	-25628	,	-3.1660242	,	0
21,47	,	121122	,	-27398	,	-25607	,	-3.6987205	,	0
21,47	,	121154	,	-27396	,	-25624	,	-4.238879	,	0
21,47	,	121170	,	-27404	,	-25623	,	-4.777318	,	0
21,47	,	121202	,	-27415	,	-25633	,	-5.3613863	,	0
21,47	,	121218	,	-27409	,	-25637	,	-6.111041	,	0
21,47	,	121234	,	-27420	,	-25636	,	-7.0484324	,	0
21,47	,	121266	,	-27422	,	-25643	,	-8.100383	,	0
21,47	,	121282	,	-27408	,	-25650	,	-9.123405	,	0
21,47	,	121298	,	-27424	,	-25644	,	-9.860144	,	0
21,47	,	121330	,	-27424	,	-25647	,	-10.170568	,	0
21,47	,	121346	,	-27424	,	-25649	,	-10.134531	,	0
21,47	,	121378	,	-27440	,	-25628	,	-9.911427	,	0
21,47	,	121394	,	-27428	,	-25649	,	-9.684087	,	0
21,47	,	121410	,	-27413	,	-25647	,	-9.408734	,	0
21,47	,	121442	,	-27409	,	-25653	,	-8.679283	,	0
21,47	,	121458	,	-27402	,	-25639	,	-7.0998125	,	0
21,47	,	121474	,	-27399	,	-25645	,	-4.5928044	,	1
21,48	,	121506	,	-27411	,	-25641	,	-1.4420662	,	3
21,48	,	121522	,	-27389	,	-25634	,	1.8558667	,	6
21,48	,	121538	,	-27394	,	-25640	,	4.9400196	,	9
21,48	,	121570	,	-27388	,	-25643	,	7.648073	,	12
21,48	,	121586	,	-27386	,	-25658	,	9.845681	,	14
21,48	,	121618	,	-27387	,	-25623	,	11.420702	,	16
21,48	,	121634	,	-27382	,	-25631	,	12.315958	,	17
21,48	,	121650	,	-27387	,	-25638	,	12.530848	,	17
21,48	,	121682	,	-27380	,	-25625	,	12.122425	,	16
21,48	,	121698	,	-27381	,	-25634	,	11.226149	,	14
21,48	,	121714	,	-27383	,	-25635	,	10.017525	,	11
21,48	,	121746	,	-27378	,	-25635	,	8.633656	,	8
21,48	,	121762	,	-27383	,	-25628	,	7.194013	,	5
21,48	,	121794	,	-27385	,	-25638	,	5.781003	,	3
21,48	,	121810	,	-27372	,	-25631	,	4.46361	,	1
21,48	,	121826	,	-27378	,	-25637	,	3.392272	,	0
21,48	,	121858	,	-27380	,	-25621	,	2.66231	,	0
21,48	,	121874	,	-27384	,	-25642	,	2.1704855	,	0
21,48	,	121890	,	-27388	,	-25634	,	1.7103289	,	0
21,48	,	121922	,	-27395	,	-25634	,	1.0680302	,	0
21,48	,	121938	,	-27385	,	-25634	,	0.12949145	,	0
21,48	,	121954	,	-27409	,	-25642	,	-1.0800725	,	0
21,48	,	121986	,	-27397	,	-25646	,	-2.5346513	,	0
21,48	,	122002	,	-27395	,	-25630	,	-4.1125383	,	0
21,48	,	122034	,	-27391	,	-25643	,	-5.455959	,	0
21,48	,	122050	,	-27409	,	-25648	,	-6.288467	,	0
21,48	,	122066	,	-27404	,	-25649	,	-6.688335	,	0
21,48	,	122098	,	-27406	,	-25641	,	-6.8597836	,	0
21,48	,	122114	,	-27408	,	-25643	,	-6.8907957	,	0
21,48	,	122130	,	-27419	,	-25650	,	-6.8562026	,	0
21,48	,	122162	,	-27409	,	-25649	,	-6.8656836	,	0
21,48	,	122178	,	-27398	,	-25656	,	-6.8284993	,	0
21,48	,	122210	,	-27383	,	-25646	,	-6.3400784	,	0
21,48	,	122226	,	-27397	,	-25653	,	-5.025033	,	0
21,48	,	122242	,	-27395	,	-25636	,	-2.9775991	,	1
21,48	,	122274	,	-27385	,	-25640	,	-0.6225865	,	3
21,48	,	122290	,	-27375	,	-25638	,	1.78145	,	5
21,48	,	122306	,	-27368	,	-25634	,	4.2421412	,	7
21,48	,	122337	,	-27376	,	-25615	,	6.735445	,	9
21,48	,	122354	,	-27362	,	-25625	,	9.054781	,	11
21,48	,	122370	,	-27366	,	-25627	,	10.9891205	,	13
21,48	,	122402	,	-27377	,	-25634	,	12.353612	,	14
21,48	,	122418	,	-27363	,	-25632	,	12.927526	,	15
21,48	,	122450	,	-27374	,	-25634	,	12.646349	,	14
21,48	,	122466	,	-27371	,	-25628	,	11.615738	,	12
21,48	,	122482	,	-27373	,	-25623	,	9.978783	,	10
21,49	,	122513	,	-27377	,	-25625	,	7.920962	,	8
21,49	,	122529	,	-27365	,	-25625	,	5.688473	,	6
21,49	,	122546	,	-27363	,	-25628	,	3.63202	,	4
21,49	,	122578	,	-27374	,	-25624	,	2.05706	,	2
21,49	,	122594	,	-27374	,	-25624	,	0.96582246	,	1
21,49	,	122625	,	-27372	,	-25627	,	0.18025184	,	0
21,49	,	122642	,	-27372	,	-25623	,	-0.39436483	,	0
21,49	,	122657	,	-27391	,	-25619	,	-0.85725987	,	0
21,49	,	122689	,	-27397	,	-25633	,	-1.5147458	,	0
21,49	,	122705	,	-27388	,	-25620	,	-2.6499195	,	0
21,49	,	122722	,	-27393	,	-25631	,	-4.162039	,	0
21,49	,	122754	,	-27396	,	-25637	,	-5.721239	,	0
21,49	,	122770	,	-27397	,	-25636	,	-7.085712	,	0
21,49	,	122801	,	-27401	,	-25646	,	-8.139959	,	0
21,49	,	122818	,	-27409	,	-25634	,	-8.884034	,	0
21,49	,	122834	,	-27405	,	-25631	,	-9.402478	,	0
21,49	,	122865	,	-27416	,	-25618	,	-9.76574	,	0
21,49	,	122881	,	-27420	,	-25626	,	-10.054472	,	0
21,49	,	122897	,	-27406	,	-25617	,	-10.303301	,	0
21,49	,	122930	,	-27408	,	-25619	,	-10.326379	,	0
21,49	,	122946	,	-27397	,	-25620	,	-9.818676	,	0
21,49	,	122962	,	-27409	,	-25630	,	-8.628287	,	0
21,49	,	122994	,	-27406	,	-25630	,	-6.9047313	,	1
21,49	,	123009	,	-27407	,	-25627	,	-4.984097	,	2
21,49	,	123041	,	-27389	,	-25635	,	-3.065473	,	3
21,49	,	123057	,	-27394	,	-25632	,	-1.100338	,	4
21,49	,	123073	,	-27401	,	-25632	,	0.9126737	,	5
21,49	,	123106	,	-27397	,	-25635	,	2.7276793	,	7
21,49	,	123122	,	-27404	,	-25642	,	4.0431423	,	8
21,49	,	123138	,	-27411	,	-25644	,	4.638283	,	9
21,49	,	123170	,	-27410	,	-25647	,	4.378897	,	9
21,49	,	123186	,	-27428	,	-25649	,	3.2412791	,	8
21,49	,	123201	,	-27420	,	-25683	,	1.2922151	,	7
21,49	,	123233	,	-27427	,	-25672	,	-1.235832	,	6
21,49	,	123249	,	-27432	,	-25678	,	-3.9722013	,	5
21,49	,	123282	,	-27440	,	-25685	,	-6.6347904	,	4
21,49	,	123298	,	-27437	,	-25689	,	-9.060707	,	2
21,49	,	123314	,	-27428	,	-25675	,	-11.018933	,	1
21,49	,	123345	,	-27437	,	-25677	,	-12.201847	,	0
21,49	,	123362	,	-27435	,	-25676	,	-12.473951	,	0
21,49	,	123377	,	-27443	,	-25684	,	-11.97788	,	0
21,49	,	123409	,	-27446	,	-25670	,	-11.023802	,	0
21,49	,	123425	,	-27449	,	-25684	,	-9.95666	,	0
21,49	,	123457	,	-27461	,	-25682	,	-9.075716	,	1
21,49	,	123474	,	-27467	,	-25686	,	-8.649736	,	1
21,49	,	123490	,	-27467	,	-25696	,	-8.838686	,	1
21,50	,	123522	,	-27474	,	-25698	,	-9.571287	,	1
21,50	,	123537	,	-27463	,	-25707	,	-10.568655	,	1
21,50	,	123553	,	-27476	,	-25690	,	-11.462276	,	1
21,50	,	123585	,	-27485	,	-25692	,	-12.059815	,	1
21,50	,	123601	,	-27490	,	-25700	,	-12.47765	,	1
21,50	,	123633	,	-27489	,	-25695	,	-12.877583	,	1
21,50	,	123649	,	-27491	,	-25698	,	-13.242516	,	0
21,50	,	123665	,	-27481	,	-25704	,	-13.3943815	,	0
21,50	,	123697	,	-27468	,	-25697	,	-13.005315	,	0
21,50	,	123713	,	-27467	,	-25698	,	-11.690936	,	0
21,50	,	123729	,	-27464	,	-25685	,	-9.301628	,	1
21,50	,	123761	,	-27462	,	-25686	,	-6.056221	,	3
21,50	,	123777	,	-27455	,	-25691	,	-2.3633876	,	6
21,50	,	123793	,	-27458	,	-25681	,	1.3595362	,	9
21,50	,	123825	,	-27451	,	-25685	,	4.7417183	,	12
21,50	,	123841	,	-27453	,	-25685	,	7.508977	,	15
21,50	,	123873	,	-27449	,	-25682	,	9.514566	,	17
21,50	,	123889	,	-27461	,	-25679	,	10.664704	,	19
21,50	,	123905	,	-27456	,	-25682	,	10.85912	,	20
21,50	,	123937	,	-27453	,	-25677	,	10.125288	,	19
21,50	,	123953	,	-27473	,	-25679	,	8.636734	,	17
21,50	,	123969	,	-27464	,	-25685	,	6.5201845	,	14
21,50	,	124001	,	-27463	,	-25688	,	3.9667797	,	11
21,50	,	124017	,	-27454	,	-25696	,	1.4177814	,	8
21,50	,	124049	,	-27465	,	-25679	,	-0.66199946	,	5
21,50	,	124065	,	-27460	,	-25688	,	-2.0792131	,	3
21,50	,	124081	,	-27475	,	-25699	,	-2.9377542	,	1
21,50	,	124113	,	-27468	,	-25707	,	-3.487825	,	0
21,50	,	124129	,	-27475	,	-25703	,	-3.9289782	,	0
21,50	,	124145	,	-27480	,	-25712	,	-4.367628	,	0
21,50	,	124177	,	-27488	,	-25712	,	-4.927691	,	0
21,50	,	124193	,	-27490	,	-25712	,	-5.7338357	,	0
21,50	,	124209	,	-27491	,	-25719	,	-6.7932673	,	0
21,50	,	124241	,	-27498	,	-25717	,	-7.990359	,	0
21,50	,	124257	,	-27494	,	-25728	,	-9.162165	,	0
21,50	,	124289	,	-27502	,	-25705	,	-10.140106	,	0
21,50	,	124305	,	-27513	,	-25724	,	-10.867211	,	0
21,50	,	124321	,	-27520	,	-25727	,	-11.49617	,	0
21,50	,	124353	,	-27523	,	-25729	,	-12.225872	,	0
21,50	,	124369	,	-27522	,	-25734	,	-13.079775	,	0
21,50	,	124385	,	-27522	,	-25740	,	-13.8709345	,	0
21,50	,	124417	,	-27530	,	-25743	,	-14.364449	,	0
21,50	,	124433	,	-27534	,	-25747	,	-14.484995	,	0
21,50	,	124465	,	-27535	,	-25746	,	-14.312127	,	0
21,50	,	124481	,	-27530	,	-25745	,	-13.890045	,	0
21,51	,	124497	,	-27533	,	-25752	,	-13.152693	,	0
21,51	,	124529	,	-27515	,	-25726	,	-11.967369	,	0
21,51	,	124545	,	-27514	,	-25735	,	-10.1448965	,	1
21,51	,	124561	,	-27514	,	-25727	,	-7.5950484	,	2
21,51	,	124593	,	-27522	,	-25725	,	-4.5604386	,	4
21,51	,	124609	,	-27508	,	-25726	,	-1.4904542	,	7
21,51	,	124625	,	-27491	,	-25722	,	1.3961225	,	10
21,51	,	124657	,	-27520	,	-25733	,	4.0902953	,	12
21,51	,	124673	,	-27513	,	-25733	,	6.311244	,	14
21,51	,	124705	,	-27512	,	-25730	,	7.6332393	,	16
21,51	,	124721	,	-27515	,	-25739	,	7.9435663	,	17
21,51	,	124737	,	-27529	,	-25758	,	7.3217525	,	16
21,51	,	124769	,	-27534	,	-25750	,	5.77734	,	15
21,51	,	124785	,	-27532	,	-25766	,	3.3635373	,	13
21,51	,	124801	,	-27538	,	-25768	,	0.36265182	,	10
21,51	,	124833	,	-27552	,	-25767	,	-2.8688855	,	7
21,51	,	124849	,	-27547	,	-25777	,	-6.094496	,	5
21,51	,	124880	,	-27554	,	-25783	,	-9.086884	,	3
21,51	,	124897	,	-27547	,	-25800	,	-11.548722	,	1
21,51	,	124913	,	-27569	,	-25805	,	-13.285929	,	0
21,51	,	124945	,	-27575	,	-25805	,	-14.429579	,	0
21,51	,	124961	,	-27580	,	-25828	,	-15.328156	,	0
21,51	,	124977	,	-27585	,	-25853	,	-16.203175	,	0
21,51	,	125009	,	-27587	,	-25841	,	-17.048159	,	0
21,51	,	125025	,	-27620	,	-25872	,	-17.877182	,	0
21,51	,	125056	,	-27616	,	-25891	,	-18.929707	,	0
21,51	,	125073	,	-27624	,	-25913	,	-20.375702	,	0
21,51	,	125089	,	-27652	,	-25930	,	-22.146713	,	0
21,51	,	125121	,	-27659	,	-25944	,	-24.250814	,	0
21,51	,	125137	,	-27677	,	-25967	,	-26.76651	,	0
21,51	,	125153	,	-27694	,	-25984	,	-29.661697	,	0
21,51	,	125185	,	-27696	,	-25997	,	-32.78994	,	0
21,51	,	125201	,	-27716	,	-26014	,	-35.86509	,	0
21,51	,	125217	,	-27728	,	-26042	,	-38.59826	,	0
21,51	,	125248	,	-27726	,	-26041	,	-40.777622	,	0
21,51	,	125264	,	-27730	,	-26050	,	-42.10186	,	0
21,51	,	125297	,	-27725	,	-26044	,	-42.189938	,	0
21,51	,	125313	,	-27730	,	-26054	,	-40.77733	,	0
21,51	,	125329	,	-27731	,	-26042	,	-37.873352	,	1
21,51	,	125361	,	-27728	,	-26036	,	-33.755978	,	3
21,51	,	125377	,	-27724	,	-26041	,	-28.787392	,	7
21,51	,	125393	,	-27765	,	-26085	,	-23.504498	,	11
21,51	,	125424	,	-27767	,	-26123	,	-18.854118	,	16
21,51	,	125440	,	-27780	,	-26144	,	-15.780888	,	20
21,51	,	125473	,	-27784	,	-26146	,	-14.637161	,	23
21,51	,	125489	,	-27777	,	-26121	,	-15.120806	,	24
21,52	,	125505	,	-27734	,	-26049	,	-16.262505	,	24
21,52	,	125537	,	-27706	,	-26018	,	-16.458858	,	23
21,52	,	125553	,	-27684	,	-25975	,	-14.115389	,	21
21,52	,	125569	,	-27667	,	-25945	,	-8.472928	,	19
21,52	,	125600	,	-27631	,	-25924	,	0.2737522	,	20
21,52	,	125616	,	-27621	,	-25910	,	11.370283	,	23
21,52	,	125634	,	-27618	,	-25892	,	23.622482	,	30
21,52	,	125665	,	-27606	,	-25885	,	35.46418	,	39
21,52	,	125681	,	-27596	,	-25883	,	45.446922	,	49
21,52	,	125713	,	-27597	,	-25881	,	52.62304	,	58
21,52	,	125729	,	-27608	,	-25878	,	56.433094	,	65
21,52	,	125745	,	-27609	,	-25869	,	56.571392	,	68
21,52	,	125777	,	-27595	,	-25866	,	53.21747	,	66
21,52	,	125792	,	-27596	,	-25868	,	47.21605	,	61
21,52	,	125808	,	-27605	,	-25868	,	39.681656	,	53
21,52	,	125840	,	-27588	,	-25866	,	31.580563	,	42
21,52	,	125857	,	-27607	,	-25857	,	23.707537	,	30
21,52	,	125888	,	-27602	,	-25860	,	16.583046	,	19
21,52	,	125905	,	-27599	,	-25844	,	10.449075	,	10
21,52	,	125920	,	-27601	,	-25865	,	5.4822407	,	3
21,52	,	125952	,	-27591	,	-25836	,	1.8204756	,	0
21,52	,	125968	,	-27573	,	-25816	,	-0.38595343	,	0
21,52	,	125984	,	-27525	,	-25780	,	-0.71468353	,	0
21,52	,	126016	,	-27523	,	-25774	,	1.463808	,	0
21,52	,	126033	,	-27502	,	-25771	,	6.3442426	,	2
21,52	,	126049	,	-27493	,	-25767	,	13.351361	,	6
21,52	,	126081	,	-27517	,	-25747	,	21.29747	,	13
21,52	,	126096	,	-27521	,	-25752	,	28.511713	,	20
21,52	,	126128	,	-27517	,	-25754	,	33.40667	,	27
21,52	,	126144	,	-27519	,	-25747	,	35.21208	,	31
21,52	,	126160	,	-27524	,	-25756	,	33.988255	,	32
21,52	,	126192	,	-27535	,	-25755	,	30.207817	,	32
21,52	,	126208	,	-27542	,	-25760	,	24.462656	,	32
21,52	,	126225	,	-27526	,	-25757	,	17.493208	,	30
21,52	,	126256	,	-27530	,	-25761	,	10.307576	,	26
21,52	,	126272	,	-27537	,	-25759	,	3.8706665	,	19
21,52	,	126304	,	-27540	,	-25764	,	-1.3220711	,	12
21,52	,	126320	,	-27533	,	-25764	,	-5.155893	,	5
21,52	,	126336	,	-27540	,	-25763	,	-7.6290555	,	1
21,52	,	126368	,	-27548	,	-25759	,	-8.896954	,	0
21,52	,	126384	,	-27540	,	-25762	,	-9.286465	,	0
21,52	,	126400	,	-27552	,	-25775	,	-9.099551	,	0
21,52	,	126432	,	-27552	,	-25767	,	-8.598194	,	0
21,52	,	126448	,	-27562	,	-25769	,	-8.075996	,	0
21,52	,	126480	,	-27557	,	-25774	,	-7.760851	,	0
21,52	,	126496	,	-27553	,	-25771	,	-7.6575456	,	0
21,53	,	126512	,	-27555	,	-25765	,	-7.5532713	,	0
21,53	,	126544	,	-27566	,	-25764	,	-7.2953086	,	0
21,53	,	126560	,	-27572	,	-25771	,	-7.002037	,	0
21,53	,	126576	,	-27565	,	-25766	,	-6.8747997	,	0
21,53	,	126608	,	-27560	,	-25777	,	-6.8781013	,	0
21,53	,	126624	,	-27574	,	-25783	,	-6.819671	,	0
21,53	,	126640	,	-27570	,	-25781	,	-6.6603136	,	0
21,53	,	126672	,	-27554	,	-25766	,	-6.390916	,	0
21,53	,	126688	,	-27542	,	-25773	,	-5.7228775	,	0
21,53	,	126720	,	-27544	,	-25775	,	-4.2750664	,	0
21,53	,	126736	,	-27534	,	-25762	,	-1.9589305	,	1
21,53	,	126752	,	-27541	,	-25766	,	0.9747138	,	3
21,53	,	126784	,	-27534	,	-25766	,	4.0854554	,	5
21,53	,	126800	,	-27525	,	-25765	,	6.9696283	,	8
21,53	,	126816	,	-27531	,	-25758	,	9.402024	,	10
21,53	,	126848	,	-27529	,	-25750	,	11.209159	,	12
21,53	,	126864	,	-27528	,	-25757	,	12.229989	,	13
21,53	,	126896	,	-27529	,	-25759	,	12.424799	,	14
21,53	,	126912	,	-27521	,	-25760	,	11.897635	,	14
21,53	,	126928	,	-27523	,	-25760	,	10.875757	,	13
21,53	,	126960	,	-27515	,	-25765	,	9.641367	,	11
21,53	,	126976	,	-27519	,	-25758	,	8.44042	,	9
21,53	,	126992	,	-27525	,	-25753	,	7.370108	,	6
21,53	,	127024	,	-27524	,	-25757	,	6.336077	,	4
21,53	,	127040	,	-27520	,	-25760	,	5.2409983	,	2
21,53	,	127056	,	-27532	,	-25759	,	4.086505	,	1
21,53	,	127088	,	-27531	,	-25759	,	2.8423405	,	0
21,53	,	127104	,	-27536	,	-25759	,	1.4433718	,	0
21,53	,	127136	,	-27513	,	-25765	,	0.0025544167	,	0
21,53	,	127152	,	-27527	,	-25760	,	-1.1318223	,	0
21,53	,	127168	,	-27516	,	-25754	,	-1.6750689	,	0
21,53	,	127200	,	-27521	,	-25755	,	-1.5982432	,	0
21,53	,	127216	,	-27527	,	-25767	,	-1.0699482	,	0
21,53	,	127232	,	-27540	,	-25767	,	-0.46127057	,	0
21,53	,	127264	,	-27534	,	-25765	,	-0.21230519	,	0
21,53	,	127280	,	-27538	,	-25762	,	-0.52168906	,	0
21,53	,	127311	,	-27543	,	-25762	,	-1.3133726	,	0
21,53	,	127328	,	-27544	,	-25770	,	-2.4438474	,	0
21,53	,	127344	,	-27550	,	-25764	,	-3.7802002	,	0
21,53	,	127376	,	-27554	,	-25763	,	-5.2058067	,	0
21,53	,	127392	,	-27548	,	-25762	,	-6.595395	,	0
21,53	,	127408	,	-27550	,	-25766	,	-7.734486	,	0
21,53	,	127440	,	-27531	,	-25767	,	-8.309393	,	0
21,53	,	127456	,	-27529	,	-25765	,	-7.9620357	,	0
21,53	,	127472	,	-27517	,	-25755	,	-6.441716	,	0
21,54	,	127504	,	-27512	,	-25749	,	-3.747075	,	1
21,54	,	127520	,	-27510	,	-25758	,	-0.13928509	,	3
21,54	,	127552	,	-27507	,	-25751	,	3.9055016	,	6
21,54	,	127568	,	-27509	,	-25751	,	7.817154	,	10
21,54	,	127584	,	-27510	,	-25754	,	11.056026	,	13
21,54	,	127616	,	-27508	,	-25750	,	13.224563	,	16
21,54	,	127632	,	-27507	,	-25752	,	14.180057	,	18
21,54	,	127648	,	-27508	,	-25747	,	14.013962	,	18
21,54	,	127680	,	-27498	,	-25753	,	12.982625	,	18
21,54	,	127696	,	-27504	,	-25752	,	11.453302	,	17
21,54	,	127728	,	-27512	,	-25759	,	9.69783	,	15
21,54	,	127744	,	-27513	,	-25760	,	7.755869	,	12
21,54	,	127760	,	-27513	,	-25762	,	5.619693	,	8
21,54	,	127792	,	-27504	,	-25757	,	3.4495559	,	5
21,54	,	127808	,	-27492	,	-25752	,	1.6191905	,	2
21,54	,	127824	,	-27500	,	-25762	,	0.5308428	,	0
21,54	,	127856	,	-27503	,	-25765	,	0.26643038	,	0
21,54	,	127872	,	-27514	,	-25772	,	0.49228966	,	0
21,54	,	127888	,	-27518	,	-25761	,	0.6926364	,	0
21,54	,	127920	,	-27521	,	-25778	,	0.45121285	,	0
21,54	,	127935	,	-27515	,	-25781	,	-0.34293324	,	0
21,54	,	127968	,	-27532	,	-25779	,	-1.5505826	,	0
21,54	,	127984	,	-27524	,	-25789	,	-3.0190346	,	0
21,54	,	128000	,	-27540	,	-25785	,	-4.640882	,	0
21,54	,	128032	,	-27519	,	-25802	,	-6.247654	,	0
21,54	,	128048	,	-27545	,	-25794	,	-7.6072145	,	0
21,54	,	128064	,	-27530	,	-25804	,	-8.594038	,	0
21,54	,	128096	,	-27545	,	-25793	,	-9.221509	,	0
21,54	,	128111	,	-27549	,	-25808	,	-9.580607	,	0
21,54	,	128143	,	-27558	,	-25804	,	-9.876852	,	0
21,54	,	128160	,	-27577	,	-25808	,	-10.407657	,	0
21,54	,	128176	,	-27578	,	-25805	,	-11.464064	,	0
21,54	,	128208	,	-27576	,	-25811	,	-13.08551	,	0
21,54	,	128224	,	-27576	,	-25817	,	-14.912828	,	0
21,54	,	128240	,	-27583	,	-25834	,	-16.461388	,	0
21,54	,	128271	,	-27564	,	-25825	,	-17.34202	,	0
21,54	,	128287	,	-27575	,	-25829	,	-17.230873	,	0
21,54	,	128303	,	-27571	,	-25821	,	-16.016232	,	0
21,54	,	128335	,	-27558	,	-25832	,	-13.846683	,	1
21,54	,	128352	,	-27573	,	-25849	,	-10.952028	,	3
21,54	,	128384	,	-27560	,	-25821	,	-7.6656466	,	5
21,54	,	128400	,	-27576	,	-25854	,	-4.420328	,	8
21,54	,	128416	,	-27572	,	-25865	,	-1.6446738	,	11
21,54	,	128448	,	-27581	,	-25873	,	0.31126165	,	13
21,54	,	128464	,	-27588	,	-25873	,	1.237035	,	14
21,54	,	128480	,	-27605	,	-25883	,	0.9841518	,	14
21,55	,	128511	,	-27612	,	-25900	,	-0.5716245	,	14
21,55	,	128527	,	-27617	,	-25896	,	-3.3709729	,	13
21,55	,	128559	,	-27616	,	-25902	,	-7.022446	,	11
21,55	,	128576	,	-27622	,	-25916	,	-10.893121	,	9
21,55	,	128592	,	-27627	,	-25926	,	-14.385513	,	6
21,55	,	128624	,	-27636	,	-25917	,	-17.150377	,	3
21,55	,	128639	,	-27635	,	-25959	,	-19.078594	,	1
21,55	,	128655	,	-27658	,	-25969	,	-20.244856	,	0
21,55	,	128687	,	-27670	,	-25986	,	-20.977524	,	0
21,55	,	128703	,	-27671	,	-26002	,	-21.704166	,	0
21,55	,	128735	,	-27694	,	-26015	,	-22.66159	,	0
21,55	,	128751	,	-27694	,	-26033	,	-23.920519	,	0
21,55	,	128767	,	-27716	,	-26039	,	-25.474003	,	0
21,55	,	128799	,	-27715	,	-26043	,	-27.230572	,	0
21,55	,	128815	,	-27719	,	-26057	,	-28.962448	,	0
21,55	,	128831	,	-27719	,	-26073	,	-30.273005	,	0
21,55	,	128863	,	-27732	,	-26053	,	-30.807016	,	0
21,55	,	128879	,	-27732	,	-26070	,	-30.474472	,	0
21,55	,	128895	,	-27732	,	-26080	,	-29.358719	,	0
21,55	,	128927	,	-27739	,	-26076	,	-27.56351	,	1
21,55	,	128944	,	-27746	,	-26094	,	-25.275494	,	2
21,55	,	128975	,	-27763	,	-26114	,	-22.862923	,	4
21,55	,	128991	,	-27799	,	-26166	,	-20.956577	,	6
21,55	,	129007	,	-27830	,	-26214	,	-20.467567	,	7
21,55	,	129039	,	-27846	,	-26262	,	-22.205643	,	7
21,55	,	129055	,	-27849	,	-26284	,	-26.259346	,	7
21,55	,	129071	,	-27844	,	-26300	,	-31.76022	,	7
21,55	,	129103	,	-27845	,	-26274	,	-37.25456	,	7
21,55	,	129119	,	-27838	,	-26269	,	-41.319077	,	6
21,55	,	129151	,	-27818	,	-26242	,	-42.883854	,	5
21,55	,	129167	,	-27799	,	-26182	,	-41.22795	,	3
21,55	,	129183	,	-27764	,	-26141	,	-35.950233	,	2
21,55	,	129215	,	-27741	,	-26124	,	-27.00015	,	6
21,55	,	129231	,	-27729	,	-26109	,	-14.855097	,	14
21,55	,	129247	,	-27720	,	-26092	,	-0.68948364	,	26
21,55	,	129279	,	-27716	,	-26080	,	13.824913	,	40
21,55	,	129296	,	-27708	,	-26081	,	26.990204	,	54
21,55	,	129311	,	-27702	,	-26067	,	37.505795	,	67
21,55	,	129343	,	-27695	,	-26059	,	44.668495	,	77
21,55	,	129359	,	-27698	,	-26056	,	48.313713	,	84
21,55	,	129391	,	-27701	,	-26057	,	48.611404	,	86
21,55	,	129407	,	-27703	,	-26071	,	45.932564	,	81
21,55	,	129423	,	-27703	,	-26054	,	40.855103	,	73
21,55	,	129455	,	-27710	,	-26062	,	34.117023	,	61
21,55	,	129471	,	-27706	,	-26055	,	26.495327	,	47
21,55	,	129487	,	-27697	,	-26047	,	18.807737	,	33
21,56	,	129519	,	-27702	,	-26065	,	11.869397	,	20
21,56	,	129535	,	-27702	,	-26054	,	6.228982	,	10
21,56	,	129567	,	-27702	,	-26038	,	2.0478878	,	3
21,56	,	129583	,	-27695	,	-26019	,	-0.72149324	,	0
21,56	,	129599	,	-27674	,	-26014	,	-2.0736098	,	0
21,56	,	129631	,	-27674	,	-26000	,	-1.8812726	,	0
21,56	,	129647	,	-27672	,	-25991	,	-0.19883841	,	0
21,56	,	129663	,	-27661	,	-25974	,	2.5689895	,	1
21,56	,	129695	,	-27653	,	-25961	,	5.941223	,	3
21,56	,	129711	,	-27650	,	-25954	,	9.536357	,	6
21,56	,	129727	,	-27646	,	-25948	,	12.9943495	,	9
21,56	,	129759	,	-27649	,	-25927	,	15.934802	,	12
21,56	,	129775	,	-27647	,	-25921	,	17.998898	,	14
21,56	,	129807	,	-27635	,	-25918	,	19.002985	,	16
21,56	,	129823	,	-27621	,	-25887	,	19.133118	,	17
21,56	,	129839	,	-27600	,	-25877	,	18.943966	,	17
21,56	,	129871	,	-27588	,	-25874	,	19.117805	,	16
21,56	,	129887	,	-27584	,	-25863	,	20.092829	,	14
21,56	,	129903	,	-27584	,	-25858	,	21.797619	,	11
21,56	,	129935	,	-27579	,	-25863	,	23.749748	,	9
21,56	,	129951	,	-27568	,	-25855	,	25.432838	,	7
21,56	,	129983	,	-27566	,	-25852	,	26.560497	,	6
21,56	,	129999	,	-27580	,	-25846	,	26.94074	,	5
21,56	,	130015	,	-27570	,	-25843	,	26.313599	,	4
21,56	,	130047	,	-27566	,	-25844	,	24.595688	,	4
21,56	,	130063	,	-27576	,	-25846	,	22.003998	,	4
21,56	,	130079	,	-27574	,	-25838	,	18.791584	,	4
21,56	,	130111	,	-27566	,	-25819	,	15.211078	,	4
21,56	,	130127	,	-27577	,	-25827	,	11.606177	,	3
21,56	,	130159	,	-27573	,	-25827	,	8.2413225	,	2
21,56	,	130175	,	-27585	,	-25830	,	5.196157	,	1
21,56	,	130191	,	-27587	,	-25833	,	2.4226875	,	0
21,56	,	130223	,	-27581	,	-25826	,	-0.120929	,	0
21,56	,	130239	,	-27574	,	-25826	,	-2.2752507	,	0
21,56	,	130255	,	-27578	,	-25825	,	-3.749097	,	0
21,56	,	130287	,	-27583	,	-25830	,	-4.4344244	,	0
21,56	,	130303	,	-27585	,	-25823	,	-4.510883	,	0
21,56	,	130335	,	-27594	,	-25837	,	-4.303316	,	0
21,56	,	130351	,	-27590	,	-25832	,	-4.1181173	,	0
21,56	,	130367	,	-27591	,	-25830	,	-4.0922775	,	0
21,56	,	130399	,	-27597	,	-25829	,	-4.2054157	,	0
21,56	,	130415	,	-27604	,	-25832	,	-4.4709435	,	0
21,56	,	130431	,	-27616	,	-25824	,	-5.0246906	,	0
21,56	,	130463	,	-27595	,	-25826	,	-5.923287	,	0
21,56	,	130479	,	-27602	,	-25826	,	-6.8828635	,	0
21,57	,	130495	,	-27623	,	-25828	,	-7.5857325	,	0
21,57	,	130527	,	-27606	,	-25823	,	-8.067868	,	0
21,57	,	130543	,	-27615	,	-25824	,	-8.415773	,	0
21,57	,	130575	,	-27608	,	-25819	,	-8.533526	,	0
21,57	,	130591	,	-27595	,	-25819	,	-8.235705	,	0
21,57	,	130607	,	-27594	,	-25826	,	-7.2741804	,	0
21,57	,	130638	,	-27596	,	-25817	,	-5.5409894	,	0
21,57	,	130654	,	-27587	,	-25820	,	-3.2136908	,	1
21,57	,	130670	,	-27580	,	-25822	,	-0.54233027	,	3
21,57	,	130703	,	-27590	,	-25829	,	2.244284	,	5
21,57	,	130719	,	-27597	,	-25818	,	4.75504	,	7
21,57	,	130735	,	-27595	,	-25828	,	6.4943814	,	9
21,57	,	130767	,	-27590	,	-25810	,	7.217053	,	10
21,57	,	130782	,	-27594	,	-25821	,	7.0398436	,	10
21,57	,	130814	,	-27607	,	-25821	,	6.1574383	,	10
21,57	,	130830	,	-27599	,	-25817	,	4.6649156	,	10
21,57	,	130847	,	-27595	,	-25831	,	2.7686608	,	9
21,57	,	130879	,	-27609	,	-25821	,	0.8093345	,	7
21,57	,	130895	,	-27612	,	-25825	,	-1.0578125	,	5
21,57	,	130911	,	-27609	,	-25829	,	-2.8484347	,	3
21,57	,	130943	,	-27605	,	-25820	,	-4.4587097	,	1
21,57	,	130958	,	-27602	,	-25840	,	-5.6348257	,	0
21,57	,	130990	,	-27608	,	-25838	,	-6.1770644	,	0
21,57	,	131006	,	-27618	,	-25825	,	-6.1476173	,	0
21,57	,	131022	,	-27616	,	-25840	,	-5.8510466	,	0
21,57	,	131055	,	-27611	,	-25847	,	-5.532284	,	0
21,57	,	131087	,	-27636	,	-25833	,	-4.994585	,	0
21,57	,	131119	,	-27629	,	-25846	,	-5.09501	,	0
21,57	,	131134	,	-27637	,	-25848	,	-5.662508	,	0
21,57	,	131166	,	-27633	,	-25838	,	-6.5754976	,	0
21,57	,	131182	,	-27648	,	-25849	,	-7.637191	,	0
21,57	,	131198	,	-27651	,	-25855	,	-8.774191	,	0
21,57	,	131231	,	-27649	,	-25851	,	-9.975849	,	0
21,57	,	131247	,	-27654	,	-25852	,	-11.113665	,	0
21,57	,	131263	,	-27657	,	-25862	,	-12.009827	,	0
21,57	,	131294	,	-27657	,	-25853	,	-12.566359	,	0
21,57	,	131311	,	-27684	,	-25867	,	-12.849833	,	0
21,57	,	131326	,	-27672	,	-25855	,	-13.124557	,	0
21,57	,	131358	,	-27692	,	-25860	,	-13.610742	,	0
21,57	,	131374	,	-27695	,	-25868	,	-14.379433	,	0
21,57	,	131406	,	-27685	,	-25873	,	-15.368185	,	0
21,57	,	131423	,	-27693	,	-25865	,	-16.266329	,	0
21,57	,	131438	,	-27673	,	-25866	,	-16.623674	,	0
21,57	,	131470	,	-27682	,	-25867	,	-16.055668	,	0
21,57	,	131486	,	-27667	,	-25863	,	-14.37486	,	0
21,58	,	131502	,	-27664	,	-25867	,	-11.614164	,	1
21,58	,	131534	,	-27677	,	-25856	,	-8.032196	,	3
21,58	,	131550	,	-27682	,	-25863	,	-4.2292733	,	6
21,58	,	131582	,	-27673	,	-25857	,	-0.9136524	,	9
21,58	,	131598	,	-27659	,	-25852	,	1.616209	,	12
21,58	,	131614	,	-27656	,	-25839	,	3.566102	,	14
21,58	,	131646	,	-27667	,	-25850	,	5.200913	,	15
21,58	,	131662	,	-27661	,	-25835	,	6.4969425	,	16
21,58	,	131678	,	-27652	,	-25829	,	7.350191	,	17
21,58	,	131710	,	-27640	,	-25832	,	7.9021215	,	16
21,58	,	131726	,	-27642	,	-25806	,	8.452406	,	14
21,58	,	131742	,	-27644	,	-25819	,	9.1255665	,	11
21,58	,	131774	,	-27667	,	-25808	,	9.655193	,	8
21,58	,	131790	,	-27634	,	-25810	,	9.637266	,	5
21,58	,	131822	,	-27642	,	-25801	,	9.086134	,	3
21,58	,	131838	,	-27643	,	-25796	,	8.339145	,	2
21,58	,	131854	,	-27640	,	-25801	,	7.5668545	,	1
21,58	,	131902	,	-27631	,	-25792	,	6.174547	,	0
21,58	,	131918	,	-27643	,	-25791	,	5.721717	,	0
21,58	,	131950	,	-27637	,	-25794	,	5.3481174	,	0
21,58	,	131966	,	-27636	,	-25779	,	4.9047155	,	0
21,58	,	131998	,	-27647	,	-25784	,	4.3217473	,	0
21,58	,	132014	,	-27662	,	-25786	,	3.4372447	,	0
21,58	,	132030	,	-27662	,	-25782	,	1.9680052	,	0
21,58	,	132062	,	-27655	,	-25780	,	-0.13839388	,	0
21,58	,	132078	,	-27669	,	-25775	,	-2.579043	,	0
21,58	,	132094	,	-27659	,	-25787	,	-4.9821124	,	0
21,58	,	132126	,	-27665	,	-25793	,	-7.0363293	,	0
21,58	,	132142	,	-27664	,	-25785	,	-8.495228	,	0
21,58	,	132158	,	-27654	,	-25780	,	-9.203826	,	0
21,58	,	132190	,	-27666	,	-25793	,	-9.088823	,	0
21,58	,	132206	,	-27678	,	-25782	,	-8.340376	,	0
21,58	,	132238	,	-27673	,	-25785	,	-7.4230223	,	0
21,58	,	132254	,	-27668	,	-25788	,	-6.6532	,	0
21,58	,	132270	,	-27676	,	-25786	,	-6.034567	,	0
21,58	,	132302	,	-27668	,	-25783	,	-5.4881997	,	0
21,58	,	132318	,	-27679	,	-25789	,	-4.980279	,	0
21,58	,	132334	,	-27670	,	-25782	,	-4.516739	,	0
21,58	,	132366	,	-27659	,	-25772	,	-4.018775	,	0
21,58	,	132382	,	-27650	,	-25778	,	-3.20311	,	0
21,58	,	132414	,	-27647	,	-25779	,	-1.7676299	,	0
21,58	,	132430	,	-27658	,	-25789	,	0.281806	,	1
21,58	,	132446	,	-27659	,	-25767	,	2.53004	,	3
21,58	,	132478	,	-27654	,	-25781	,	4.4469976	,	5
21,58	,	132494	,	-27661	,	-25790	,	5.7180967	,	6
21,59	,	132510	,	-27667	,	-25777	,	6.197201	,	7
21,59	,	132542	,	-27664	,	-25780	,	5.816785	,	7
21,59	,	132558	,	-27664	,	-25775	,	4.6952686	,	7
21,59	,	132574	,	-27661	,	-25778	,	3.1452723	,	7
21,59	,	132606	,	-27659	,	-25777	,	1.5401073	,	7
21,59	,	132622	,	-27664	,	-25781	,	0.17783332	,	6
21,59	,	132654	,	-27664	,	-25782	,	-0.82247055	,	4
21,59	,	132670	,	-27667	,	-25796	,	-1.5037551	,	2
21,59	,	132686	,	-27662	,	-25777	,	-1.9463327	,	1
21,59	,	132718	,	-27665	,	-25781	,	-2.1807108	,	0
21,59	,	132734	,	-27667	,	-25787	,	-2.2260866	,	0
21,59	,	132750	,	-27673	,	-25781	,	-2.1809843	,	0
21,59	,	132782	,	-27676	,	-25786	,	-2.219261	,	0
21,59	,	132798	,	-27661	,	-25775	,	-2.4101546	,	0
21,59	,	132829	,	-27676	,	-25791	,	-2.6233335	,	0
21,59	,	132846	,	-27686	,	-25783	,	-2.824047	,	0
21,59	,	132862	,	-27688	,	-25794	,	-3.242641	,	0
21,59	,	132894	,	-27701	,	-25791	,	-4.123317	,	0
21,59	,	132910	,	-27683	,	-25803	,	-5.472702	,	0
21,59	,	132926	,	-27689	,	-25784	,	-6.9580617	,	0
21,59	,	132958	,	-27697	,	-25791	,	-8.162029	,	0
21,59	,	132974	,	-27692	,	-25780	,	-8.921608	,	0
21,59	,	133005	,	-27699	,	-25789	,	-9.240681	,	0
21,59	,	133022	,	-27707	,	-25784	,	-9.207821	,	0
21,59	,	133037	,	-27696	,	-25794	,	-8.985576	,	0
21,59	,	133070	,	-27678	,	-25796	,	-8.511136	,	0
21,59	,	133086	,	-27684	,	-25788	,	-7.4425635	,	0
21,59	,	133102	,	-27679	,	-25783	,	-5.599997	,	1
21,59	,	133134	,	-27680	,	-25789	,	-3.174999	,	2
21,59	,	133150	,	-27670	,	-25792	,	-0.4925828	,	4
21,59	,	133166	,	-27673	,	-25787	,	2.189429	,	6
21,59	,	133197	,	-27683	,	-25779	,	4.590754	,	8
21,59	,	133213	,	-27666	,	-25776	,	6.3973656	,	10
21,59	,	133246	,	-27674	,	-25778	,	7.504821	,	11
21,59	,	133262	,	-27678	,	-25782	,	7.961914	,	12
21,59	,	133278	,	-27673	,	-25775	,	7.772921	,	12
21,59	,	133310	,	-27683	,	-25780	,	6.976951	,	11
21,59	,	133326	,	-27663	,	-25773	,	5.756344	,	10
21,59	,	133342	,	-27677	,	-25789	,	4.43339	,	8
21,59	,	133373	,	-27673	,	-25780	,	3.2609348	,	6
21,59	,	133389	,	-27678	,	-25780	,	2.2657185	,	4
21,59	,	133421	,	-27689	,	-25787	,	1.327044	,	2
21,59	,	133438	,	-27694	,	-25781	,	0.22806954	,	1
21,59	,	133454	,	-27693	,	-25795	,	-1.205105	,	0
21,59	,	133486	,	-27699	,	-25802	,	-2.9396331	,	0
22,0	,	133502	,	-27691	,	-25807	,	-4.758517	,	0
22,0	,	133518	,	-27697	,	-25808	,	-6.351917	,	0
22,0	,	133550	,	-27695	,	-25809	,	-7.4642186	,	0
22,0	,	133565	,	-27698	,	-25804	,	-8.000746	,	0
22,0	,	133582	,	-27699	,	-25807	,	-8.000728	,	0
22,0	,	133613	,	-27710	,	-25807	,	-7.6366196	,	0
22,0	,	133630	,	-27702	,	-25820	,	-7.158829	,	0
22,0	,	133662	,	-27720	,	-25821	,	-6.766764	,	0
22,0	,	133678	,	-27711	,	-25800	,	-6.6007566	,	0
22,0	,	133694	,	-27725	,	-25803	,	-6.7349977	,	0
22,0	,	133725	,	-27722	,	-25788	,	-7.164425	,	0
22,0	,	133742	,	-27721	,	-25790	,	-7.797458	,	0
22,0	,	133757	,	-27721	,	-25801	,	-8.411662	,	0
22,0	,	133790	,	-27702	,	-25800	,	-8.667524	,	0
22,0	,	133806	,	-27708	,	-25790	,	-8.194202	,	0
22,0	,	133837	,	-27696	,	-25786	,	-6.795416	,	0
22,0	,	133854	,	-27674	,	-25785	,	-4.435869	,	1
22,0	,	133870	,	-27664	,	-25780	,	-1.014225	,	3
22,0	,	133901	,	-27667	,	-25798	,	3.4385595	,	6
22,0	,	133917	,	-27663	,	-25767	,	8.443869	,	10
22,0	,	133933	,	-27648	,	-25764	,	13.316501	,	15
22,0	,	133966	,	-27653	,	-25765	,	17.549623	,	19
22,0	,	133982	,	-27649	,	-25763	,	20.793468	,	23
22,0	,	133997	,	-27660	,	-25765	,	22.72454	,	26
22,0	,	134029	,	-27657	,	-25764	,	23.092028	,	27
22,0	,	134045	,	-27652	,	-25766	,	21.893866	,	26
22,0	,	134077	,	-27638	,	-25777	,	19.54245	,	24
22,0	,	134093	,	-27646	,	-25770	,	16.70888	,	21
22,0	,	134109	,	-27649	,	-25772	,	13.882887	,	17
22,0	,	134142	,	-27647	,	-25780	,	11.209637	,	12
22,0	,	134158	,	-27659	,	-25766	,	8.66827	,	8
22,0	,	134174	,	-27644	,	-25764	,	6.2364254	,	4
22,0	,	134205	,	-27640	,	-25765	,	4.0670037	,	1
22,0	,	134221	,	-27643	,	-25770	,	2.4520588	,	0
22,0	,	134253	,	-27646	,	-25770	,	1.4998105	,	0
22,0	,	134269	,	-27649	,	-25766	,	1.0442053	,	0
22,0	,	134285	,	-27668	,	-25770	,	0.73429847	,	0
22,0	,	134317	,	-27661	,	-25772	,	0.14376408	,	0
22,0	,	134334	,	-27652	,	-25767	,	-0.8776369	,	0
22,0	,	134349	,	-27656	,	-25767	,	-2.0462058	,	0
22,0	,	134381	,	-27649	,	-25790	,	-2.9763613	,	0
22,0	,	134397	,	-27656	,	-25766	,	-3.452152	,	0
22,0	,	134413	,	-27660	,	-25768	,	-3.488944	,	0
22,0	,	134445	,	-27673	,	-25770	,	-3.3529427	,	0
22,0	,	134461	,	-27667	,	-25775	,	-3.4004178	,	0
22,0	,	134493	,	-27670	,	-25774	,	-3.7873435	,	0
22,1	,	134509	,	-27677	,	-25778	,	-4.4446907	,	0
22,1	,	134525	,	-27686	,	-25785	,	-5.3234243	,	0
22,1	,	134557	,	-27680	,	-25785	,	-6.4222946	,	0
22,1	,	134573	,	-27670	,	-25783	,	-7.544691	,	0
22,1	,	134589	,	-27667	,	-25785	,	-8.256251	,	0
22,1	,	134621	,	-27656	,	-25787	,	-8.132956	,	0
22,1	,	134637	,	-27651	,	-25772	,	-6.9307623	,	0
22,1	,	134669	,	-27654	,	-25766	,	-4.666087	,	1
22,1	,	134685	,	-27645	,	-25765	,	-1.6522348	,	3
22,1	,	134701	,	-27635	,	-25765	,	1.7195463	,	6
22,1	,	134733	,	-27639	,	-25770	,	5.1586075	,	9
22,1	,	134749	,	-27648	,	-25764	,	8.304829	,	12
22,1	,	134765	,	-27644	,	-25772	,	10.665679	,	15
22,1	,	134797	,	-27644	,	-25773	,	11.895118	,	17
22,1	,	134813	,	-27627	,	-25768	,	12.045657	,	18
22,1	,	134829	,	-27646	,	-25770	,	11.458586	,	18
22,1	,	134861	,	-27644	,	-25776	,	10.363255	,	17
22,1	,	134877	,	-27644	,	-25761	,	8.800678	,	15
22,1	,	134909	,	-27647	,	-25756	,	6.8755393	,	12
22,1	,	134925	,	-27650	,	-25764	,	4.7611523	,	9
22,1	,	134941	,	-27636	,	-25761	,	2.6679287	,	6
22,1	,	134973	,	-27630	,	-25763	,	0.9560337	,	3
22,1	,	134989	,	-27630	,	-25760	,	0.014369249	,	1
22,1	,	135005	,	-27641	,	-25774	,	-0.07315433	,	0
22,1	,	135037	,	-27650	,	-25772	,	0.3293679	,	0
22,1	,	135053	,	-27650	,	-25768	,	0.6523281	,	0
22,1	,	135085	,	-27644	,	-25773	,	0.54984343	,	0
22,1	,	135101	,	-27630	,	-25786	,	0.13609672	,	0
22,1	,	135117	,	-27641	,	-25762	,	-0.2113285	,	0
22,1	,	135149	,	-27643	,	-25757	,	-0.29505882	,	0
22,1	,	135165	,	-27635	,	-25770	,	-0.18070033	,	0
22,1	,	135181	,	-27647	,	-25768	,	0.03148233	,	0
22,1	,	135213	,	-27637	,	-25760	,	0.2453444	,	0
22,1	,	135229	,	-27661	,	-25769	,	0.30203187	,	0
22,1	,	135245	,	-27651	,	-25766	,	-0.018177811	,	0
22,1	,	135277	,	-27645	,	-25763	,	-0.7708959	,	0
22,1	,	135293	,	-27652	,	-25776	,	-1.7098238	,	0
22,1	,	135325	,	-27639	,	-25768	,	-2.5206857	,	0
22,1	,	135341	,	-27641	,	-25784	,	-2.9436705	,	0
22,1	,	135357	,	-27630	,	-25750	,	-2.7678308	,	0
22,1	,	135389	,	-27636	,	-25756	,	-1.92307	,	0
22,1	,	135405	,	-27633	,	-25756	,	-0.55790186	,	0
22,1	,	135421	,	-27623	,	-25747	,	1.07497	,	1
22,1	,	135453	,	-27620	,	-25753	,	2.841815	,	2
22,1	,	135469	,	-27623	,	-25747	,	4.664825	,	3
22,2	,	135501	,	-27623	,	-25750	,	6.3378673	,	4
22,2	,	135517	,	-27621	,	-25739	,	7.603858	,	5
22,2	,	135533	,	-27633	,	-25747	,	8.262148	,	6
22,2	,	135565	,	-27616	,	-25746	,	8.218064	,	6
22,2	,	135581	,	-27614	,	-25766	,	7.6460176	,	6
22,2	,	135597	,	-27608	,	-25725	,	6.9444604	,	6
22,2	,	135629	,	-27613	,	-25747	,	6.412284	,	5
22,2	,	135645	,	-27629	,	-25747	,	6.006959	,	4
22,2	,	135661	,	-27611	,	-25742	,	5.458813	,	3
22,2	,	135693	,	-27618	,	-25744	,	4.6780243	,	2
22,2	,	135709	,	-27618	,	-25754	,	3.8032217	,	1
22,2	,	135741	,	-27623	,	-25740	,	2.9119084	,	0
22,2	,	135757	,	-27625	,	-25743	,	1.9673254	,	0
22,2	,	135773	,	-27631	,	-25746	,	0.9022517	,	0
22,2	,	135805	,	-27627	,	-25739	,	-0.31450713	,	0
22,2	,	135821	,	-27631	,	-25763	,	-1.6097889	,	0
22,2	,	135837	,	-27640	,	-25728	,	-2.8863611	,	0
22,2	,	135869	,	-27648	,	-25750	,	-4.1821513	,	0
22,2	,	135885	,	-27639	,	-25741	,	-5.566718	,	0
22,2	,	135916	,	-27641	,	-25753	,	-6.8994246	,	0
22,2	,	135933	,	-27641	,	-25748	,	-7.8968124	,	0
22,2	,	135949	,	-27652	,	-25755	,	-8.419963	,	0
22,2	,	135981	,	-27660	,	-25753	,	-8.622096	,	0
22,2	,	135997	,	-27664	,	-25753	,	-8.820431	,	0
22,2	,	136013	,	-27665	,	-25764	,	-9.223669	,	0
22,2	,	136045	,	-27650	,	-25773	,	-9.7386	,	0
22,2	,	136061	,	-27652	,	-25781	,	-9.991177	,	0
22,2	,	136092	,	-27640	,	-25738	,	-9.576513	,	0
22,2	,	136108	,	-27637	,	-25751	,	-8.259296	,	0
22,2	,	136124	,	-27633	,	-25757	,	-6.018222	,	1
22,2	,	136157	,	-27633	,	-25750	,	-3.075653	,	3
22,2	,	136173	,	-27630	,	-25756	,	0.1688497	,	5
22,2	,	136189	,	-27640	,	-25762	,	3.2499726	,	8
22,2	,	136220	,	-27631	,	-25761	,	5.7288666	,	11
22,2	,	136236	,	-27640	,	-25759	,	7.328243	,	13
22,2	,	136252	,	-27634	,	-25749	,	7.9728594	,	14
22,2	,	136284	,	-27626	,	-25755	,	7.7994328	,	14
22,2	,	136300	,	-27637	,	-25774	,	7.1157894	,	14
22,2	,	136333	,	-27640	,	-25736	,	6.1317015	,	13
22,2	,	136349	,	-27635	,	-25755	,	4.884843	,	11
22,2	,	136365	,	-27642	,	-25769	,	3.4392884	,	9
22,2	,	136397	,	-27644	,	-25766	,	1.8918808	,	6
22,2	,	136412	,	-27642	,	-25770	,	0.32252645	,	3
22,2	,	136428	,	-27645	,	-25755	,	-1.1489637	,	1
22,2	,	136460	,	-27638	,	-25774	,	-2.3660007	,	0
22,2	,	136476	,	-27660	,	-25778	,	-3.2697587	,	0
22,2	,	136492	,	-27660	,	-25776	,	-4.0501	,	0
22,3	,	136525	,	-27640	,	-25776	,	-4.8733234	,	0
22,3	,	136541	,	-27660	,	-25783	,	-5.574797	,	0
22,3	,	136573	,	-27671	,	-25756	,	-6.0632076	,	0
22,3	,	136588	,	-27676	,	-25783	,	-6.615127	,	0
22,3	,	136604	,	-27670	,	-25777	,	-7.466257	,	0
22,3	,	136636	,	-27671	,	-25781	,	-8.497916	,	0
22,3	,	136652	,	-27665	,	-25763	,	-9.37279	,	0
22,3	,	136668	,	-27676	,	-25768	,	-9.8087225	,	0
22,3	,	136701	,	-27682	,	-25776	,	-9.788612	,	0
22,3	,	136716	,	-27678	,	-25786	,	-9.501293	,	0
22,3	,	136748	,	-27674	,	-25781	,	-9.051564	,	0
22,3	,	136764	,	-27682	,	-25789	,	-8.411261	,	0
22,3	,	136780	,	-27684	,	-25819	,	-7.630365	,	0
22,3	,	136812	,	-27688	,	-25794	,	-6.8777933	,	0
22,3	,	136828	,	-27696	,	-25799	,	-6.3423433	,	0
22,3	,	136844	,	-27678	,	-25804	,	-6.0929503	,	0
22,3	,	136877	,	-27680	,	-25794	,	-5.9198265	,	0
22,3	,	136892	,	-27678	,	-25799	,	-5.493662	,	0
22,3	,	136924	,	-27680	,	-25806	,	-4.6785336	,	0
22,3	,	136940	,	-27683	,	-25798	,	-3.5740557	,	0
22,3	,	136956	,	-27661	,	-25795	,	-2.2963877	,	1
22,3	,	136988	,	-27683	,	-25799	,	-0.8519876	,	2
22,3	,	137004	,	-27668	,	-25797	,	0.6620879	,	3
22,3	,	137020	,	-27677	,	-25798	,	2.0257964	,	4
22,3	,	137052	,	-27674	,	-25783	,	3.067667	,	5
22,3	,	137068	,	-27681	,	-25802	,	3.6546044	,	6
22,3	,	137084	,	-27679	,	-25805	,	3.6931548	,	6
22,3	,	137116	,	-27689	,	-25812	,	3.165208	,	6
22,3	,	137132	,	-27665	,	-25802	,	2.2041285	,	6
22,3	,	137164	,	-27677	,	-25808	,	1.1772422	,	5
22,3	,	137180	,	-27698	,	-25805	,	0.3207482	,	4
22,3	,	137196	,	-27678	,	-25805	,	-0.52289915	,	3
22,3	,	137228	,	-27683	,	-25798	,	-1.4365351	,	2
22,3	,	137244	,	-27675	,	-25808	,	-2.192821	,	1
22,3	,	137260	,	-27690	,	-25820	,	-2.61311	,	0
22,3	,	137292	,	-27694	,	-25788	,	-2.8158176	,	0
22,3	,	137308	,	-27690	,	-25800	,	-3.0590026	,	0
22,3	,	137340	,	-27690	,	-25806	,	-3.418879	,	0
22,3	,	137356	,	-27698	,	-25810	,	-3.8061347	,	0
22,3	,	137372	,	-27702	,	-25806	,	-4.211495	,	0
22,3	,	137404	,	-27695	,	-25806	,	-4.6735497	,	0
22,3	,	137420	,	-27703	,	-25808	,	-5.1258974	,	0
22,3	,	137436	,	-27709	,	-25810	,	-5.512602	,	0
22,3	,	137468	,	-27711	,	-25802	,	-5.9091024	,	0
22,3	,	137484	,	-27709	,	-25806	,	-6.3768954	,	0
22,3	,	137500	,	-27719	,	-25817	,	-6.881157	,	0
22,4	,	137532	,	-27706	,	-25798	,	-7.3411446	,	0
22,4	,	137548	,	-27720	,	-25819	,	-7.6383457	,	0
22,4	,	137580	,	-27721	,	-25803	,	-7.735499	,	0
22,4	,	137596	,	-27724	,	-25816	,	-7.742314	,	0
22,4	,	137612	,	-27729	,	-25813	,	-7.774389	,	0
22,4	,	137644	,	-27720	,	-25819	,	-7.8462853	,	0
22,4	,	137660	,	-27710	,	-25809	,	-7.7782154	,	0
22,4	,	137676	,	-27716	,	-25813	,	-7.2662935	,	0
22,4	,	137708	,	-27708	,	-25813	,	-6.1621437	,	0
22,4	,	137724	,	-27695	,	-25809	,	-4.4632587	,	1
22,4	,	137756	,	-27712	,	-25828	,	-2.231595	,	2
22,4	,	137772	,	-27720	,	-25799	,	0.15622401	,	4
22,4	,	137788	,	-27718	,	-25818	,	2.0622492	,	6
22,4	,	137820	,	-27709	,	-25818	,	3.1159196	,	7
22,4	,	137836	,	-27706	,	-25810	,	3.4429557	,	8
22,4	,	137852	,	-27720	,	-25806	,	3.3300445	,	8
22,4	,	137884	,	-27722	,	-25816	,	2.8476105	,	8
22,4	,	137900	,	-27716	,	-25817	,	1.956554	,	8
22,4	,	137916	,	-27711	,	-25816	,	0.8267586	,	7
22,4	,	137948	,	-27722	,	-25812	,	-0.24316597	,	6
22,4	,	137964	,	-27709	,	-25819	,	-1.0780123	,	4
22,4	,	137996	,	-27711	,	-25826	,	-1.5729678	,	2
22,4	,	138012	,	-27711	,	-25797	,	-1.6407884	,	1
22,4	,	138028	,	-27718	,	-25811	,	-1.3529105	,	0
22,4	,	138060	,	-27715	,	-25817	,	-0.9274239	,	0
22,4	,	138076	,	-27708	,	-25820	,	-0.5120257	,	0
22,4	,	138092	,	-27724	,	-25819	,	-0.14774972	,	0
22,4	,	138124	,	-27719	,	-25819	,	0.04665771	,	0
22,4	,	138140	,	-27722	,	-25814	,	-0.07068953	,	0
22,4	,	138172	,	-27730	,	-25817	,	-0.5301993	,	0
22,4	,	138188	,	-27726	,	-25815	,	-1.3093926	,	0
22,4	,	138204	,	-27731	,	-25814	,	-2.320226	,	0
22,4	,	138236	,	-27727	,	-25830	,	-3.3841157	,	0
22,4	,	138252	,	-27731	,	-25810	,	-4.310142	,	0
22,4	,	138268	,	-27728	,	-25812	,	-4.9603505	,	0
22,4	,	138300	,	-27721	,	-25818	,	-5.2232323	,	0
22,4	,	138316	,	-27740	,	-25822	,	-5.064274	,	0
22,4	,	138332	,	-27740	,	-25827	,	-4.7063694	,	0
22,4	,	138364	,	-27740	,	-25838	,	-4.4889493	,	0
22,4	,	138380	,	-27744	,	-25825	,	-4.554616	,	0
22,4	,	138412	,	-27740	,	-25822	,	-4.8400435	,	0
22,4	,	138428	,	-27731	,	-25825	,	-5.1360283	,	0
22,4	,	138444	,	-27726	,	-25825	,	-5.1073513	,	0
22,4	,	138475	,	-27727	,	-25827	,	-4.4754233	,	0
22,5	,	138508	,	-27721	,	-25822	,	-1.3128557	,	1
22,5	,	138540	,	-27724	,	-25811	,	0.8466234	,	2
22,5	,	138556	,	-27707	,	-25806	,	2.9728413	,	4
22,5	,	138588	,	-27721	,	-25819	,	4.86877	,	6
22,5	,	138604	,	-27713	,	-25805	,	6.3925943	,	7
22,5	,	138620	,	-27712	,	-25815	,	7.4017496	,	8
22,5	,	138668	,	-27711	,	-25810	,	7.7311573	,	9
22,5	,	138684	,	-27713	,	-25818	,	7.1598887	,	9
22,5	,	138716	,	-27730	,	-25824	,	6.2332115	,	8
22,5	,	138732	,	-27718	,	-25804	,	4.9179215	,	7
22,5	,	138748	,	-27711	,	-25826	,	3.313779	,	5
22,5	,	138780	,	-27718	,	-25819	,	1.7751098	,	3
22,5	,	138795	,	-27729	,	-25817	,	0.5099151	,	2
22,5	,	138828	,	-27727	,	-25817	,	-0.5997001	,	1
22,5	,	138844	,	-27728	,	-25812	,	-1.699916	,	0
22,5	,	138860	,	-27727	,	-25816	,	-2.7573743	,	0
22,5	,	138892	,	-27740	,	-25827	,	-3.6955748	,	0
22,5	,	138908	,	-27731	,	-25820	,	-4.5260305	,	0
22,5	,	138924	,	-27725	,	-25819	,	-5.1892915	,	0
22,5	,	138956	,	-27732	,	-25832	,	-5.4962416	,	0
22,5	,	138971	,	-27737	,	-25820	,	-5.396261	,	0
22,5	,	139004	,	-27747	,	-25821	,	-5.1144733	,	0
22,5	,	139020	,	-27750	,	-25826	,	-4.995373	,	0
22,5	,	139036	,	-27730	,	-25828	,	-5.1700954	,	0
22,5	,	139068	,	-27749	,	-25823	,	-5.422167	,	0
22,5	,	139084	,	-27739	,	-25815	,	-5.5308948	,	0
22,5	,	139100	,	-27733	,	-25823	,	-5.404128	,	0
22,5	,	139131	,	-27739	,	-25815	,	-4.922966	,	0
22,5	,	139147	,	-27749	,	-25824	,	-4.118573	,	0
22,5	,	139180	,	-27732	,	-25813	,	-3.217458	,	0
22,5	,	139196	,	-27725	,	-25822	,	-2.2630653	,	0
22,5	,	139212	,	-27705	,	-25806	,	-0.96390796	,	0
22,5	,	139244	,	-27711	,	-25813	,	1.010223	,	1
22,5	,	139259	,	-27698	,	-25800	,	3.6940174	,	2
22,5	,	139275	,	-27703	,	-25793	,	6.807254	,	4
22,5	,	139307	,	-27691	,	-25787	,	9.946516	,	7
22,5	,	139323	,	-27687	,	-25786	,	12.775303	,	10
22,5	,	139339	,	-27685	,	-25780	,	15.098286	,	12
22,5	,	139372	,	-27685	,	-25770	,	16.774565	,	14
22,5	,	139388	,	-27682	,	-25780	,	17.681293	,	15
22,5	,	139419	,	-27672	,	-25784	,	17.827158	,	15
22,5	,	139435	,	-27684	,	-25789	,	17.347092	,	14
22,5	,	139451	,	-27682	,	-25780	,	16.297115	,	13
22,5	,	139484	,	-27674	,	-25773	,	14.689265	,	11
22,6	,	139499	,	-27665	,	-25770	,	12.7667055	,	8
22,6	,	139515	,	-27665	,	-25782	,	10.954075	,	5
22,6	,	139548	,	-27668	,	-25778	,	9.523205	,	3
22,6	,	139563	,	-27666	,	-25770	,	8.463273	,	1
22,6	,	139595	,	-27674	,	-25769	,	7.6039453	,	0
22,6	,	139611	,	-27661	,	-25776	,	6.7811604	,	0
22,6	,	139627	,	-27669	,	-25772	,	5.95677	,	0
22,6	,	139659	,	-27676	,	-25766	,	5.115424	,	0
22,6	,	139675	,	-27663	,	-25774	,	4.1857624	,	0
22,6	,	139691	,	-27665	,	-25773	,	3.232808	,	0
22,6	,	139724	,	-27653	,	-25769	,	2.4944215	,	0
22,6	,	139739	,	-27666	,	-25769	,	2.1618862	,	0
22,6	,	139755	,	-27670	,	-25769	,	2.1543822	,	0
22,6	,	139787	,	-27672	,	-25774	,	2.1425757	,	0
22,6	,	139803	,	-27681	,	-25780	,	1.8058641	,	0
22,6	,	139835	,	-27675	,	-25778	,	0.9941517	,	0
22,6	,	139851	,	-27695	,	-25772	,	-0.29471076	,	0
22,6	,	139867	,	-27685	,	-25784	,	-2.0074704	,	0
22,6	,	139899	,	-27692	,	-25775	,	-3.9823174	,	0
22,6	,	139915	,	-27689	,	-25784	,	-5.9120045	,	0
22,6	,	139931	,	-27692	,	-25783	,	-7.5011573	,	0
22,6	,	139963	,	-27697	,	-25783	,	-8.593628	,	0
22,6	,	139979	,	-27690	,	-25791	,	-9.16378	,	0
22,6	,	140011	,	-27680	,	-25788	,	-9.147865	,	0
22,6	,	140027	,	-27682	,	-25788	,	-8.388944	,	0
22,6	,	140043	,	-27673	,	-25782	,	-6.827949	,	0
22,6	,	140075	,	-27669	,	-25774	,	-4.5644727	,	1
22,6	,	140091	,	-27662	,	-25775	,	-1.7624514	,	3
22,6	,	140107	,	-27654	,	-25777	,	1.4030192	,	5
22,6	,	140139	,	-27668	,	-25762	,	4.6730604	,	8
22,6	,	140155	,	-27645	,	-25770	,	7.679333	,	11
22,6	,	140171	,	-27654	,	-25763	,	10.163137	,	14
22,6	,	140203	,	-27652	,	-25752	,	11.997687	,	16
22,6	,	140219	,	-27640	,	-25753	,	13.095692	,	17
22,6	,	140251	,	-27646	,	-25758	,	13.520672	,	18
22,6	,	140267	,	-27632	,	-25754	,	13.455608	,	17
22,6	,	140283	,	-27657	,	-25753	,	13.009569	,	15
22,6	,	140315	,	-27641	,	-25750	,	12.1145315	,	13
22,6	,	140331	,	-27641	,	-25753	,	10.74906	,	10
22,6	,	140347	,	-27638	,	-25749	,	9.143676	,	7
22,6	,	140379	,	-27642	,	-25745	,	7.5586724	,	4
22,6	,	140395	,	-27642	,	-25751	,	6.091402	,	2
22,6	,	140427	,	-27639	,	-25747	,	4.755394	,	1
22,6	,	140443	,	-27638	,	-25736	,	3.5981991	,	0
22,6	,	140459	,	-27644	,	-25745	,	2.667937	,	0
22,6	,	140491	,	-27645	,	-25742	,	1.9101987	,	0
22,7	,	140507	,	-27635	,	-25744	,	1.2594099	,	0
22,7	,	140523	,	-27645	,	-25747	,	0.7517203	,	0
22,7	,	140555	,	-27639	,	-25746	,	0.41206437	,	0
22,7	,	140571	,	-27644	,	-25747	,	0.18724614	,	0
22,7	,	140587	,	-27653	,	-25759	,	-0.036696732	,	0
22,7	,	140619	,	-27657	,	-25745	,	-0.46188068	,	0
22,7	,	140635	,	-27656	,	-25757	,	-1.2497362	,	0
22,7	,	140667	,	-27653	,	-25753	,	-2.3377688	,	0
22,7	,	140683	,	-27659	,	-25744	,	-3.4965754	,	0
22,7	,	140699	,	-27660	,	-25747	,	-4.5379376	,	0
22,7	,	140731	,	-27670	,	-25752	,	-5.4269047	,	0
22,7	,	140747	,	-27661	,	-25755	,	-6.2024903	,	0
22,7	,	140763	,	-27657	,	-25759	,	-6.7784233	,	0
22,7	,	140795	,	-27661	,	-25750	,	-6.9428945	,	0
22,7	,	140811	,	-27645	,	-25746	,	-6.53021	,	0
22,7	,	140843	,	-27647	,	-25752	,	-5.43476	,	0
22,7	,	140859	,	-27636	,	-25745	,	-3.6238503	,	1
22,7	,	140875	,	-27628	,	-25748	,	-1.1649098	,	2
22,7	,	140907	,	-27634	,	-25742	,	1.7711687	,	4
22,7	,	140923	,	-27633	,	-25727	,	4.811705	,	6
22,7	,	140939	,	-27630	,	-25733	,	7.4811096	,	9
22,7	,	140971	,	-27633	,	-25742	,	9.440503	,	11
22,7	,	140987	,	-27645	,	-25745	,	10.465076	,	12
22,7	,	141019	,	-27637	,	-25740	,	10.388774	,	13
22,7	,	141035	,	-27652	,	-25743	,	9.215307	,	13
22,7	,	141051	,	-27645	,	-25756	,	7.1267133	,	12
22,7	,	141083	,	-27645	,	-25750	,	4.4624133	,	11
22,7	,	141099	,	-27642	,	-25747	,	1.7051454	,	9
22,7	,	141115	,	-27642	,	-25758	,	-0.6874957	,	7
22,7	,	141147	,	-27644	,	-25756	,	-2.4379032	,	4
22,7	,	141163	,	-27651	,	-25750	,	-3.5082884	,	2
22,7	,	141179	,	-27656	,	-25753	,	-4.0916204	,	1
22,7	,	141211	,	-27661	,	-25748	,	-4.491767	,	0
22,7	,	141227	,	-27653	,	-25754	,	-4.9115334	,	0
22,7	,	141259	,	-27659	,	-25753	,	-5.3266063	,	0
22,7	,	141275	,	-27650	,	-25749	,	-5.5864735	,	0
22,7	,	141291	,	-27659	,	-25752	,	-5.567144	,	0
22,7	,	141323	,	-27664	,	-25756	,	-5.2952976	,	0
22,7	,	141339	,	-27662	,	-25754	,	-4.9531627	,	0
22,7	,	141355	,	-27659	,	-25753	,	-4.6614437	,	0
22,7	,	141387	,	-27664	,	-25761	,	-4.3931675	,	0
22,7	,	141403	,	-27658	,	-25748	,	-4.098373	,	0
22,7	,	141419	,	-27678	,	-25748	,	-3.8178432	,	0
22,7	,	141451	,	-27667	,	-25752	,	-3.7070663	,	0
22,7	,	141467	,	-27664	,	-25757	,	-3.8121781	,	0
22,8	,	141499	,	-27671	,	-25761	,	-3.9649868	,	0
22,8	,	141515	,	-27654	,	-25741	,	-3.9663262	,	0
22,8	,	141531	,	-27658	,	-25744	,	-3.6168709	,	0
22,8	,	141562	,	-27651	,	-25747	,	-2.761569	,	0
22,8	,	141579	,	-27636	,	-25735	,	-1.3408648	,	0
22,8	,	141595	,	-27637	,	-25736	,	0.68835974	,	1
22,8	,	141627	,	-27623	,	-25754	,	3.2887301	,	3
22,8	,	141643	,	-27633	,	-25720	,	6.2408094	,	5
22,8	,	141674	,	-27630	,	-25736	,	9.1182785	,	7
22,8	,	141690	,	-27634	,	-25727	,	11.401693	,	9
22,8	,	141706	,	-27628	,	-25730	,	12.738976	,	11
22,8	,	141738	,	-27633	,	-25735	,	13.056124	,	12
22,8	,	141754	,	-27624	,	-25736	,	12.485558	,	12
22,8	,	141771	,	-27643	,	-25732	,	11.218039	,	12
22,8	,	141803	,	-27622	,	-25725	,	9.426657	,	11
22,8	,	141819	,	-27634	,	-25731	,	7.378542	,	9
22,8	,	141850	,	-27633	,	-25726	,	5.365184	,	7
22,8	,	141866	,	-27635	,	-25750	,	3.5130324	,	5
22,8	,	141882	,	-27633	,	-25721	,	1.865037	,	3
22,8	,	141914	,	-27630	,	-25733	,	0.5006454	,	1
22,8	,	141930	,	-27626	,	-25734	,	-0.4610957	,	0
22,8	,	141946	,	-27628	,	-25729	,	-0.9194481	,	0
22,8	,	141979	,	-27625	,	-25736	,	-0.8813293	,	0
22,8	,	141995	,	-27637	,	-25721	,	-0.5078915	,	0
22,8	,	142011	,	-27639	,	-25738	,	-0.11141732	,	0
22,8	,	142043	,	-27655	,	-25734	,	-0.08176607	,	0
22,8	,	142058	,	-27642	,	-25741	,	-0.6888341	,	0
22,8	,	142090	,	-27629	,	-25734	,	-1.7730082	,	0
22,8	,	142106	,	-27646	,	-25755	,	-2.8283684	,	0
22,8	,	142122	,	-27655	,	-25723	,	-3.611281	,	0
22,8	,	142155	,	-27656	,	-25746	,	-4.317197	,	0
22,8	,	142171	,	-27657	,	-25753	,	-5.1491947	,	0
22,8	,	142186	,	-27660	,	-25756	,	-6.0958414	,	0
22,8	,	142218	,	-27677	,	-25766	,	-7.11455	,	0
22,8	,	142234	,	-27676	,	-25759	,	-8.285879	,	0
22,8	,	142266	,	-27677	,	-25751	,	-9.642144	,	0
22,8	,	142282	,	-27665	,	-25764	,	-10.942014	,	0
22,8	,	142298	,	-27666	,	-25754	,	-11.747042	,	0
22,8	,	142330	,	-27647	,	-25752	,	-11.62848	,	0
22,8	,	142346	,	-27650	,	-25766	,	-10.289383	,	0
22,8	,	142378	,	-27645	,	-25734	,	-7.723317	,	1
22,8	,	142394	,	-27648	,	-25755	,	-4.3026805	,	3
22,8	,	142410	,	-27642	,	-25752	,	-0.5908456	,	6
22,8	,	142442	,	-27634	,	-25750	,	2.9550369	,	9
22,8	,	142458	,	-27635	,	-25749	,	6.0966444	,	12
22,8	,	142474	,	-27645	,	-25748	,	8.627938	,	15
22,9	,	142522	,	-27636	,	-25740	,	11.094422	,	18
22,9	,	142538	,	-27637	,	-25748	,	11.096305	,	18
22,9	,	142571	,	-27629	,	-25751	,	10.438946	,	17
22,9	,	142586	,	-27626	,	-25763	,	9.361839	,	15
22,9	,	142618	,	-27639	,	-25733	,	8.140808	,	12
22,9	,	142634	,	-27629	,	-25755	,	6.8683558	,	9
22,9	,	142650	,	-27626	,	-25745	,	5.597821	,	6
22,9	,	142682	,	-27635	,	-25752	,	4.453718	,	3
22,9	,	142698	,	-27636	,	-25741	,	3.4391484	,	1
22,9	,	142714	,	-27623	,	-25744	,	2.4997766	,	0
22,9	,	142746	,	-27629	,	-25752	,	1.7413034	,	0
22,9	,	142762	,	-27631	,	-25757	,	1.2713523	,	0
22,9	,	142778	,	-27628	,	-25755	,	1.0304897	,	0
22,9	,	142810	,	-27646	,	-25772	,	0.84345424	,	0
22,9	,	142826	,	-27637	,	-25733	,	0.46867865	,	0
22,9	,	142858	,	-27639	,	-25755	,	-0.20649093	,	0
22,9	,	142874	,	-27651	,	-25769	,	-1.1083227	,	0
22,9	,	142890	,	-27651	,	-25753	,	-2.212374	,	0
22,9	,	142922	,	-27653	,	-25762	,	-3.528904	,	0
22,9	,	142938	,	-27658	,	-25762	,	-4.9653006	,	0
22,9	,	142954	,	-27668	,	-25768	,	-6.43071	,	0
22,9	,	142986	,	-27665	,	-25763	,	-7.9023714	,	0
22,9	,	143002	,	-27668	,	-25765	,	-9.293577	,	0
22,9	,	143034	,	-27656	,	-25774	,	-10.363053	,	0
22,9	,	143050	,	-27665	,	-25784	,	-10.819747	,	0
22,9	,	143066	,	-27686	,	-25756	,	-10.6544285	,	0
22,9	,	143098	,	-27670	,	-25778	,	-10.218243	,	0
22,9	,	143114	,	-27692	,	-25785	,	-9.832618	,	0
22,9	,	143130	,	-27687	,	-25782	,	-9.663422	,	0
22,9	,	143162	,	-27695	,	-25774	,	-9.807557	,	0
22,9	,	143178	,	-27689	,	-25782	,	-10.201165	,	0
22,9	,	143194	,	-27684	,	-25783	,	-10.587027	,	0
22,9	,	143226	,	-27682	,	-25786	,	-10.61222	,	0
22,9	,	143242	,	-27684	,	-25788	,	-10.02751	,	0
22,9	,	143274	,	-27672	,	-25778	,	-8.776199	,	0
22,9	,	143290	,	-27675	,	-25788	,	-6.8947115	,	1
22,9	,	143306	,	-27672	,	-25760	,	-4.5232553	,	2
22,9	,	143338	,	-27667	,	-25775	,	-1.9197001	,	4
22,9	,	143354	,	-27663	,	-25776	,	0.68283534	,	6
22,9	,	143370	,	-27656	,	-25769	,	3.1576688	,	8
22,9	,	143402	,	-27657	,	-25777	,	5.4363422	,	10
22,9	,	143418	,	-27663	,	-25777	,	7.382855	,	12
22,9	,	143450	,	-27668	,	-25772	,	8.719208	,	13
22,9	,	143466	,	-27668	,	-25782	,	9.169282	,	14
22,9	,	143482	,	-27675	,	-25788	,	8.6314745	,	13
22,10	,	143514	,	-27658	,	-25775	,	7.257159	,	12
22,10	,	143530	,	-27678	,	-25791	,	5.405287	,	10
22,10	,	143546	,	-27663	,	-25759	,	3.4150805	,	8
22,10	,	143578	,	-27679	,	-25787	,	1.4983542	,	6
22,10	,	143594	,	-27677	,	-25801	,	-0.25340533	,	4
22,10	,	143610	,	-27674	,	-25789	,	-1.8217144	,	2
22,10	,	143642	,	-27668	,	-25793	,	-3.0811791	,	1
22,10	,	143658	,	-27673	,	-25789	,	-3.8283715	,	0
22,10	,	143690	,	-27675	,	-25798	,	-4.0175443	,	0
22,10	,	143706	,	-27675	,	-25786	,	-3.8014407	,	0
22,10	,	143722	,	-27686	,	-25793	,	-3.4239328	,	0
22,10	,	143754	,	-27688	,	-25802	,	-3.1713564	,	0
22,10	,	143770	,	-27687	,	-25806	,	-3.2552886	,	0
22,10	,	143786	,	-27690	,	-25779	,	-3.6779823	,	0
22,10	,	143818	,	-27701	,	-25797	,	-4.354085	,	0
22,10	,	143834	,	-27695	,	-25797	,	-5.243269	,	0
22,10	,	143866	,	-27701	,	-25801	,	-6.2498636	,	0
22,10	,	143882	,	-27701	,	-25791	,	-7.198359	,	0
22,10	,	143898	,	-27697	,	-25792	,	-7.91369	,	0
22,10	,	143930	,	-27693	,	-25800	,	-8.204805	,	0
22,10	,	143946	,	-27704	,	-25796	,	-7.9573183	,	0
22,10	,	143962	,	-27699	,	-25797	,	-7.276121	,	0
22,10	,	143994	,	-27700	,	-25798	,	-6.3571773	,	0
22,10	,	144010	,	-27711	,	-25803	,	-5.3755174	,	0
22,10	,	144041	,	-27723	,	-25778	,	-4.6238136	,	0
22,10	,	144058	,	-27704	,	-25802	,	-4.3827496	,	0
22,10	,	144073	,	-27691	,	-25798	,	-4.467314	,	0
22,10	,	144106	,	-27693	,	-25798	,	-4.286173	,	0
22,10	,	144122	,	-27688	,	-25799	,	-3.4208689	,	0
22,10	,	144138	,	-27683	,	-25806	,	-1.8359058	,	0
22,10	,	144170	,	-27680	,	-25795	,	0.31422806	,	1
22,10	,	144185	,	-27682	,	-25794	,	2.7687364	,	3
22,10	,	144201	,	-27681	,	-25799	,	5.1620684	,	5
22,10	,	144234	,	-27673	,	-25798	,	7.167014	,	7
22,10	,	144250	,	-27689	,	-25802	,	8.5804405	,	9
22,10	,	144282	,	-27681	,	-25783	,	9.226901	,	10
22,10	,	144298	,	-27698	,	-25796	,	8.956377	,	10
22,10	,	144314	,	-27682	,	-25798	,	7.7693343	,	10
22,10	,	144346	,	-27685	,	-25792	,	5.9383564	,	10
22,10	,	144362	,	-27694	,	-25806	,	3.8712077	,	9
22,10	,	144378	,	-27677	,	-25804	,	1.8812544	,	7
22,10	,	144410	,	-27700	,	-25801	,	0.18545341	,	5
22,10	,	144426	,	-27690	,	-25804	,	-1.16966	,	3
22,10	,	144457	,	-27686	,	-25804	,	-2.2238905	,	1
22,10	,	144473	,	-27690	,	-25805	,	-2.8966372	,	0
22,10	,	144489	,	-27692	,	-25818	,	-3.1452332	,	0
22,11	,	144521	,	-27690	,	-25798	,	-3.0736833	,	0
22,11	,	144538	,	-27686	,	-25801	,	-2.781602	,	0
22,11	,	144554	,	-27688	,	-25815	,	-2.3046775	,	0
22,11	,	144586	,	-27695	,	-25816	,	-1.7254553	,	0
22,11	,	144601	,	-27700	,	-25806	,	-1.2517354	,	0
22,11	,	144617	,	-27704	,	-25806	,	-1.1277207	,	0
22,11	,	144649	,	-27709	,	-25809	,	-1.5050668	,	0
22,11	,	144665	,	-27717	,	-25819	,	-2.4266095	,	0
22,11	,	144698	,	-27715	,	-25818	,	-3.8363266	,	0
22,11	,	144714	,	-27697	,	-25814	,	-5.4371443	,	0
22,11	,	144730	,	-27704	,	-25815	,	-6.6805744	,	0
22,11	,	144761	,	-27697	,	-25801	,	-7.131011	,	0
22,11	,	144778	,	-27711	,	-25821	,	-6.7434406	,	0
22,11	,	144793	,	-27725	,	-25820	,	-5.8873205	,	0
22,11	,	144825	,	-27712	,	-25826	,	-5.1139326	,	0
22,11	,	144841	,	-27717	,	-25824	,	-4.687023	,	0
22,11	,	144873	,	-27717	,	-25822	,	-4.522192	,	0
22,11	,	144890	,	-27716	,	-25832	,	-4.4762506	,	0
22,11	,	144906	,	-27719	,	-25817	,	-4.438866	,	0
22,11	,	144937	,	-27718	,	-25819	,	-4.339048	,	0
22,11	,	144953	,	-27716	,	-25817	,	-4.1393948	,	0
22,11	,	144969	,	-27702	,	-25831	,	-3.737969	,	0
22,11	,	145001	,	-27711	,	-25815	,	-2.972147	,	0
22,11	,	145017	,	-27703	,	-25836	,	-1.8078376	,	0
22,11	,	145033	,	-27724	,	-25840	,	-0.46932745	,	1
22,11	,	145065	,	-27723	,	-25854	,	0.603196	,	2
22,11	,	145082	,	-27724	,	-25868	,	1.0108676	,	3
22,11	,	145113	,	-27720	,	-25881	,	0.69451356	,	3
22,11	,	145129	,	-27738	,	-25891	,	-0.1742861	,	3
22,11	,	145145	,	-27743	,	-25897	,	-1.5303155	,	3
22,11	,	145177	,	-27750	,	-25918	,	-3.4228063	,	3
22,11	,	145193	,	-27740	,	-25917	,	-5.7253284	,	3
22,11	,	145209	,	-27746	,	-25926	,	-8.026791	,	3
22,11	,	145241	,	-27749	,	-25894	,	-9.899715	,	2
22,11	,	145257	,	-27745	,	-25917	,	-11.125364	,	1
22,11	,	145289	,	-27742	,	-25909	,	-11.595168	,	0
22,11	,	145305	,	-27755	,	-25902	,	-11.300834	,	0
22,11	,	145321	,	-27759	,	-25911	,	-10.496761	,	0
22,11	,	145353	,	-27752	,	-25913	,	-9.543196	,	0
22,11	,	145369	,	-27746	,	-25911	,	-8.553114	,	0
22,11	,	145385	,	-27742	,	-25918	,	-7.380426	,	0
22,11	,	145417	,	-27751	,	-25911	,	-5.914985	,	1
22,11	,	145433	,	-27759	,	-25920	,	-4.32335	,	2
22,11	,	145450	,	-27760	,	-25936	,	-2.9858422	,	3
22,11	,	145481	,	-27760	,	-25920	,	-2.1906996	,	4
22,11	,	145497	,	-27764	,	-25923	,	-1.981884	,	4
22,12	,	145529	,	-27766	,	-25917	,	-2.2678618	,	4
22,12	,	145545	,	-27758	,	-25916	,	-2.8767393	,	4
22,12	,	145561	,	-27774	,	-25920	,	-3.594895	,	4
22,12	,	145593	,	-27756	,	-25919	,	-4.2650075	,	4
22,12	,	145609	,	-27771	,	-25927	,	-4.7491965	,	3
22,12	,	145625	,	-27767	,	-25933	,	-4.9696965	,	2
22,12	,	145657	,	-27773	,	-25923	,	-4.9906282	,	1
22,12	,	145673	,	-27772	,	-25927	,	-4.915786	,	0
22,12	,	145705	,	-27765	,	-25931	,	-4.775279	,	0
22,12	,	145721	,	-27773	,	-25913	,	-4.519781	,	0
22,12	,	145737	,	-27763	,	-25915	,	-4.103721	,	0
22,12	,	145769	,	-27773	,	-25920	,	-3.526803	,	0
22,12	,	145785	,	-27768	,	-25929	,	-2.849397	,	0
22,12	,	145801	,	-27756	,	-25929	,	-2.109524	,	0
22,12	,	145833	,	-27744	,	-25922	,	-1.1356612	,	0
22,12	,	145849	,	-27757	,	-25934	,	0.28264415	,	0
22,12	,	145881	,	-27759	,	-25927	,	2.0006628	,	1
22,12	,	145897	,	-27752	,	-25915	,	3.612525	,	2
22,12	,	145913	,	-27752	,	-25906	,	4.8567405	,	3
22,12	,	145945	,	-27730	,	-25905	,	5.783022	,	4
22,12	,	145961	,	-27712	,	-25873	,	6.785243	,	4
22,12	,	145977	,	-27716	,	-25868	,	8.357786	,	5
22,12	,	146009	,	-27708	,	-25849	,	10.6085415	,	6
22,12	,	146025	,	-27697	,	-25844	,	13.261591	,	8
22,12	,	146041	,	-27691	,	-25845	,	16.018614	,	10
22,12	,	146073	,	-27689	,	-25832	,	18.630602	,	11
22,12	,	146089	,	-27659	,	-25817	,	20.942123	,	12
22,12	,	146121	,	-27662	,	-25806	,	23.031998	,	13
22,12	,	146137	,	-27659	,	-25808	,	24.964062	,	14
22,12	,	146153	,	-27661	,	-25795	,	26.49493	,	15
22,12	,	146185	,	-27654	,	-25801	,	27.26215	,	15
22,12	,	146201	,	-27668	,	-25792	,	27.008236	,	14
22,12	,	146217	,	-27672	,	-25802	,	25.534168	,	12
22,12	,	146249	,	-27652	,	-25790	,	22.837532	,	10
22,12	,	146265	,	-27663	,	-25800	,	19.334175	,	8
22,12	,	146297	,	-27688	,	-25803	,	15.439238	,	6
22,12	,	146313	,	-27666	,	-25795	,	11.228897	,	4
22,12	,	146329	,	-27670	,	-25798	,	6.9168577	,	2
22,12	,	146361	,	-27668	,	-25794	,	3.0181808	,	1
22,12	,	146377	,	-27668	,	-25799	,	-0.06076765	,	0
22,12	,	146393	,	-27681	,	-25787	,	-2.2277014	,	0
22,12	,	146425	,	-27687	,	-25796	,	-3.7121043	,	0
22,12	,	146441	,	-27684	,	-25786	,	-4.868929	,	0
22,12	,	146457	,	-27684	,	-25797	,	-5.8607693	,	0
22,12	,	146489	,	-27674	,	-25790	,	-6.583908	,	0
22,13	,	146505	,	-27681	,	-25793	,	-6.829616	,	0
22,13	,	146537	,	-27694	,	-25782	,	-6.5819407	,	0
22,13	,	146553	,	-27683	,	-25784	,	-6.0977306	,	0
22,13	,	146569	,	-27682	,	-25784	,	-5.563292	,	0
22,13	,	146601	,	-27681	,	-25774	,	-4.933531	,	0
22,13	,	146617	,	-27672	,	-25778	,	-4.094238	,	0
22,13	,	146633	,	-27685	,	-25779	,	-3.0000803	,	0
22,13	,	146665	,	-27662	,	-25781	,	-1.6974342	,	1
22,13	,	146681	,	-27674	,	-25758	,	-0.21438706	,	2
22,13	,	146712	,	-27661	,	-25762	,	1.4184433	,	3
22,13	,	146729	,	-27660	,	-25775	,	3.1126802	,	4
22,13	,	146745	,	-27662	,	-25774	,	4.76979	,	5
22,13	,	146776	,	-27659	,	-25772	,	6.2353506	,	6
22,13	,	146792	,	-27662	,	-25765	,	7.3202705	,	7
22,13	,	146809	,	-27641	,	-25767	,	7.9829636	,	8
22,13	,	146841	,	-27647	,	-25760	,	8.426058	,	8
22,13	,	146857	,	-27651	,	-25758	,	8.823978	,	7
22,13	,	146873	,	-27647	,	-25751	,	9.080627	,	6
22,13	,	146905	,	-27631	,	-25766	,	9.119106	,	5
22,13	,	146921	,	-27642	,	-25745	,	9.083456	,	4
22,13	,	146952	,	-27641	,	-25748	,	9.041643	,	3
22,13	,	146968	,	-27641	,	-25763	,	8.852297	,	2
22,13	,	146985	,	-27650	,	-25761	,	8.343893	,	1
22,13	,	147017	,	-27650	,	-25760	,	7.3795204	,	0
22,13	,	147033	,	-27664	,	-25763	,	5.8513746	,	0
22,13	,	147049	,	-27649	,	-25758	,	3.7736332	,	0
22,13	,	147081	,	-27656	,	-25759	,	1.4070272	,	0
22,13	,	147097	,	-27671	,	-25752	,	-0.93275857	,	0
22,13	,	147128	,	-27647	,	-25748	,	-3.0742106	,	0
22,13	,	147145	,	-27662	,	-25770	,	-4.7920732	,	0
22,13	,	147161	,	-27666	,	-25755	,	-5.906611	,	0
22,13	,	147193	,	-27657	,	-25760	,	-6.4845195	,	0
22,13	,	147209	,	-27666	,	-25767	,	-6.6278734	,	0
22,13	,	147225	,	-27672	,	-25768	,	-6.4575334	,	0
22,13	,	147256	,	-27672	,	-25771	,	-6.206998	,	0
22,13	,	147272	,	-27673	,	-25771	,	-6.047987	,	0
22,13	,	147288	,	-27672	,	-25769	,	-5.9837675	,	0
22,13	,	147321	,	-27697	,	-25780	,	-6.0400276	,	0
22,13	,	147337	,	-27686	,	-25780	,	-6.4092484	,	0
22,13	,	147368	,	-27688	,	-25775	,	-7.1634426	,	0
22,13	,	147384	,	-27677	,	-25789	,	-8.009903	,	0
22,13	,	147400	,	-27686	,	-25766	,	-8.533663	,	0
22,13	,	147432	,	-27686	,	-25780	,	-8.535641	,	0
22,13	,	147448	,	-27657	,	-25772	,	-7.9341564	,	0
22,13	,	147464	,	-27677	,	-25771	,	-6.5568585	,	0
22,13	,	147497	,	-27666	,	-25774	,	-4.428975	,	1
22,14	,	147512	,	-27664	,	-25770	,	-1.8871355	,	3
22,14	,	147544	,	-27660	,	-25779	,	0.74853134	,	5
22,14	,	147560	,	-27657	,	-25772	,	3.273346	,	7
22,14	,	147576	,	-27662	,	-25765	,	5.5008893	,	9
22,14	,	147608	,	-27656	,	-25757	,	7.231982	,	11
22,14	,	147624	,	-27660	,	-25768	,	8.325327	,	12
22,14	,	147640	,	-27652	,	-25761	,	8.76903	,	13
22,14	,	147673	,	-27660	,	-25759	,	8.652826	,	13
22,14	,	147689	,	-27654	,	-25755	,	8.090651	,	12
22,14	,	147720	,	-27648	,	-25751	,	7.2379837	,	10
22,14	,	147736	,	-27667	,	-25755	,	6.251387	,	8
22,14	,	147752	,	-27662	,	-25745	,	5.1042023	,	6
22,14	,	147784	,	-27650	,	-25751	,	3.7664762	,	4
22,14	,	147800	,	-27662	,	-25754	,	2.4416513	,	2
22,14	,	147816	,	-27663	,	-25768	,	1.292419	,	1
22,14	,	147849	,	-27661	,	-25766	,	0.29309595	,	0
22,14	,	147865	,	-27660	,	-25760	,	-0.5625843	,	0
22,14	,	147881	,	-27669	,	-25756	,	-1.2473247	,	0
22,14	,	147912	,	-27658	,	-25767	,	-1.7812252	,	0
22,14	,	147928	,	-27671	,	-25764	,	-2.1809916	,	0
22,14	,	147960	,	-27679	,	-25763	,	-2.5401278	,	0
22,14	,	147976	,	-27677	,	-25757	,	-3.0670958	,	0
22,14	,	147992	,	-27686	,	-25764	,	-3.8861504	,	0
22,14	,	148024	,	-27674	,	-25756	,	-4.9237213	,	0
22,14	,	148040	,	-27684	,	-25765	,	-5.9522514	,	0
22,14	,	148056	,	-27695	,	-25756	,	-6.813921	,	0
22,14	,	148088	,	-27687	,	-25759	,	-7.555146	,	0
22,14	,	148104	,	-27680	,	-25781	,	-8.138803	,	0
22,14	,	148136	,	-27687	,	-25776	,	-8.335018	,	0
22,14	,	148152	,	-27688	,	-25761	,	-8.031305	,	0
22,14	,	148168	,	-27662	,	-25756	,	-7.2135143	,	0
22,14	,	148200	,	-27667	,	-25752	,	-5.7086325	,	0
22,14	,	148216	,	-27656	,	-25744	,	-3.3780382	,	1
22,14	,	148232	,	-27657	,	-25750	,	-0.36967087	,	3
22,14	,	148264	,	-27655	,	-25741	,	2.957837	,	6
22,14	,	148280	,	-27648	,	-25744	,	6.190984	,	9
22,14	,	148296	,	-27638	,	-25742	,	9.05887	,	12
22,14	,	148328	,	-27647	,	-25752	,	11.452875	,	14
22,14	,	148344	,	-27639	,	-25743	,	13.235852	,	16
22,14	,	148376	,	-27652	,	-25755	,	14.214029	,	17
22,14	,	148392	,	-27652	,	-25741	,	14.208617	,	17
22,14	,	148408	,	-27648	,	-25755	,	13.161138	,	16
22,14	,	148440	,	-27662	,	-25743	,	11.20889	,	14
22,14	,	148456	,	-27653	,	-25750	,	8.587097	,	11
22,14	,	148472	,	-27646	,	-25746	,	5.6598935	,	8
22,15	,	148504	,	-27649	,	-25743	,	2.9350715	,	5
22,15	,	148520	,	-27652	,	-25747	,	0.7798047	,	3
22,15	,	148552	,	-27650	,	-25753	,	-0.72119284	,	1
22,15	,	148568	,	-27648	,	-25749	,	-1.6178108	,	0
22,15	,	148584	,	-27653	,	-25759	,	-1.9989504	,	0
22,15	,	148616	,	-27652	,	-25760	,	-2.01315	,	0
22,15	,	148632	,	-27655	,	-25734	,	-1.8384528	,	0
22,15	,	148648	,	-27664	,	-25747	,	-1.6613146	,	0
22,15	,	148680	,	-27676	,	-25747	,	-1.7528236	,	0
22,15	,	148696	,	-27662	,	-25751	,	-2.3447428	,	0
22,15	,	148712	,	-27671	,	-25748	,	-3.35724	,	0
22,15	,	148744	,	-27661	,	-25752	,	-4.4669666	,	0
22,15	,	148760	,	-27686	,	-25756	,	-5.4439073	,	0
22,15	,	148792	,	-27686	,	-25758	,	-6.3626504	,	0
22,15	,	148808	,	-27690	,	-25758	,	-7.4335012	,	0
22,15	,	148824	,	-27677	,	-25764	,	-8.625143	,	0
22,15	,	148856	,	-27694	,	-25779	,	-9.660761	,	0
22,15	,	148872	,	-27701	,	-25749	,	-10.409084	,	0
22,15	,	148888	,	-27688	,	-25772	,	-10.940474	,	0
22,15	,	148920	,	-27682	,	-25775	,	-11.145078	,	0
22,15	,	148936	,	-27680	,	-25764	,	-10.703264	,	0
22,15	,	148968	,	-27666	,	-25762	,	-9.373625	,	0
22,15	,	148984	,	-27667	,	-25765	,	-7.0868187	,	1
22,15	,	149000	,	-27666	,	-25755	,	-4.0078535	,	3
22,15	,	149032	,	-27662	,	-25759	,	-0.54005146	,	6
22,15	,	149048	,	-27663	,	-25753	,	2.8587668	,	9
22,15	,	149064	,	-27661	,	-25759	,	5.8049793	,	12
22,15	,	149096	,	-27652	,	-25775	,	8.069739	,	14
22,15	,	149112	,	-27661	,	-25748	,	9.601116	,	16
22,15	,	149128	,	-27665	,	-25762	,	10.348553	,	17
22,15	,	149160	,	-27663	,	-25768	,	10.220439	,	17
22,15	,	149176	,	-27664	,	-25763	,	9.269314	,	16
22,15	,	149208	,	-27661	,	-25761	,	7.7328296	,	14
22,15	,	149224	,	-27673	,	-25758	,	5.871547	,	11
22,15	,	149240	,	-27664	,	-25755	,	3.8560462	,	8
22,15	,	149272	,	-27663	,	-25768	,	1.875488	,	5
22,15	,	149287	,	-27653	,	-25765	,	0.24462175	,	3
22,15	,	149303	,	-27668	,	-25762	,	-0.7759973	,	1
22,15	,	149336	,	-27673	,	-25773	,	-1.2595339	,	0
22,15	,	149352	,	-27667	,	-25744	,	-1.518259	,	0
22,15	,	149384	,	-27671	,	-25760	,	-1.7440889	,	0
22,15	,	149400	,	-27672	,	-25772	,	-1.967144	,	0
22,15	,	149416	,	-27666	,	-25766	,	-2.1739533	,	0
22,15	,	149447	,	-27690	,	-25769	,	-2.3875775	,	0
22,15	,	149463	,	-27677	,	-25765	,	-2.76137	,	0
22,15	,	149479	,	-27685	,	-25775	,	-3.3955796	,	0
22,16	,	149512	,	-27691	,	-25774	,	-4.224126	,	0
22,16	,	149528	,	-27690	,	-25774	,	-5.177359	,	0
22,16	,	149544	,	-27680	,	-25783	,	-6.1161704	,	0
22,16	,	149576	,	-27706	,	-25799	,	-6.8527393	,	0
22,16	,	149592	,	-27703	,	-25766	,	-7.4548645	,	0
22,16	,	149623	,	-27697	,	-25781	,	-8.097941	,	0
22,16	,	149639	,	-27717	,	-25775	,	-8.776592	,	0
22,16	,	149655	,	-27719	,	-25780	,	-9.517597	,	0
22,16	,	149687	,	-27718	,	-25793	,	-10.417504	,	0
22,16	,	149704	,	-27709	,	-25795	,	-11.334997	,	0
22,16	,	149720	,	-27709	,	-25797	,	-11.889261	,	0
22,16	,	149752	,	-27705	,	-25785	,	-11.741055	,	0
22,16	,	149768	,	-27695	,	-25784	,	-10.720028	,	0
22,16	,	149799	,	-27693	,	-25790	,	-8.770987	,	1
22,16	,	149815	,	-27695	,	-25796	,	-6.018874	,	2
22,16	,	149831	,	-27691	,	-25767	,	-2.8282967	,	4
22,16	,	149863	,	-27699	,	-25774	,	0.329247	,	7
22,16	,	149879	,	-27686	,	-25778	,	3.0524201	,	10
22,16	,	149896	,	-27689	,	-25778	,	5.151769	,	12
22,16	,	149928	,	-27697	,	-25774	,	6.570611	,	14
22,16	,	149944	,	-27692	,	-25779	,	7.223012	,	15
22,16	,	149959	,	-27700	,	-25787	,	7.071952	,	15
22,16	,	149991	,	-27696	,	-25786	,	6.212418	,	14
22,16	,	150007	,	-27699	,	-25790	,	4.8445225	,	13
22,16	,	150039	,	-27680	,	-25787	,	3.3060637	,	11
22,16	,	150056	,	-27697	,	-25800	,	2.0012302	,	8
22,16	,	150072	,	-27689	,	-25761	,	1.1269872	,	5
22,16	,	150103	,	-27691	,	-25771	,	0.63160276	,	3
22,16	,	150119	,	-27688	,	-25783	,	0.42650515	,	1
22,16	,	150135	,	-27698	,	-25782	,	0.40660024	,	0
22,16	,	150167	,	-27696	,	-25786	,	0.38995713	,	0
22,16	,	150183	,	-27699	,	-25789	,	0.21042222	,	0
22,16	,	150215	,	-27713	,	-25792	,	-0.25063884	,	0
22,16	,	150231	,	-27703	,	-25789	,	-1.0895312	,	0
22,16	,	150248	,	-27714	,	-25792	,	-2.266091	,	0
22,16	,	150279	,	-27712	,	-25788	,	-3.6132529	,	0
22,16	,	150296	,	-27706	,	-25804	,	-4.9224453	,	0
22,16	,	150311	,	-27720	,	-25761	,	-5.9823866	,	0
22,16	,	150343	,	-27724	,	-25791	,	-6.770071	,	0
22,16	,	150359	,	-27714	,	-25786	,	-7.398054	,	0
22,16	,	150375	,	-27729	,	-25799	,	-7.8724594	,	0
22,16	,	150407	,	-27724	,	-25793	,	-8.176902	,	0
22,16	,	150423	,	-27732	,	-25795	,	-8.360666	,	0
22,16	,	150455	,	-27726	,	-25799	,	-8.442697	,	0
22,16	,	150471	,	-27720	,	-25803	,	-8.33218	,	0
22,16	,	150487	,	-27703	,	-25794	,	-7.762985	,	0
22,17	,	150519	,	-27711	,	-25794	,	-6.424167	,	0
22,17	,	150535	,	-27705	,	-25819	,	-4.2830715	,	1
22,17	,	150551	,	-27711	,	-25789	,	-1.6597371	,	3
22,17	,	150583	,	-27703	,	-25792	,	1.0042748	,	5
22,17	,	150599	,	-27699	,	-25793	,	3.3938186	,	7
22,17	,	150631	,	-27691	,	-25789	,	5.429467	,	9
22,17	,	150647	,	-27705	,	-25788	,	7.107743	,	11
22,17	,	150663	,	-27688	,	-25779	,	8.332941	,	12
22,17	,	150695	,	-27694	,	-25775	,	9.057032	,	13
22,17	,	150711	,	-27691	,	-25785	,	9.338805	,	13
22,17	,	150727	,	-27690	,	-25783	,	9.227691	,	12
22,17	,	150759	,	-27686	,	-25789	,	8.797756	,	10
22,17	,	150775	,	-27695	,	-25803	,	8.142877	,	8
22,17	,	150807	,	-27706	,	-25776	,	7.210036	,	6
22,17	,	150823	,	-27696	,	-25793	,	5.8459415	,	4
22,17	,	150839	,	-27698	,	-25783	,	4.098455	,	2
22,17	,	150871	,	-27706	,	-25793	,	2.2106817	,	1
22,17	,	150887	,	-27705	,	-25785	,	0.34638286	,	0
