Data recorded on Mon Jul 24 11-28-05 CAT 2017
Time: 11:28:23
Time		Millis		IR PPG		Red PPG		Filtered		SSF
28,32	,	33133	,	-28789	,	-27258	,	45.795944	,	67
28,32	,	33165	,	-28775	,	-27266	,	42.598732	,	65
28,32	,	33181	,	-28769	,	-27275	,	37.37119	,	60
28,32	,	33197	,	-28773	,	-27244	,	31.182135	,	52
28,32	,	33229	,	-28783	,	-27261	,	24.850048	,	41
28,32	,	33245	,	-28777	,	-27258	,	18.777021	,	29
28,32	,	33261	,	-28793	,	-27246	,	13.143946	,	18
28,32	,	33293	,	-28783	,	-27262	,	8.041708	,	9
28,32	,	33309	,	-28794	,	-27253	,	3.563301	,	3
28,32	,	33341	,	-28792	,	-27273	,	-0.18556213	,	0
28,32	,	33357	,	-28799	,	-27271	,	-3.1726832	,	0
28,32	,	33373	,	-28809	,	-27270	,	-5.4883385	,	0
28,32	,	33405	,	-28810	,	-27280	,	-7.336208	,	0
28,32	,	33421	,	-28821	,	-27302	,	-8.9262495	,	0
28,32	,	33437	,	-28838	,	-27267	,	-10.472126	,	0
28,32	,	33469	,	-28842	,	-27291	,	-12.232511	,	0
28,32	,	33485	,	-28861	,	-27295	,	-14.385691	,	0
28,32	,	33501	,	-28855	,	-27289	,	-16.914753	,	0
28,32	,	33533	,	-28803	,	-27271	,	-19.25974	,	0
28,32	,	33549	,	-28783	,	-27256	,	-20.04919	,	0
28,32	,	33581	,	-28767	,	-27244	,	-17.865652	,	0
28,32	,	33597	,	-28745	,	-27243	,	-12.209042	,	2
28,32	,	33613	,	-28743	,	-27230	,	-3.5765686	,	7
28,32	,	33645	,	-28725	,	-27236	,	6.8681374	,	15
28,32	,	33661	,	-28711	,	-27228	,	17.752085	,	25
28,32	,	33677	,	-28707	,	-27230	,	27.891062	,	35
28,32	,	33709	,	-28721	,	-27229	,	36.24046	,	45
28,32	,	33725	,	-28727	,	-27228	,	41.77259	,	53
28,32	,	33757	,	-28705	,	-27233	,	43.87024	,	58
28,32	,	33773	,	-28713	,	-27225	,	42.763145	,	60
28,32	,	33789	,	-28717	,	-27231	,	39.18747	,	58
28,32	,	33821	,	-28720	,	-27224	,	33.84526	,	53
28,32	,	33837	,	-28705	,	-27222	,	27.453129	,	45
28,32	,	33853	,	-28709	,	-27232	,	20.878359	,	35
28,32	,	33885	,	-28716	,	-27243	,	14.847657	,	25
28,32	,	33901	,	-28717	,	-27219	,	9.67086	,	15
28,32	,	33932	,	-28716	,	-27242	,	5.3927135	,	7
28,32	,	33949	,	-28732	,	-27244	,	1.9530025	,	2
28,32	,	33964	,	-28736	,	-27249	,	-0.87794733	,	0
28,32	,	33996	,	-28741	,	-27252	,	-3.4052153	,	0
28,32	,	34013	,	-28747	,	-27258	,	-5.8071575	,	0
28,32	,	34029	,	-28758	,	-27271	,	-8.151207	,	0
28,32	,	34061	,	-28797	,	-27274	,	-10.648801	,	0
28,32	,	34077	,	-28785	,	-27282	,	-13.685377	,	0
28,32	,	34093	,	-28790	,	-27266	,	-17.286222	,	0
28,32	,	34124	,	-28799	,	-27300	,	-20.930267	,	0
28,33	,	34140	,	-28788	,	-27265	,	-23.982533	,	0
28,33	,	34172	,	-28745	,	-27258	,	-25.66761	,	0
28,33	,	34189	,	-28709	,	-27244	,	-24.79821	,	0
28,33	,	34205	,	-28681	,	-27236	,	-20.204878	,	0
28,33	,	34237	,	-28678	,	-27225	,	-11.5888605	,	4
28,33	,	34253	,	-28675	,	-27224	,	0.061551094	,	12
28,33	,	34269	,	-28662	,	-27220	,	12.898727	,	23
28,33	,	34301	,	-28652	,	-27220	,	25.083355	,	35
28,33	,	34316	,	-28652	,	-27220	,	35.264854	,	47
28,33	,	34348	,	-28644	,	-27214	,	42.58941	,	57
28,33	,	34369	,	-28659	,	-27216	,	46.60677	,	64
28,33	,	34381	,	-28646	,	-27216	,	47.210983	,	68
28,33	,	34412	,	-28640	,	-27212	,	44.782516	,	68
28,33	,	34428	,	-28648	,	-27219	,	40.156113	,	64
28,33	,	34445	,	-28641	,	-27219	,	34.20935	,	56
28,33	,	34477	,	-28651	,	-27214	,	27.654713	,	45
28,33	,	34492	,	-28660	,	-27224	,	20.99307	,	33
28,33	,	34508	,	-28646	,	-27218	,	14.555807	,	21
28,33	,	34540	,	-28663	,	-27218	,	8.686993	,	11
28,33	,	34557	,	-28661	,	-27233	,	3.6444368	,	4
28,33	,	34588	,	-28662	,	-27245	,	-0.49360228	,	0
28,33	,	34605	,	-28669	,	-27219	,	-3.7113247	,	0
28,33	,	34620	,	-28680	,	-27250	,	-6.121198	,	0
28,33	,	34652	,	-28694	,	-27248	,	-8.054192	,	0
28,33	,	34668	,	-28717	,	-27262	,	-10.002578	,	0
28,33	,	34685	,	-28719	,	-27258	,	-12.434574	,	0
28,33	,	34717	,	-28730	,	-27271	,	-15.495085	,	0
28,33	,	34732	,	-28731	,	-27264	,	-18.92251	,	0
28,33	,	34764	,	-28750	,	-27269	,	-22.302681	,	0
28,33	,	34780	,	-28718	,	-27266	,	-25.172611	,	0
28,33	,	34796	,	-28685	,	-27249	,	-26.68217	,	0
28,33	,	34828	,	-28651	,	-27248	,	-25.53382	,	0
28,33	,	34844	,	-28627	,	-27206	,	-20.644714	,	1
28,33	,	34860	,	-28604	,	-27219	,	-11.789733	,	5
28,33	,	34892	,	-28598	,	-27213	,	0.25251102	,	13
28,33	,	34908	,	-28593	,	-27217	,	13.889842	,	25
28,33	,	34924	,	-28580	,	-27206	,	27.21359	,	38
28,33	,	34956	,	-28582	,	-27212	,	38.578835	,	51
28,33	,	34972	,	-28579	,	-27210	,	46.84019	,	62
28,33	,	35004	,	-28589	,	-27208	,	51.324768	,	70
28,33	,	35020	,	-28587	,	-27215	,	51.831512	,	74
28,33	,	35036	,	-28592	,	-27213	,	48.67743	,	73
28,33	,	35068	,	-28579	,	-27213	,	42.694996	,	69
28,33	,	35084	,	-28587	,	-27209	,	35.044067	,	61
28,33	,	35100	,	-28588	,	-27211	,	26.830408	,	49
28,34	,	35132	,	-28593	,	-27212	,	18.847366	,	36
28,34	,	35148	,	-28595	,	-27216	,	11.599167	,	23
28,34	,	35180	,	-28607	,	-27222	,	5.3406487	,	12
28,34	,	35196	,	-28614	,	-27215	,	0.05973816	,	4
28,34	,	35212	,	-28613	,	-27231	,	-4.377008	,	0
28,34	,	35244	,	-28613	,	-27241	,	-7.982503	,	0
28,34	,	35260	,	-28622	,	-27225	,	-10.670979	,	0
28,34	,	35276	,	-28630	,	-27245	,	-12.493853	,	0
28,34	,	35308	,	-28649	,	-27232	,	-13.752917	,	0
28,34	,	35324	,	-28654	,	-27250	,	-14.895954	,	0
28,34	,	35340	,	-28678	,	-27258	,	-16.334831	,	0
28,34	,	35372	,	-28687	,	-27260	,	-18.36924	,	0
28,34	,	35388	,	-28690	,	-27280	,	-21.064106	,	0
28,34	,	35420	,	-28677	,	-27259	,	-24.01371	,	0
28,34	,	35436	,	-28635	,	-27247	,	-26.196365	,	0
28,34	,	35452	,	-28614	,	-27235	,	-26.15388	,	0
28,34	,	35484	,	-28611	,	-27227	,	-22.780968	,	0
28,34	,	35500	,	-28585	,	-27218	,	-16.01944	,	3
28,34	,	35516	,	-28580	,	-27239	,	-6.6524105	,	9
28,34	,	35548	,	-28577	,	-27199	,	4.103428	,	18
28,34	,	35564	,	-28555	,	-27210	,	14.877213	,	28
28,34	,	35596	,	-28563	,	-27207	,	24.508432	,	38
28,34	,	35612	,	-28558	,	-27217	,	32.11202	,	47
28,34	,	35628	,	-28567	,	-27219	,	37.006638	,	54
28,34	,	35660	,	-28573	,	-27230	,	38.79788	,	58
28,34	,	35676	,	-28578	,	-27227	,	37.448803	,	59
28,34	,	35692	,	-28569	,	-27229	,	33.377968	,	56
28,34	,	35724	,	-28585	,	-27225	,	27.401926	,	50
28,34	,	35740	,	-28575	,	-27230	,	20.430883	,	41
28,34	,	35756	,	-28565	,	-27241	,	13.383589	,	31
28,34	,	35788	,	-28574	,	-27213	,	7.156831	,	21
28,34	,	35804	,	-28590	,	-27229	,	2.2163334	,	12
28,34	,	35836	,	-28599	,	-27230	,	-1.621151	,	5
28,34	,	35852	,	-28605	,	-27239	,	-4.818876	,	1
28,34	,	35870	,	-28614	,	-27238	,	-7.7216535	,	0
28,34	,	35900	,	-28622	,	-27241	,	-10.495902	,	0
28,34	,	35916	,	-28638	,	-27261	,	-13.237697	,	0
28,34	,	35932	,	-28653	,	-27276	,	-16.07509	,	0
28,34	,	35964	,	-28658	,	-27268	,	-19.1144	,	0
28,34	,	35980	,	-28669	,	-27281	,	-22.277737	,	0
28,34	,	36012	,	-28677	,	-27278	,	-25.328964	,	0
28,34	,	36028	,	-28696	,	-27293	,	-28.071358	,	0
28,34	,	36044	,	-28696	,	-27296	,	-30.41633	,	0
28,34	,	36076	,	-28666	,	-27268	,	-32.074806	,	0
28,34	,	36092	,	-28646	,	-27263	,	-32.23299	,	0
28,34	,	36108	,	-28624	,	-27260	,	-29.877132	,	0
28,35	,	36140	,	-28633	,	-27256	,	-24.554937	,	2
28,35	,	36156	,	-28612	,	-27252	,	-16.737875	,	7
28,35	,	36172	,	-28601	,	-27251	,	-7.4071608	,	14
28,35	,	36204	,	-28593	,	-27248	,	2.463974	,	23
28,35	,	36220	,	-28593	,	-27258	,	11.942678	,	32
28,35	,	36252	,	-28592	,	-27230	,	20.097523	,	41
28,35	,	36268	,	-28603	,	-27260	,	26.110495	,	49
28,35	,	36284	,	-28617	,	-27254	,	29.330988	,	55
28,35	,	36316	,	-28614	,	-27248	,	29.415745	,	58
28,35	,	36332	,	-28618	,	-27248	,	26.588861	,	56
28,35	,	36348	,	-28612	,	-27252	,	21.634884	,	51
28,35	,	36380	,	-28613	,	-27255	,	15.612166	,	44
28,35	,	36396	,	-28628	,	-27262	,	9.470584	,	35
28,35	,	36428	,	-28617	,	-27261	,	3.805666	,	26
28,35	,	36444	,	-28627	,	-27274	,	-1.017528	,	17
28,35	,	36460	,	-28649	,	-27290	,	-4.8738365	,	9
28,35	,	36492	,	-28654	,	-27261	,	-8.04634	,	3
28,35	,	36508	,	-28675	,	-27287	,	-11.004669	,	0
28,35	,	36524	,	-28684	,	-27303	,	-14.11953	,	0
28,35	,	36556	,	-28705	,	-27304	,	-17.608854	,	0
28,35	,	36572	,	-28711	,	-27308	,	-21.513025	,	0
28,35	,	36588	,	-28721	,	-27316	,	-25.637238	,	0
28,35	,	36620	,	-28723	,	-27322	,	-29.555695	,	0
28,35	,	36636	,	-28741	,	-27329	,	-32.809475	,	0
28,35	,	36668	,	-28757	,	-27330	,	-35.20849	,	0
28,35	,	36684	,	-28767	,	-27335	,	-36.88349	,	0
28,35	,	36700	,	-28787	,	-27348	,	-38.07753	,	0
28,35	,	36732	,	-28800	,	-27356	,	-39.036415	,	0
28,35	,	36748	,	-28807	,	-27361	,	-39.933296	,	0
28,35	,	36764	,	-28776	,	-27351	,	-40.548748	,	0
28,35	,	36796	,	-28767	,	-27334	,	-40.063446	,	0
28,35	,	36812	,	-28762	,	-27334	,	-37.557102	,	0
28,35	,	36844	,	-28756	,	-27339	,	-32.713474	,	2
28,35	,	36860	,	-28737	,	-27335	,	-25.826899	,	6
28,35	,	36876	,	-28718	,	-27333	,	-17.369146	,	12
28,35	,	36907	,	-28738	,	-27325	,	-7.961669	,	20
28,35	,	36923	,	-28731	,	-27338	,	1.352479	,	29
28,35	,	36940	,	-28728	,	-27313	,	9.404817	,	38
28,35	,	36971	,	-28742	,	-27337	,	15.396333	,	46
28,35	,	36988	,	-28744	,	-27338	,	18.872635	,	51
28,35	,	37020	,	-28761	,	-27326	,	19.622171	,	54
28,35	,	37036	,	-28766	,	-27338	,	17.71275	,	52
28,35	,	37052	,	-28757	,	-27344	,	13.609132	,	48
28,35	,	37084	,	-28761	,	-27343	,	8.236995	,	42
28,35	,	37100	,	-28774	,	-27345	,	2.5909643	,	34
28,35	,	37115	,	-28789	,	-27347	,	-2.7706728	,	25
28,36	,	37147	,	-28781	,	-27361	,	-7.6575756	,	16
28,36	,	37164	,	-28802	,	-27373	,	-11.919552	,	8
28,36	,	37180	,	-28800	,	-27335	,	-15.455923	,	3
28,36	,	37211	,	-28813	,	-27375	,	-18.27281	,	0
28,36	,	37227	,	-28824	,	-27386	,	-20.444088	,	0
28,36	,	37259	,	-28849	,	-27380	,	-22.219484	,	0
28,36	,	37275	,	-28864	,	-27386	,	-24.044218	,	0
28,36	,	37291	,	-28870	,	-27391	,	-26.272457	,	0
28,36	,	37323	,	-28876	,	-27401	,	-28.865372	,	0
28,36	,	37339	,	-28897	,	-27402	,	-31.512234	,	0
28,36	,	37355	,	-28899	,	-27400	,	-33.94703	,	0
28,36	,	37387	,	-28908	,	-27413	,	-35.95258	,	0
28,36	,	37403	,	-28928	,	-27411	,	-37.357517	,	0
28,36	,	37435	,	-28933	,	-27424	,	-38.183426	,	0
28,36	,	37451	,	-28965	,	-27431	,	-38.647568	,	0
28,36	,	37467	,	-28960	,	-27436	,	-39.04185	,	0
28,36	,	37499	,	-28963	,	-27434	,	-39.428585	,	0
28,36	,	37516	,	-28940	,	-27428	,	-39.365707	,	0
28,36	,	37532	,	-28920	,	-27412	,	-37.994205	,	0
28,36	,	37563	,	-28917	,	-27422	,	-34.484642	,	1
28,36	,	37579	,	-28924	,	-27413	,	-28.675821	,	4
28,36	,	37595	,	-28925	,	-27410	,	-21.284119	,	9
28,36	,	37627	,	-28918	,	-27418	,	-13.4160385	,	16
28,36	,	37643	,	-28905	,	-27395	,	-5.941289	,	23
28,36	,	37675	,	-28929	,	-27413	,	0.5948839	,	30
28,36	,	37691	,	-28931	,	-27410	,	5.6197968	,	36
28,36	,	37707	,	-28934	,	-27411	,	8.594245	,	41
28,36	,	37739	,	-28930	,	-27423	,	9.430882	,	43
28,36	,	37755	,	-28943	,	-27419	,	8.489548	,	42
28,36	,	37772	,	-28937	,	-27421	,	6.271414	,	39
28,36	,	37803	,	-28948	,	-27419	,	3.2825484	,	34
28,36	,	37819	,	-28955	,	-27420	,	-0.054794073	,	27
28,36	,	37851	,	-28952	,	-27419	,	-3.4384573	,	20
28,36	,	37867	,	-28959	,	-27433	,	-6.5762143	,	13
28,36	,	37883	,	-28960	,	-27409	,	-9.208594	,	7
28,36	,	37915	,	-28988	,	-27427	,	-11.315323	,	2
28,36	,	37931	,	-28971	,	-27436	,	-13.105774	,	0
28,36	,	37947	,	-28994	,	-27441	,	-14.710453	,	0
28,36	,	37979	,	-29009	,	-27439	,	-16.21167	,	0
28,36	,	37995	,	-29020	,	-27448	,	-17.866072	,	0
28,36	,	38011	,	-29021	,	-27462	,	-19.856277	,	0
28,36	,	38043	,	-29035	,	-27456	,	-22.065365	,	0
28,36	,	38059	,	-29046	,	-27455	,	-24.281893	,	0
28,36	,	38091	,	-29052	,	-27465	,	-26.368473	,	0
28,36	,	38107	,	-29066	,	-27467	,	-28.219593	,	0
28,36	,	38123	,	-29073	,	-27470	,	-29.762627	,	0
28,37	,	38155	,	-29100	,	-27475	,	-31.051447	,	0
28,37	,	38171	,	-29100	,	-27492	,	-32.265118	,	0
28,37	,	38187	,	-29105	,	-27485	,	-33.45462	,	0
28,37	,	38219	,	-29063	,	-27479	,	-34.163376	,	0
28,37	,	38235	,	-29056	,	-27459	,	-33.378773	,	0
28,37	,	38267	,	-29043	,	-27459	,	-30.152922	,	0
28,37	,	38283	,	-29034	,	-27460	,	-24.269115	,	3
28,37	,	38299	,	-29045	,	-27455	,	-16.329021	,	8
28,37	,	38331	,	-29017	,	-27467	,	-7.4095697	,	15
28,37	,	38347	,	-29032	,	-27429	,	1.4352951	,	23
28,37	,	38363	,	-29022	,	-27446	,	9.331743	,	31
28,37	,	38395	,	-29014	,	-27446	,	15.618401	,	38
28,37	,	38411	,	-29022	,	-27455	,	19.992538	,	44
28,37	,	38443	,	-29027	,	-27451	,	22.338306	,	48
28,37	,	38459	,	-29039	,	-27451	,	22.553425	,	50
28,37	,	38475	,	-29030	,	-27443	,	20.713066	,	47
28,37	,	38507	,	-29035	,	-27448	,	17.259064	,	42
28,37	,	38523	,	-29038	,	-27444	,	12.872358	,	35
28,37	,	38539	,	-29037	,	-27444	,	8.192801	,	27
28,37	,	38571	,	-29035	,	-27449	,	3.760131	,	19
28,37	,	38587	,	-29038	,	-27430	,	0.012860298	,	12
28,37	,	38603	,	-29046	,	-27445	,	-2.843968	,	6
28,37	,	38635	,	-29056	,	-27437	,	-4.92843	,	2
28,37	,	38651	,	-29062	,	-27450	,	-6.575193	,	0
28,37	,	38683	,	-29060	,	-27450	,	-8.066876	,	0
28,37	,	38699	,	-29079	,	-27461	,	-9.517393	,	0
28,37	,	38715	,	-29086	,	-27454	,	-11.046784	,	0
28,37	,	38747	,	-29094	,	-27457	,	-12.81504	,	0
28,37	,	38763	,	-29097	,	-27466	,	-14.830141	,	0
28,37	,	38779	,	-29107	,	-27474	,	-16.927174	,	0
28,37	,	38811	,	-29121	,	-27470	,	-18.953758	,	0
28,37	,	38827	,	-29130	,	-27479	,	-20.893217	,	0
28,37	,	38860	,	-29150	,	-27489	,	-22.832739	,	0
28,37	,	38875	,	-29145	,	-27495	,	-24.834442	,	0
28,37	,	38891	,	-29128	,	-27484	,	-26.634346	,	0
28,37	,	38923	,	-29116	,	-27473	,	-27.485697	,	0
28,37	,	38939	,	-29083	,	-27459	,	-26.441769	,	0
28,37	,	38955	,	-29073	,	-27456	,	-22.748508	,	1
28,37	,	38987	,	-29066	,	-27450	,	-16.250847	,	4
28,37	,	39003	,	-29062	,	-27447	,	-7.6181316	,	10
28,37	,	39019	,	-29050	,	-27447	,	1.9709034	,	18
28,37	,	39051	,	-29057	,	-27418	,	11.283844	,	27
28,37	,	39067	,	-29034	,	-27431	,	19.31111	,	36
28,37	,	39098	,	-29034	,	-27429	,	25.501556	,	44
28,37	,	39115	,	-29047	,	-27427	,	29.634441	,	50
28,38	,	39131	,	-29039	,	-27423	,	31.511112	,	54
28,38	,	39163	,	-29032	,	-27420	,	31.1591	,	54
28,38	,	39179	,	-29024	,	-27411	,	29.086775	,	51
28,38	,	39195	,	-29024	,	-27411	,	26.040167	,	45
28,38	,	39226	,	-29025	,	-27396	,	22.62657	,	37
28,38	,	39242	,	-29020	,	-27406	,	19.20253	,	28
28,38	,	39274	,	-29028	,	-27422	,	15.9616165	,	19
28,38	,	39291	,	-29033	,	-27394	,	12.93653	,	11
28,38	,	39307	,	-29029	,	-27406	,	10.042546	,	5
28,38	,	39339	,	-29029	,	-27400	,	7.278336	,	1
28,38	,	39355	,	-29040	,	-27397	,	4.7244315	,	0
28,38	,	39371	,	-29044	,	-27400	,	2.353898	,	0
28,38	,	39403	,	-29039	,	-27408	,	0.09225893	,	0
28,38	,	39418	,	-29059	,	-27413	,	-2.0681434	,	0
28,38	,	39435	,	-29061	,	-27411	,	-4.205142	,	0
28,38	,	39467	,	-29068	,	-27412	,	-6.449598	,	0
28,38	,	39483	,	-29065	,	-27416	,	-8.763239	,	0
28,38	,	39515	,	-29078	,	-27416	,	-10.951657	,	0
28,38	,	39531	,	-29084	,	-27419	,	-12.8871155	,	0
28,38	,	39547	,	-29084	,	-27423	,	-14.552832	,	0
28,38	,	39579	,	-29064	,	-27407	,	-15.773253	,	0
28,38	,	39594	,	-29036	,	-27398	,	-15.951036	,	0
28,38	,	39611	,	-29012	,	-27377	,	-14.195674	,	0
28,38	,	39643	,	-28992	,	-27374	,	-9.8226	,	1
28,38	,	39659	,	-28974	,	-27358	,	-2.7621222	,	5
28,38	,	39690	,	-28949	,	-27353	,	6.4715295	,	12
28,38	,	39707	,	-28958	,	-27344	,	16.937155	,	21
28,38	,	39722	,	-28958	,	-27349	,	27.249897	,	31
28,38	,	39754	,	-28944	,	-27324	,	35.911186	,	41
28,38	,	39771	,	-28947	,	-27337	,	41.93371	,	49
28,38	,	39787	,	-28946	,	-27331	,	44.943954	,	55
28,38	,	39818	,	-28954	,	-27331	,	44.92353	,	58
28,38	,	39834	,	-28948	,	-27331	,	42.134026	,	57
28,38	,	39852	,	-28945	,	-27318	,	37.18363	,	53
28,38	,	39882	,	-28936	,	-27318	,	30.991669	,	46
28,38	,	39898	,	-28934	,	-27321	,	24.562183	,	37
28,38	,	39930	,	-28931	,	-27317	,	18.709696	,	27
28,38	,	39946	,	-28944	,	-27317	,	13.847967	,	17
28,38	,	39963	,	-28930	,	-27329	,	10.005771	,	9
28,38	,	39994	,	-28933	,	-27292	,	7.1109657	,	3
28,38	,	40010	,	-28932	,	-27321	,	5.1114507	,	0
28,38	,	40026	,	-28945	,	-27319	,	3.811677	,	0
28,38	,	40059	,	-28949	,	-27326	,	2.809568	,	0
28,38	,	40075	,	-28949	,	-27326	,	1.7059712	,	0
28,38	,	40106	,	-28954	,	-27332	,	0.3354888	,	0
28,38	,	40123	,	-28965	,	-27336	,	-1.3080639	,	0
28,39	,	40138	,	-28978	,	-27337	,	-3.2876205	,	0
28,39	,	40170	,	-28987	,	-27335	,	-5.735382	,	0
28,39	,	40186	,	-28979	,	-27338	,	-8.621372	,	0
28,39	,	40202	,	-28980	,	-27347	,	-11.552417	,	0
28,39	,	40234	,	-28984	,	-27329	,	-13.972392	,	0
28,39	,	40250	,	-28917	,	-27311	,	-15.208201	,	0
28,39	,	40266	,	-28885	,	-27302	,	-14.0761595	,	0
28,39	,	40299	,	-28866	,	-27283	,	-9.3287525	,	1
28,39	,	40315	,	-28862	,	-27282	,	-0.8067603	,	5
28,39	,	40346	,	-28850	,	-27268	,	10.322365	,	13
28,39	,	40362	,	-28834	,	-27273	,	22.309292	,	24
28,39	,	40378	,	-28844	,	-27268	,	33.480225	,	35
28,39	,	40410	,	-28809	,	-27254	,	42.54107	,	46
28,39	,	40426	,	-28816	,	-27261	,	48.844734	,	55
28,39	,	40442	,	-28814	,	-27240	,	52.249096	,	61
28,39	,	40474	,	-28832	,	-27261	,	52.670876	,	64
28,39	,	40490	,	-28817	,	-27250	,	50.12031	,	63
28,39	,	40522	,	-28808	,	-27248	,	45.096443	,	59
28,39	,	40538	,	-28813	,	-27245	,	38.578056	,	51
28,39	,	40554	,	-28797	,	-27249	,	31.589132	,	40
28,39	,	40586	,	-28809	,	-27244	,	24.94007	,	29
28,39	,	40602	,	-28800	,	-27244	,	19.1302	,	18
28,39	,	40618	,	-28798	,	-27240	,	14.377515	,	9
28,39	,	40650	,	-28800	,	-27247	,	10.7495985	,	3
28,39	,	40666	,	-28810	,	-27255	,	8.103576	,	0
28,39	,	40682	,	-28796	,	-27224	,	6.1440506	,	0
28,39	,	40714	,	-28811	,	-27254	,	4.649345	,	0
28,39	,	40730	,	-28829	,	-27255	,	3.340085	,	0
28,39	,	40762	,	-28830	,	-27258	,	1.7449749	,	0
28,39	,	40778	,	-28836	,	-27263	,	-0.4596691	,	0
28,39	,	40794	,	-28843	,	-27262	,	-3.2371135	,	0
28,39	,	40826	,	-28845	,	-27275	,	-6.3419943	,	0
28,39	,	40842	,	-28865	,	-27278	,	-9.521118	,	0
28,39	,	40858	,	-28853	,	-27285	,	-12.592529	,	0
28,39	,	40890	,	-28836	,	-27262	,	-15.177513	,	0
28,39	,	40906	,	-28818	,	-27258	,	-16.506643	,	0
28,39	,	40938	,	-28770	,	-27234	,	-15.611597	,	0
28,39	,	40954	,	-28745	,	-27221	,	-11.572012	,	0
28,39	,	40970	,	-28723	,	-27210	,	-3.9567366	,	4
28,39	,	41002	,	-28725	,	-27207	,	6.669817	,	11
28,39	,	41018	,	-28719	,	-27205	,	18.763092	,	21
28,39	,	41034	,	-28699	,	-27202	,	30.461525	,	33
28,39	,	41066	,	-28696	,	-27198	,	40.342457	,	44
28,39	,	41082	,	-28696	,	-27199	,	47.552795	,	53
28,39	,	41114	,	-28692	,	-27206	,	51.604885	,	60
28,40	,	41130	,	-28695	,	-27206	,	52.374992	,	64
28,40	,	41146	,	-28704	,	-27185	,	50.07103	,	64
28,40	,	41178	,	-28673	,	-27200	,	45.256344	,	60
28,40	,	41194	,	-28686	,	-27192	,	38.938747	,	53
28,40	,	41210	,	-28694	,	-27197	,	32.109894	,	43
28,40	,	41242	,	-28687	,	-27193	,	25.305798	,	31
28,40	,	41258	,	-28680	,	-27192	,	18.90707	,	20
28,40	,	41274	,	-28691	,	-27195	,	13.323257	,	11
28,40	,	41306	,	-28695	,	-27195	,	8.716289	,	4
28,40	,	41322	,	-28703	,	-27205	,	4.927433	,	0
28,40	,	41354	,	-28694	,	-27201	,	1.745409	,	0
28,40	,	41370	,	-28710	,	-27221	,	-0.9177604	,	0
28,40	,	41386	,	-28717	,	-27185	,	-3.181672	,	0
28,40	,	41418	,	-28732	,	-27224	,	-5.3312507	,	0
28,40	,	41434	,	-28746	,	-27228	,	-7.7112455	,	0
28,40	,	41450	,	-28753	,	-27229	,	-10.56564	,	0
28,40	,	41482	,	-28753	,	-27240	,	-13.85764	,	0
28,40	,	41498	,	-28751	,	-27238	,	-17.180058	,	0
28,40	,	41530	,	-28720	,	-27219	,	-19.780273	,	0
28,40	,	41546	,	-28699	,	-27212	,	-20.621372	,	0
28,40	,	41562	,	-28676	,	-27201	,	-18.715595	,	0
28,40	,	41594	,	-28653	,	-27184	,	-13.58488	,	1
28,40	,	41610	,	-28626	,	-27193	,	-5.375457	,	6
28,40	,	41626	,	-28620	,	-27170	,	5.225254	,	14
28,40	,	41658	,	-28610	,	-27165	,	17.013996	,	24
28,40	,	41674	,	-28599	,	-27169	,	28.512829	,	35
28,40	,	41690	,	-28592	,	-27165	,	38.420216	,	46
28,40	,	41722	,	-28587	,	-27165	,	45.85065	,	55
28,40	,	41738	,	-28603	,	-27165	,	50.242626	,	62
28,40	,	41770	,	-28586	,	-27157	,	51.30423	,	66
28,40	,	41786	,	-28586	,	-27164	,	49.25316	,	66
28,40	,	41802	,	-28595	,	-27167	,	44.771694	,	61
28,40	,	41834	,	-28586	,	-27180	,	38.616806	,	53
28,40	,	41850	,	-28602	,	-27154	,	31.486923	,	43
28,40	,	41866	,	-28597	,	-27176	,	23.988749	,	32
28,40	,	41898	,	-28599	,	-27184	,	16.6483	,	21
28,40	,	41914	,	-28605	,	-27186	,	9.947327	,	12
28,40	,	41946	,	-28609	,	-27183	,	4.1843367	,	5
28,40	,	41962	,	-28614	,	-27183	,	-0.5654106	,	1
28,40	,	41978	,	-28618	,	-27199	,	-4.345266	,	0
28,40	,	42010	,	-28641	,	-27203	,	-7.3455706	,	0
28,40	,	42026	,	-28635	,	-27208	,	-9.905523	,	0
28,40	,	42042	,	-28664	,	-27216	,	-12.3432455	,	0
28,40	,	42074	,	-28670	,	-27241	,	-14.928205	,	0
28,40	,	42089	,	-28673	,	-27198	,	-17.80883	,	0
28,40	,	42105	,	-28694	,	-27254	,	-20.869293	,	0
28,41	,	42137	,	-28688	,	-27223	,	-23.862947	,	0
28,41	,	42153	,	-28654	,	-27212	,	-26.275463	,	0
28,41	,	42186	,	-28633	,	-27197	,	-27.049526	,	0
28,41	,	42202	,	-28609	,	-27197	,	-25.02053	,	0
28,41	,	42217	,	-28590	,	-27186	,	-19.599405	,	2
28,41	,	42249	,	-28587	,	-27183	,	-11.055752	,	7
28,41	,	42266	,	-28574	,	-27179	,	-0.4503641	,	15
28,41	,	42282	,	-28559	,	-27181	,	10.812256	,	25
28,41	,	42314	,	-28566	,	-27184	,	21.426767	,	36
28,41	,	42330	,	-28560	,	-27172	,	30.252218	,	46
28,41	,	42362	,	-28560	,	-27178	,	36.421818	,	54
28,41	,	42378	,	-28579	,	-27181	,	39.452988	,	60
28,41	,	42394	,	-28569	,	-27176	,	39.193897	,	63
28,41	,	42425	,	-28575	,	-27192	,	35.956497	,	61
28,41	,	42441	,	-28578	,	-27190	,	30.50758	,	56
28,41	,	42457	,	-28582	,	-27199	,	23.731112	,	48
28,41	,	42489	,	-28585	,	-27195	,	16.43269	,	38
28,41	,	42505	,	-28592	,	-27195	,	9.284469	,	27
28,41	,	42522	,	-28597	,	-27210	,	2.7598867	,	17
28,41	,	42554	,	-28614	,	-27195	,	-2.922491	,	9
28,41	,	42570	,	-28617	,	-27211	,	-7.791545	,	3
28,41	,	42601	,	-28642	,	-27227	,	-12.032736	,	0
28,41	,	42617	,	-28639	,	-27229	,	-15.875491	,	0
28,41	,	42633	,	-28653	,	-27239	,	-19.415024	,	0
28,41	,	42666	,	-28653	,	-27251	,	-22.535358	,	0
28,41	,	42681	,	-28673	,	-27253	,	-25.086649	,	0
28,41	,	42697	,	-28695	,	-27258	,	-27.14312	,	0
28,41	,	42729	,	-28689	,	-27262	,	-28.954546	,	0
28,41	,	42745	,	-28705	,	-27265	,	-30.585323	,	0
28,41	,	42778	,	-28704	,	-27289	,	-31.864594	,	0
28,41	,	42794	,	-28692	,	-27245	,	-32.496967	,	0
28,41	,	42810	,	-28655	,	-27257	,	-31.868458	,	0
28,41	,	42843	,	-28637	,	-27244	,	-29.05063	,	0
28,41	,	42857	,	-28639	,	-27242	,	-23.442791	,	2
28,41	,	42873	,	-28631	,	-27237	,	-15.387694	,	7
28,41	,	42906	,	-28616	,	-27238	,	-5.9259405	,	15
28,41	,	42922	,	-28626	,	-27226	,	3.7647305	,	24
28,41	,	42953	,	-28628	,	-27235	,	12.494283	,	33
28,41	,	42969	,	-28622	,	-27230	,	19.223093	,	41
28,41	,	42985	,	-28622	,	-27242	,	23.425346	,	47
28,41	,	43017	,	-28635	,	-27257	,	25.054403	,	51
28,41	,	43033	,	-28631	,	-27228	,	24.280804	,	52
28,41	,	43049	,	-28629	,	-27253	,	21.52277	,	50
28,41	,	43081	,	-28637	,	-27247	,	17.447357	,	45
28,41	,	43097	,	-28638	,	-27245	,	12.707005	,	37
28,41	,	43113	,	-28662	,	-27256	,	7.7111034	,	28
28,42	,	43145	,	-28636	,	-27257	,	2.71177	,	19
28,42	,	43162	,	-28666	,	-27256	,	-1.9547381	,	11
28,42	,	43193	,	-28667	,	-27260	,	-6.042699	,	5
28,42	,	43209	,	-28664	,	-27278	,	-9.527552	,	1
28,42	,	43225	,	-28683	,	-27277	,	-12.385151	,	0
28,42	,	43257	,	-28680	,	-27265	,	-14.636631	,	0
28,42	,	43273	,	-28689	,	-27287	,	-16.367855	,	0
28,42	,	43289	,	-28732	,	-27297	,	-17.801294	,	0
28,42	,	43321	,	-28740	,	-27306	,	-19.530622	,	0
28,42	,	43337	,	-28753	,	-27307	,	-22.129623	,	0
28,42	,	43369	,	-28772	,	-27316	,	-25.670128	,	0
28,42	,	43385	,	-28779	,	-27331	,	-29.857174	,	0
28,42	,	43401	,	-28799	,	-27331	,	-34.262917	,	0
28,42	,	43433	,	-28792	,	-27330	,	-38.384266	,	0
28,42	,	43449	,	-28760	,	-27330	,	-41.435356	,	0
28,42	,	43465	,	-28758	,	-27342	,	-42.281693	,	0
28,42	,	43497	,	-28740	,	-27280	,	-40.036118	,	0
28,42	,	43513	,	-28727	,	-27304	,	-34.523777	,	2
28,42	,	43529	,	-28744	,	-27297	,	-26.30933	,	7
28,42	,	43561	,	-28719	,	-27300	,	-16.569372	,	15
28,42	,	43577	,	-28745	,	-27308	,	-6.6677227	,	24
28,42	,	43609	,	-28739	,	-27310	,	2.117344	,	33
28,42	,	43625	,	-28745	,	-27311	,	8.7596855	,	41
28,42	,	43641	,	-28749	,	-27326	,	12.763469	,	47
28,42	,	43673	,	-28745	,	-27321	,	14.167822	,	51
28,42	,	43689	,	-28744	,	-27319	,	13.429819	,	52
28,42	,	43705	,	-28752	,	-27339	,	11.229708	,	50
28,42	,	43737	,	-28754	,	-27313	,	8.17612	,	45
28,42	,	43753	,	-28773	,	-27327	,	4.6470146	,	37
28,42	,	43785	,	-28763	,	-27323	,	0.84888315	,	28
28,42	,	43801	,	-28776	,	-27334	,	-2.967268	,	19
28,42	,	43817	,	-28792	,	-27332	,	-6.569931	,	11
28,42	,	43849	,	-28803	,	-27336	,	-9.990061	,	5
28,42	,	43865	,	-28803	,	-27334	,	-13.34058	,	1
28,42	,	43881	,	-28812	,	-27353	,	-16.526693	,	0
28,42	,	43913	,	-28816	,	-27355	,	-19.317162	,	0
28,42	,	43929	,	-28833	,	-27355	,	-21.56425	,	0
28,42	,	43945	,	-28836	,	-27361	,	-23.297007	,	0
28,42	,	43977	,	-28855	,	-27368	,	-24.660969	,	0
28,42	,	43993	,	-28889	,	-27380	,	-25.97362	,	0
28,42	,	44025	,	-28885	,	-27389	,	-27.694801	,	0
28,42	,	44041	,	-28895	,	-27402	,	-29.963139	,	0
28,42	,	44057	,	-28896	,	-27405	,	-32.392242	,	0
28,42	,	44089	,	-28915	,	-27404	,	-34.4698	,	0
28,42	,	44105	,	-28924	,	-27406	,	-35.940197	,	0
28,42	,	44121	,	-28906	,	-27403	,	-36.678764	,	0
28,43	,	44153	,	-28886	,	-27381	,	-36.23963	,	0
28,43	,	44169	,	-28877	,	-27400	,	-33.8991	,	0
28,43	,	44201	,	-28878	,	-27362	,	-29.286747	,	2
28,43	,	44217	,	-28875	,	-27394	,	-22.760647	,	6
28,43	,	44233	,	-28871	,	-27393	,	-15.171737	,	12
28,43	,	44265	,	-28873	,	-27374	,	-7.4608107	,	19
28,43	,	44281	,	-28875	,	-27378	,	-0.47894287	,	26
28,43	,	44297	,	-28879	,	-27386	,	5.0839744	,	32
28,43	,	44329	,	-28875	,	-27373	,	8.825168	,	37
28,43	,	44345	,	-28887	,	-27384	,	10.665327	,	40
28,43	,	44361	,	-28894	,	-27376	,	10.687151	,	41
28,43	,	44393	,	-28882	,	-27384	,	9.123404	,	39
28,43	,	44409	,	-28890	,	-27402	,	6.503831	,	35
28,43	,	44441	,	-28907	,	-27378	,	3.3895178	,	29
28,43	,	44457	,	-28904	,	-27398	,	0.04181528	,	22
28,43	,	44473	,	-28921	,	-27403	,	-3.4342163	,	15
28,43	,	44505	,	-28912	,	-27403	,	-6.881763	,	9
28,43	,	44521	,	-28922	,	-27401	,	-10.039515	,	4
28,43	,	44537	,	-28930	,	-27407	,	-12.665425	,	1
28,43	,	44569	,	-28941	,	-27410	,	-14.741899	,	0
28,43	,	44585	,	-28955	,	-27419	,	-16.467197	,	0
28,43	,	44617	,	-28966	,	-27428	,	-18.122686	,	0
28,43	,	44632	,	-28977	,	-27431	,	-19.933	,	0
28,43	,	44649	,	-28994	,	-27427	,	-22.002445	,	0
28,43	,	44681	,	-28983	,	-27431	,	-24.263329	,	0
28,43	,	44697	,	-29011	,	-27447	,	-26.449944	,	0
28,43	,	44713	,	-29026	,	-27451	,	-28.41615	,	0
28,43	,	44745	,	-29022	,	-27456	,	-30.238312	,	0
28,43	,	44761	,	-29047	,	-27461	,	-31.900707	,	0
28,43	,	44793	,	-29040	,	-27445	,	-33.27999	,	0
28,43	,	44809	,	-29033	,	-27444	,	-34.12531	,	0
28,43	,	44825	,	-29010	,	-27428	,	-33.858677	,	0
28,43	,	44857	,	-28988	,	-27423	,	-31.68463	,	0
28,43	,	44873	,	-28995	,	-27447	,	-27.070784	,	2
28,43	,	44889	,	-28985	,	-27418	,	-20.238804	,	6
28,43	,	44920	,	-28967	,	-27428	,	-11.984218	,	12
28,43	,	44937	,	-28974	,	-27429	,	-3.1696987	,	20
28,43	,	44953	,	-28971	,	-27420	,	5.307809	,	28
28,43	,	44985	,	-28978	,	-27428	,	12.49995	,	36
28,43	,	45001	,	-28984	,	-27427	,	17.624632	,	43
28,43	,	45032	,	-28986	,	-27434	,	20.235916	,	48
28,43	,	45048	,	-28975	,	-27437	,	20.378555	,	50
28,43	,	45064	,	-28982	,	-27426	,	18.588741	,	48
28,43	,	45097	,	-28985	,	-27430	,	15.557515	,	44
28,43	,	45113	,	-28976	,	-27441	,	11.890873	,	38
28,44	,	45129	,	-28983	,	-27421	,	8.149739	,	30
28,44	,	45161	,	-28990	,	-27418	,	4.7377806	,	22
28,44	,	45177	,	-28980	,	-27422	,	1.8149729	,	14
28,44	,	45208	,	-28998	,	-27425	,	-0.57414436	,	7
28,44	,	45224	,	-29002	,	-27435	,	-2.5381975	,	2
28,44	,	45241	,	-29007	,	-27428	,	-4.325119	,	0
28,44	,	45273	,	-29015	,	-27436	,	-6.1158314	,	0
28,44	,	45289	,	-29035	,	-27443	,	-8.050731	,	0
28,44	,	45305	,	-29032	,	-27447	,	-10.295856	,	0
28,44	,	45337	,	-29040	,	-27459	,	-12.840346	,	0
28,44	,	45352	,	-29042	,	-27436	,	-15.419176	,	0
28,44	,	45368	,	-29044	,	-27457	,	-17.684355	,	0
28,44	,	45400	,	-29080	,	-27459	,	-19.487358	,	0
28,44	,	45417	,	-29085	,	-27481	,	-21.111404	,	0
28,44	,	45449	,	-29088	,	-27465	,	-22.935759	,	0
28,44	,	45465	,	-29067	,	-27463	,	-24.813412	,	0
28,44	,	45481	,	-29064	,	-27454	,	-26.012661	,	0
28,44	,	45512	,	-29042	,	-27439	,	-25.670725	,	0
28,44	,	45528	,	-29025	,	-27439	,	-23.143879	,	0
28,44	,	45545	,	-29020	,	-27429	,	-18.191505	,	2
28,44	,	45576	,	-28994	,	-27429	,	-11.081797	,	6
28,44	,	45592	,	-29001	,	-27407	,	-2.4804697	,	13
28,44	,	45625	,	-28978	,	-27419	,	6.7053804	,	21
28,44	,	45641	,	-28969	,	-27407	,	15.5827675	,	30
28,44	,	45656	,	-28975	,	-27408	,	23.440948	,	38
28,44	,	45688	,	-28984	,	-27421	,	29.546133	,	45
28,44	,	45704	,	-28974	,	-27409	,	33.204983	,	51
28,44	,	45720	,	-28985	,	-27406	,	34.145702	,	54
28,44	,	45752	,	-28975	,	-27405	,	32.58046	,	52
28,44	,	45768	,	-28984	,	-27406	,	29.038572	,	48
28,44	,	45801	,	-28973	,	-27399	,	24.230003	,	41
28,44	,	45816	,	-28975	,	-27417	,	18.93171	,	33
28,44	,	45832	,	-28977	,	-27402	,	13.820519	,	24
28,44	,	45864	,	-28969	,	-27402	,	9.345903	,	16
28,44	,	45880	,	-28989	,	-27401	,	5.7060766	,	9
28,44	,	45912	,	-28983	,	-27407	,	2.815147	,	3
28,44	,	45928	,	-28988	,	-27400	,	0.46489573	,	0
28,44	,	45944	,	-28992	,	-27405	,	-1.474906	,	0
28,44	,	45976	,	-28996	,	-27418	,	-3.1080954	,	0
28,44	,	45993	,	-28999	,	-27413	,	-4.5385895	,	0
28,44	,	46008	,	-29007	,	-27410	,	-5.8451195	,	0
28,44	,	46040	,	-29033	,	-27423	,	-7.2143445	,	0
28,44	,	46056	,	-29034	,	-27408	,	-8.994149	,	0
28,44	,	46072	,	-29026	,	-27424	,	-11.3103285	,	0
28,44	,	46104	,	-29059	,	-27429	,	-13.910124	,	0
28,44	,	46120	,	-29063	,	-27422	,	-16.639067	,	0
28,45	,	46152	,	-29050	,	-27425	,	-19.42525	,	0
28,45	,	46168	,	-29046	,	-27402	,	-21.785904	,	0
28,45	,	46184	,	-29014	,	-27408	,	-22.860931	,	0
28,45	,	46216	,	-28976	,	-27390	,	-21.631062	,	0
28,45	,	46232	,	-28960	,	-27384	,	-17.18475	,	1
28,45	,	46248	,	-28947	,	-27386	,	-9.323179	,	5
28,45	,	46280	,	-28937	,	-27361	,	1.1571836	,	12
28,45	,	46296	,	-28930	,	-27365	,	12.826992	,	22
28,45	,	46328	,	-28910	,	-27360	,	24.192392	,	33
28,45	,	46344	,	-28903	,	-27354	,	34.12388	,	44
28,45	,	46360	,	-28921	,	-27356	,	41.7959	,	53
28,45	,	46392	,	-28919	,	-27350	,	46.427666	,	60
28,45	,	46408	,	-28918	,	-27341	,	47.534084	,	64
28,45	,	46424	,	-28915	,	-27343	,	45.299103	,	64
28,45	,	46456	,	-28902	,	-27349	,	40.524815	,	60
28,45	,	46472	,	-28900	,	-27355	,	34.35915	,	53
28,45	,	46488	,	-28890	,	-27327	,	27.953613	,	43
28,45	,	46520	,	-28894	,	-27332	,	22.162682	,	32
28,45	,	46536	,	-28906	,	-27344	,	17.342714	,	21
28,45	,	46568	,	-28895	,	-27345	,	13.402384	,	12
28,45	,	46584	,	-28898	,	-27341	,	10.175243	,	5
28,45	,	46600	,	-28915	,	-27343	,	7.5144596	,	1
28,45	,	46632	,	-28915	,	-27350	,	5.112524	,	0
28,45	,	46648	,	-28924	,	-27347	,	2.64566	,	0
28,45	,	46664	,	-28918	,	-27357	,	0.02458334	,	0
28,45	,	46696	,	-28930	,	-27353	,	-2.6176271	,	0
28,45	,	46712	,	-28935	,	-27367	,	-5.133738	,	0
28,45	,	46744	,	-28951	,	-27341	,	-7.5392103	,	0
28,45	,	46760	,	-28980	,	-27364	,	-10.090213	,	0
28,45	,	46776	,	-28973	,	-27372	,	-13.140347	,	0
28,45	,	46808	,	-28955	,	-27362	,	-16.563055	,	0
28,45	,	46825	,	-28946	,	-27368	,	-19.47787	,	0
28,45	,	46840	,	-28919	,	-27347	,	-20.746231	,	0
28,45	,	46872	,	-28888	,	-27331	,	-19.395437	,	0
28,45	,	46888	,	-28865	,	-27316	,	-14.768281	,	1
28,45	,	46904	,	-28864	,	-27313	,	-6.88922	,	5
28,45	,	46936	,	-28832	,	-27302	,	3.3843918	,	12
28,45	,	46952	,	-28824	,	-27311	,	14.83376	,	22
28,45	,	46984	,	-28821	,	-27277	,	26.216373	,	33
28,45	,	47000	,	-28804	,	-27277	,	36.316154	,	44
28,45	,	47016	,	-28806	,	-27290	,	44.18609	,	54
28,45	,	47048	,	-28814	,	-27296	,	49.20324	,	61
28,45	,	47064	,	-28815	,	-27297	,	50.941715	,	66
28,45	,	47080	,	-28807	,	-27279	,	49.36902	,	66
28,45	,	47112	,	-28806	,	-27272	,	45.04467	,	62
28,46	,	47128	,	-28810	,	-27277	,	38.87617	,	55
28,46	,	47160	,	-28795	,	-27282	,	31.808226	,	45
28,46	,	47176	,	-28803	,	-27271	,	24.737204	,	34
28,46	,	47192	,	-28794	,	-27277	,	18.366425	,	23
28,46	,	47224	,	-28812	,	-27270	,	13.026557	,	13
28,46	,	47240	,	-28804	,	-27279	,	8.689299	,	6
28,46	,	47256	,	-28794	,	-27279	,	5.259343	,	1
28,46	,	47288	,	-28814	,	-27284	,	2.729001	,	0
28,46	,	47304	,	-28812	,	-27293	,	0.9196129	,	0
28,46	,	47320	,	-28826	,	-27288	,	-0.5568459	,	0
28,46	,	47352	,	-28833	,	-27298	,	-2.0869756	,	0
28,46	,	47368	,	-28843	,	-27296	,	-3.9746044	,	0
28,46	,	47399	,	-28852	,	-27306	,	-6.3740644	,	0
28,46	,	47416	,	-28855	,	-27323	,	-9.236116	,	0
28,46	,	47432	,	-28864	,	-27291	,	-12.331485	,	0
28,46	,	47464	,	-28875	,	-27310	,	-15.388531	,	0
28,46	,	47480	,	-28852	,	-27295	,	-18.093386	,	0
28,46	,	47496	,	-28798	,	-27280	,	-19.643143	,	0
28,46	,	47527	,	-28776	,	-27274	,	-18.619358	,	0
28,46	,	47544	,	-28763	,	-27260	,	-13.911034	,	1
28,46	,	47576	,	-28744	,	-27249	,	-5.5767584	,	5
28,46	,	47592	,	-28727	,	-27241	,	5.3622313	,	13
28,46	,	47608	,	-28709	,	-27233	,	17.537735	,	23
28,46	,	47640	,	-28707	,	-27232	,	29.556335	,	35
28,46	,	47656	,	-28685	,	-27256	,	40.165764	,	47
28,46	,	47671	,	-28703	,	-27204	,	48.386158	,	57
28,46	,	47704	,	-28713	,	-27233	,	53.379974	,	65
28,46	,	47719	,	-28706	,	-27228	,	54.51325	,	69
28,46	,	47736	,	-28697	,	-27232	,	51.87861	,	69
28,46	,	47768	,	-28692	,	-27224	,	46.407623	,	65
28,46	,	47783	,	-28692	,	-27217	,	39.35576	,	57
28,46	,	47817	,	-28701	,	-27223	,	31.777802	,	47
28,46	,	47831	,	-28685	,	-27225	,	24.39847	,	35
28,46	,	47848	,	-28701	,	-27230	,	17.743767	,	23
28,46	,	47880	,	-28697	,	-27223	,	12.091517	,	13
28,46	,	47896	,	-28702	,	-27231	,	7.4490757	,	5
28,46	,	47911	,	-28696	,	-27237	,	3.7614288	,	1
28,46	,	47943	,	-28708	,	-27242	,	0.9658923	,	0
28,46	,	47959	,	-28708	,	-27249	,	-1.1120172	,	0
28,46	,	47991	,	-28726	,	-27246	,	-2.7762654	,	0
28,46	,	48008	,	-28744	,	-27247	,	-4.4673	,	0
28,46	,	48023	,	-28751	,	-27249	,	-6.6747966	,	0
28,46	,	48056	,	-28762	,	-27261	,	-9.6471195	,	0
28,46	,	48072	,	-28772	,	-27272	,	-13.278807	,	0
28,46	,	48088	,	-28791	,	-27266	,	-17.316248	,	0
28,46	,	48119	,	-28777	,	-27272	,	-21.427639	,	0
28,47	,	48135	,	-28782	,	-27239	,	-25.044939	,	0
28,47	,	48167	,	-28707	,	-27252	,	-27.150707	,	0
28,47	,	48183	,	-28681	,	-27228	,	-26.187038	,	0
28,47	,	48199	,	-28668	,	-27217	,	-20.836998	,	0
28,47	,	48232	,	-28650	,	-27201	,	-11.122289	,	5
28,47	,	48248	,	-28631	,	-27208	,	1.7009516	,	14
28,47	,	48263	,	-28629	,	-27199	,	15.877034	,	26
28,47	,	48295	,	-28613	,	-27198	,	29.577293	,	40
28,47	,	48311	,	-28621	,	-27201	,	41.195198	,	53
28,47	,	48327	,	-28619	,	-27192	,	49.51577	,	64
28,47	,	48359	,	-28623	,	-27209	,	53.80923	,	72
28,47	,	48375	,	-28615	,	-27177	,	53.985954	,	76
28,47	,	48407	,	-28609	,	-27195	,	50.648396	,	76
28,47	,	48424	,	-28605	,	-27203	,	44.88608	,	71
28,47	,	48440	,	-28607	,	-27202	,	37.86985	,	62
28,47	,	48471	,	-28611	,	-27197	,	30.506975	,	50
28,47	,	48487	,	-28610	,	-27204	,	23.373898	,	36
28,47	,	48503	,	-28609	,	-27203	,	16.850807	,	23
28,47	,	48535	,	-28623	,	-27211	,	11.157705	,	12
28,47	,	48551	,	-28616	,	-27208	,	6.316989	,	4
28,47	,	48583	,	-28632	,	-27213	,	2.249796	,	0
28,47	,	48599	,	-28636	,	-27217	,	-1.1947408	,	0
28,47	,	48615	,	-28637	,	-27218	,	-4.201581	,	0
28,47	,	48647	,	-28671	,	-27238	,	-6.9712543	,	0
28,47	,	48663	,	-28676	,	-27233	,	-9.873259	,	0
28,47	,	48679	,	-28691	,	-27244	,	-13.270708	,	0
28,47	,	48711	,	-28699	,	-27248	,	-17.197166	,	0
28,47	,	48727	,	-28722	,	-27257	,	-21.457317	,	0
28,47	,	48743	,	-28720	,	-27254	,	-25.799276	,	0
28,47	,	48775	,	-28723	,	-27258	,	-29.820148	,	0
28,47	,	48791	,	-28686	,	-27242	,	-32.768127	,	0
28,47	,	48823	,	-28655	,	-27232	,	-33.46065	,	0
28,47	,	48839	,	-28625	,	-27194	,	-30.626945	,	0
28,47	,	48855	,	-28590	,	-27208	,	-23.526413	,	2
28,47	,	48887	,	-28595	,	-27192	,	-12.3934355	,	9
28,47	,	48903	,	-28578	,	-27189	,	1.432126	,	20
28,47	,	48919	,	-28563	,	-27194	,	16.017237	,	33
28,47	,	48951	,	-28569	,	-27188	,	29.554152	,	47
28,47	,	48967	,	-28573	,	-27187	,	40.503384	,	60
28,47	,	48999	,	-28577	,	-27189	,	47.650517	,	70
28,47	,	49015	,	-28575	,	-27189	,	50.42019	,	77
28,47	,	49031	,	-28575	,	-27184	,	49.025833	,	79
28,47	,	49063	,	-28573	,	-27211	,	44.298935	,	77
28,47	,	49079	,	-28569	,	-27171	,	37.390034	,	70
28,47	,	49095	,	-28576	,	-27201	,	29.474262	,	59
28,48	,	49127	,	-28571	,	-27190	,	21.522375	,	46
28,48	,	49143	,	-28590	,	-27204	,	14.168354	,	32
28,48	,	49159	,	-28584	,	-27205	,	7.6807117	,	19
28,48	,	49191	,	-28586	,	-27210	,	2.1709013	,	9
28,48	,	49207	,	-28582	,	-27216	,	-2.1904173	,	2
28,48	,	49239	,	-28603	,	-27210	,	-5.341052	,	0
28,48	,	49255	,	-28608	,	-27218	,	-7.569518	,	0
28,48	,	49271	,	-28617	,	-27229	,	-9.354521	,	0
28,48	,	49303	,	-28638	,	-27243	,	-11.11462	,	0
28,48	,	49319	,	-28656	,	-27241	,	-13.250532	,	0
28,48	,	49335	,	-28680	,	-27265	,	-16.168524	,	0
28,48	,	49367	,	-28697	,	-27251	,	-20.136435	,	0
28,48	,	49383	,	-28700	,	-27260	,	-25.077719	,	0
28,48	,	49415	,	-28697	,	-27265	,	-30.38826	,	0
28,48	,	49431	,	-28665	,	-27245	,	-34.919704	,	0
28,48	,	49447	,	-28647	,	-27242	,	-37.195877	,	0
28,48	,	49479	,	-28610	,	-27236	,	-35.876293	,	0
28,48	,	49495	,	-28593	,	-27226	,	-30.229202	,	1
28,48	,	49511	,	-28576	,	-27235	,	-20.424429	,	6
28,48	,	49543	,	-28566	,	-27210	,	-7.557705	,	15
28,48	,	49559	,	-28565	,	-27224	,	6.6498394	,	27
28,48	,	49575	,	-28561	,	-27219	,	20.276796	,	41
28,48	,	49607	,	-28568	,	-27214	,	31.604267	,	54
28,48	,	49623	,	-28578	,	-27216	,	39.367012	,	65
28,48	,	49655	,	-28566	,	-27215	,	42.9387	,	72
28,48	,	49671	,	-28572	,	-27214	,	42.50173	,	75
28,48	,	49687	,	-28561	,	-27214	,	38.894676	,	74
28,48	,	49719	,	-28576	,	-27218	,	33.199257	,	69
28,48	,	49735	,	-28566	,	-27218	,	26.410002	,	60
28,48	,	49751	,	-28576	,	-27239	,	19.342842	,	48
28,48	,	49783	,	-28579	,	-27206	,	12.607313	,	34
28,48	,	49799	,	-28586	,	-27229	,	6.5422525	,	21
28,48	,	49831	,	-28592	,	-27232	,	1.2677917	,	10
28,48	,	49847	,	-28602	,	-27247	,	-3.235549	,	3
28,48	,	49863	,	-28607	,	-27240	,	-7.0783205	,	0
28,48	,	49895	,	-28627	,	-27258	,	-10.433602	,	0
28,48	,	49911	,	-28636	,	-27265	,	-13.552694	,	0
28,48	,	49927	,	-28654	,	-27260	,	-16.696815	,	0
28,48	,	49959	,	-28662	,	-27262	,	-20.01241	,	0
28,48	,	49975	,	-28665	,	-27274	,	-23.425161	,	0
28,48	,	49991	,	-28681	,	-27286	,	-26.653477	,	0
28,48	,	50023	,	-28705	,	-27272	,	-29.509743	,	0
28,48	,	50039	,	-28692	,	-27289	,	-31.99211	,	0
28,48	,	50071	,	-28681	,	-27280	,	-33.819756	,	0
28,48	,	50087	,	-28652	,	-27270	,	-34.1799	,	0
28,48	,	50103	,	-28643	,	-27259	,	-32.131386	,	0
28,49	,	50135	,	-28638	,	-27257	,	-27.244339	,	2
28,49	,	50151	,	-28626	,	-27257	,	-19.884867	,	6
28,49	,	50167	,	-28620	,	-27254	,	-10.940107	,	13
28,49	,	50198	,	-28613	,	-27256	,	-1.4416771	,	21
28,49	,	50214	,	-28610	,	-27262	,	7.618903	,	30
28,49	,	50247	,	-28599	,	-27253	,	15.440502	,	39
28,49	,	50263	,	-28606	,	-27256	,	21.497194	,	46
28,49	,	50279	,	-28612	,	-27259	,	25.420368	,	52
28,49	,	50310	,	-28621	,	-27262	,	26.915182	,	55
28,49	,	50326	,	-28613	,	-27261	,	25.952452	,	54
28,49	,	50342	,	-28627	,	-27266	,	22.901844	,	50
28,49	,	50375	,	-28630	,	-27268	,	18.323532	,	43
28,49	,	50391	,	-28631	,	-27267	,	12.796013	,	35
28,49	,	50407	,	-28638	,	-27277	,	6.927788	,	26
28,49	,	50439	,	-28640	,	-27284	,	1.2740088	,	17
28,49	,	50455	,	-28658	,	-27295	,	-3.8153472	,	10
28,49	,	50486	,	-28661	,	-27273	,	-8.256298	,	4
28,49	,	50502	,	-28676	,	-27299	,	-12.129401	,	1
28,49	,	50519	,	-28687	,	-27301	,	-15.56153	,	0
28,49	,	50551	,	-28703	,	-27307	,	-18.71854	,	0
28,49	,	50567	,	-28727	,	-27318	,	-21.832409	,	0
28,49	,	50583	,	-28721	,	-27318	,	-25.081718	,	0
28,49	,	50614	,	-28724	,	-27328	,	-28.27832	,	0
28,49	,	50630	,	-28741	,	-27323	,	-30.941635	,	0
28,49	,	50662	,	-28762	,	-27336	,	-32.8507	,	0
28,49	,	50678	,	-28760	,	-27337	,	-34.16491	,	0
28,49	,	50694	,	-28737	,	-27351	,	-34.85816	,	0
28,49	,	50727	,	-28729	,	-27322	,	-34.365177	,	0
28,49	,	50742	,	-28702	,	-27317	,	-31.923141	,	0
28,49	,	50759	,	-28695	,	-27313	,	-27.041128	,	2
28,49	,	50791	,	-28688	,	-27306	,	-19.79015	,	6
28,49	,	50808	,	-28682	,	-27303	,	-10.876587	,	13
28,49	,	50822	,	-28696	,	-27310	,	-1.4562492	,	21
28,49	,	50854	,	-28692	,	-27297	,	7.137103	,	30
28,49	,	50870	,	-28692	,	-27298	,	13.805645	,	38
28,49	,	50902	,	-28697	,	-27316	,	18.003914	,	44
28,49	,	50918	,	-28685	,	-27320	,	19.724379	,	48
28,49	,	50935	,	-28686	,	-27308	,	19.40163	,	49
28,49	,	50966	,	-28702	,	-27311	,	17.61414	,	47
28,49	,	50982	,	-28701	,	-27313	,	14.74118	,	43
28,49	,	50998	,	-28709	,	-27310	,	11.045537	,	36
28,49	,	51030	,	-28702	,	-27313	,	6.891055	,	28
28,49	,	51046	,	-28715	,	-27327	,	2.712277	,	19
28,49	,	51078	,	-28722	,	-27325	,	-1.19593	,	11
28,49	,	51094	,	-28736	,	-27321	,	-4.800624	,	5
28,49	,	51110	,	-28736	,	-27321	,	-8.185392	,	1
28,50	,	51142	,	-28744	,	-27326	,	-11.338687	,	0
28,50	,	51158	,	-28763	,	-27351	,	-14.206287	,	0
28,50	,	51174	,	-28774	,	-27333	,	-16.891018	,	0
28,50	,	51206	,	-28780	,	-27356	,	-19.562563	,	0
28,50	,	51222	,	-28795	,	-27365	,	-22.249538	,	0
28,50	,	51254	,	-28811	,	-27374	,	-24.917862	,	0
28,50	,	51270	,	-28824	,	-27370	,	-27.591637	,	0
28,50	,	51286	,	-28840	,	-27374	,	-30.299068	,	0
28,50	,	51318	,	-28842	,	-27387	,	-32.968018	,	0
28,50	,	51334	,	-28862	,	-27390	,	-35.403816	,	0
28,50	,	51350	,	-28840	,	-27376	,	-37.287354	,	0
28,50	,	51382	,	-28820	,	-27375	,	-37.976433	,	0
28,50	,	51398	,	-28820	,	-27391	,	-36.616264	,	0
28,50	,	51414	,	-28804	,	-27343	,	-32.754013	,	1
28,50	,	51446	,	-28788	,	-27370	,	-26.507257	,	4
28,50	,	51462	,	-28783	,	-27364	,	-18.317228	,	10
28,50	,	51494	,	-28801	,	-27361	,	-9.042852	,	18
28,50	,	51510	,	-28791	,	-27363	,	0.013708115	,	27
28,50	,	51526	,	-28795	,	-27359	,	7.6370516	,	36
28,50	,	51558	,	-28797	,	-27356	,	13.115986	,	43
28,50	,	51574	,	-28805	,	-27365	,	16.162281	,	48
28,50	,	51590	,	-28815	,	-27358	,	16.74856	,	51
28,50	,	51622	,	-28806	,	-27369	,	15.121317	,	50
28,50	,	51638	,	-28822	,	-27362	,	11.8321	,	47
28,50	,	51670	,	-28821	,	-27365	,	7.525478	,	41
28,50	,	51686	,	-28818	,	-27370	,	2.8080893	,	33
28,50	,	51702	,	-28824	,	-27374	,	-1.6975956	,	24
28,50	,	51734	,	-28830	,	-27375	,	-5.524006	,	15
28,50	,	51750	,	-28831	,	-27374	,	-8.495581	,	8
28,50	,	51766	,	-28840	,	-27377	,	-10.624026	,	3
28,50	,	51798	,	-28852	,	-27383	,	-12.081575	,	0
28,50	,	51814	,	-28865	,	-27385	,	-13.2289915	,	0
28,50	,	51830	,	-28863	,	-27391	,	-14.423704	,	0
28,50	,	51862	,	-28886	,	-27409	,	-15.827679	,	0
28,50	,	51878	,	-28890	,	-27383	,	-17.511501	,	0
28,50	,	51910	,	-28918	,	-27401	,	-19.589512	,	0
28,50	,	51926	,	-28919	,	-27417	,	-22.16556	,	0
28,50	,	51942	,	-28940	,	-27418	,	-25.196146	,	0
28,50	,	51974	,	-28930	,	-27421	,	-28.396925	,	0
28,50	,	51990	,	-28938	,	-27427	,	-31.238941	,	0
28,50	,	52006	,	-28967	,	-27434	,	-33.27494	,	0
28,50	,	52038	,	-28973	,	-27442	,	-34.552948	,	0
28,50	,	52054	,	-28954	,	-27431	,	-35.24927	,	0
28,50	,	52086	,	-28939	,	-27429	,	-35.010246	,	0
28,50	,	52102	,	-28935	,	-27442	,	-33.146873	,	0
28,50	,	52118	,	-28927	,	-27397	,	-29.28892	,	1
28,51	,	52150	,	-28894	,	-27407	,	-23.47202	,	4
28,51	,	52166	,	-28896	,	-27416	,	-15.882213	,	9
28,51	,	52182	,	-28890	,	-27402	,	-7.0142117	,	16
28,51	,	52214	,	-28898	,	-27408	,	2.1474934	,	24
28,51	,	52230	,	-28904	,	-27396	,	10.368196	,	33
28,51	,	52246	,	-28892	,	-27410	,	16.612564	,	41
28,51	,	52278	,	-28906	,	-27405	,	20.3848	,	47
28,51	,	52294	,	-28910	,	-27400	,	21.616257	,	50
28,51	,	52326	,	-28892	,	-27411	,	20.558136	,	50
28,51	,	52342	,	-28886	,	-27402	,	17.951967	,	47
28,51	,	52358	,	-28895	,	-27405	,	14.7513	,	42
28,51	,	52390	,	-28893	,	-27401	,	11.574939	,	35
28,51	,	52406	,	-28900	,	-27412	,	8.647692	,	27
28,51	,	52422	,	-28899	,	-27404	,	6.0168805	,	18
28,51	,	52454	,	-28905	,	-27413	,	3.6653209	,	10
28,51	,	52470	,	-28916	,	-27416	,	1.5043039	,	4
28,51	,	52502	,	-28923	,	-27413	,	-0.66013026	,	1
28,51	,	52518	,	-28921	,	-27416	,	-2.978849	,	0
28,51	,	52534	,	-28938	,	-27417	,	-5.4311895	,	0
28,51	,	52566	,	-28928	,	-27439	,	-7.904008	,	0
28,51	,	52582	,	-28952	,	-27399	,	-10.270962	,	0
28,51	,	52598	,	-28960	,	-27424	,	-12.535915	,	0
28,51	,	52630	,	-28965	,	-27438	,	-14.832491	,	0
28,51	,	52645	,	-28975	,	-27441	,	-17.178799	,	0
28,51	,	52678	,	-28979	,	-27455	,	-19.446896	,	0
28,51	,	52694	,	-29002	,	-27450	,	-21.54807	,	0
28,51	,	52710	,	-29008	,	-27467	,	-23.548214	,	0
28,51	,	52742	,	-29004	,	-27459	,	-25.476984	,	0
28,51	,	52758	,	-29008	,	-27445	,	-27.069038	,	0
28,51	,	52774	,	-28984	,	-27449	,	-27.808292	,	0
28,51	,	52805	,	-28980	,	-27449	,	-27.077646	,	0
28,51	,	52821	,	-28972	,	-27417	,	-24.437256	,	0
28,51	,	52837	,	-28934	,	-27421	,	-19.761314	,	2
28,51	,	52870	,	-28931	,	-27410	,	-13.059097	,	6
28,51	,	52886	,	-28921	,	-27405	,	-4.640069	,	12
28,51	,	52918	,	-28931	,	-27406	,	4.593256	,	20
28,51	,	52934	,	-28927	,	-27400	,	13.343626	,	29
28,51	,	52950	,	-28921	,	-27397	,	20.448254	,	37
28,51	,	52981	,	-28914	,	-27404	,	25.312288	,	44
28,51	,	52997	,	-28916	,	-27398	,	27.890083	,	48
28,51	,	53013	,	-28926	,	-27399	,	28.340488	,	50
28,51	,	53046	,	-28922	,	-27386	,	26.846931	,	48
28,51	,	53062	,	-28911	,	-27390	,	23.797571	,	44
28,51	,	53094	,	-28922	,	-27399	,	19.845814	,	38
28,51	,	53110	,	-28900	,	-27399	,	15.678028	,	30
28,52	,	53126	,	-28913	,	-27393	,	11.884149	,	21
28,52	,	53157	,	-28914	,	-27388	,	8.78813	,	13
28,52	,	53173	,	-28917	,	-27394	,	6.338773	,	6
28,52	,	53189	,	-28919	,	-27400	,	4.335448	,	2
28,52	,	53222	,	-28919	,	-27397	,	2.627552	,	0
28,52	,	53237	,	-28930	,	-27393	,	1.1033213	,	0
28,52	,	53253	,	-28934	,	-27413	,	-0.39825845	,	0
28,52	,	53286	,	-28941	,	-27382	,	-2.0617123	,	0
28,52	,	53301	,	-28940	,	-27407	,	-3.9479723	,	0
28,52	,	53333	,	-28952	,	-27414	,	-5.9740453	,	0
28,52	,	53350	,	-28968	,	-27409	,	-8.10418	,	0
28,52	,	53366	,	-28962	,	-27421	,	-10.392838	,	0
28,52	,	53398	,	-28974	,	-27417	,	-12.760086	,	0
28,52	,	53414	,	-28981	,	-27424	,	-15.012275	,	0
28,52	,	53429	,	-28991	,	-27430	,	-17.050667	,	0
28,52	,	53461	,	-28978	,	-27423	,	-18.775393	,	0
28,52	,	53477	,	-28953	,	-27416	,	-19.762768	,	0
28,52	,	53510	,	-28934	,	-27420	,	-19.203928	,	0
28,52	,	53525	,	-28916	,	-27378	,	-16.332647	,	0
28,52	,	53541	,	-28889	,	-27369	,	-10.833114	,	2
28,52	,	53573	,	-28875	,	-27368	,	-2.8774252	,	7
28,52	,	53589	,	-28862	,	-27369	,	6.8997073	,	14
28,52	,	53605	,	-28865	,	-27358	,	17.401094	,	23
28,52	,	53638	,	-28856	,	-27348	,	27.26386	,	33
28,52	,	53653	,	-28846	,	-27357	,	35.308758	,	42
28,52	,	53669	,	-28840	,	-27350	,	40.89982	,	50
28,52	,	53701	,	-28850	,	-27352	,	43.830048	,	55
28,52	,	53717	,	-28849	,	-27354	,	44.036938	,	57
28,52	,	53749	,	-28843	,	-27354	,	41.6738	,	55
28,52	,	53765	,	-28841	,	-27338	,	37.29796	,	50
28,52	,	53781	,	-28839	,	-27333	,	31.727869	,	43
28,52	,	53813	,	-28832	,	-27330	,	25.78349	,	34
28,52	,	53829	,	-28830	,	-27335	,	20.170633	,	24
28,52	,	53845	,	-28825	,	-27334	,	15.401981	,	15
28,52	,	53877	,	-28833	,	-27333	,	11.698806	,	7
28,52	,	53893	,	-28829	,	-27337	,	8.97525	,	2
28,52	,	53925	,	-28846	,	-27331	,	6.9268746	,	0
28,52	,	53941	,	-28836	,	-27346	,	5.1766806	,	0
28,52	,	53957	,	-28860	,	-27354	,	3.4076958	,	0
28,52	,	53989	,	-28867	,	-27329	,	1.3174901	,	0
28,52	,	54005	,	-28869	,	-27351	,	-1.3407526	,	0
28,52	,	54021	,	-28883	,	-27362	,	-4.5565434	,	0
28,52	,	54053	,	-28879	,	-27358	,	-8.0876	,	0
28,52	,	54070	,	-28888	,	-27363	,	-11.572268	,	0
28,52	,	54085	,	-28896	,	-27374	,	-14.665027	,	0
28,52	,	54117	,	-28920	,	-27378	,	-17.286068	,	0
28,53	,	54133	,	-28915	,	-27372	,	-19.61182	,	0
28,53	,	54165	,	-28890	,	-27364	,	-21.564838	,	0
28,53	,	54181	,	-28872	,	-27351	,	-22.429806	,	0
28,53	,	54197	,	-28840	,	-27341	,	-21.175537	,	0
28,53	,	54229	,	-28809	,	-27291	,	-16.951078	,	1
28,53	,	54245	,	-28783	,	-27308	,	-9.366584	,	5
28,53	,	54261	,	-28763	,	-27302	,	1.2966213	,	12
28,53	,	54293	,	-28767	,	-27290	,	13.975105	,	22
28,53	,	54309	,	-28767	,	-27296	,	26.915726	,	34
28,53	,	54341	,	-28751	,	-27284	,	38.229607	,	46
28,53	,	54357	,	-28753	,	-27284	,	46.608093	,	57
28,53	,	54373	,	-28763	,	-27280	,	51.400013	,	65
28,53	,	54405	,	-28747	,	-27280	,	52.422134	,	69
28,53	,	54421	,	-28749	,	-27282	,	50.07582	,	69
28,53	,	54437	,	-28759	,	-27295	,	45.17269	,	65
28,53	,	54469	,	-28750	,	-27277	,	38.535683	,	58
28,53	,	54485	,	-28736	,	-27273	,	31.06723	,	48
28,53	,	54501	,	-28736	,	-27282	,	23.818373	,	36
28,53	,	54533	,	-28738	,	-27287	,	17.603096	,	24
28,53	,	54549	,	-28762	,	-27280	,	12.613714	,	13
28,53	,	54581	,	-28744	,	-27288	,	8.542482	,	5
28,53	,	54597	,	-28756	,	-27289	,	5.105242	,	1
28,53	,	54613	,	-28770	,	-27291	,	2.15549	,	0
28,53	,	54645	,	-28772	,	-27297	,	-0.55523443	,	0
28,53	,	54661	,	-28764	,	-27300	,	-3.1834507	,	0
28,53	,	54677	,	-28779	,	-27289	,	-5.6086526	,	0
28,53	,	54709	,	-28798	,	-27303	,	-7.795432	,	0
28,53	,	54725	,	-28811	,	-27316	,	-10.044274	,	0
28,53	,	54757	,	-28814	,	-27323	,	-12.675955	,	0
28,53	,	54773	,	-28834	,	-27329	,	-15.739302	,	0
28,53	,	54790	,	-28838	,	-27336	,	-19.110485	,	0
28,53	,	54821	,	-28843	,	-27333	,	-22.547543	,	0
28,53	,	54837	,	-28817	,	-27321	,	-25.507984	,	0
28,53	,	54853	,	-28800	,	-27316	,	-27.062145	,	0
28,53	,	54885	,	-28775	,	-27284	,	-26.181717	,	0
28,53	,	54901	,	-28739	,	-27291	,	-22.111816	,	0
28,53	,	54933	,	-28724	,	-27254	,	-14.57023	,	4
28,53	,	54949	,	-28704	,	-27266	,	-3.9644794	,	11
28,53	,	54965	,	-28702	,	-27253	,	8.55491	,	21
28,53	,	54997	,	-28683	,	-27259	,	21.428373	,	33
28,53	,	55013	,	-28688	,	-27252	,	33.12887	,	45
28,53	,	55029	,	-28690	,	-27259	,	42.363937	,	56
28,53	,	55061	,	-28683	,	-27258	,	48.207153	,	65
28,53	,	55077	,	-28709	,	-27258	,	50.226044	,	70
28,53	,	55093	,	-28689	,	-27256	,	48.454308	,	72
28,54	,	55125	,	-28667	,	-27260	,	43.625412	,	68
28,54	,	55141	,	-28674	,	-27261	,	37.177948	,	61
28,54	,	55173	,	-28679	,	-27252	,	30.422781	,	51
28,54	,	55189	,	-28679	,	-27255	,	24.000536	,	39
28,54	,	55205	,	-28694	,	-27266	,	18.089167	,	27
28,54	,	55237	,	-28673	,	-27261	,	12.74298	,	16
28,54	,	55252	,	-28697	,	-27267	,	8.083016	,	7
28,54	,	55269	,	-28689	,	-27270	,	4.1668816	,	2
28,54	,	55301	,	-28718	,	-27277	,	0.81692696	,	0
28,54	,	55317	,	-28726	,	-27280	,	-2.3640668	,	0
28,54	,	55348	,	-28735	,	-27283	,	-5.795386	,	0
28,54	,	55365	,	-28719	,	-27298	,	-9.497984	,	0
28,54	,	55381	,	-28736	,	-27274	,	-13.00659	,	0
28,54	,	55413	,	-28756	,	-27298	,	-15.943447	,	0
28,54	,	55429	,	-28770	,	-27311	,	-18.446482	,	0
28,54	,	55445	,	-28783	,	-27319	,	-20.892843	,	0
28,54	,	55477	,	-28786	,	-27323	,	-23.471905	,	0
28,54	,	55493	,	-28781	,	-27311	,	-25.997528	,	0
28,54	,	55508	,	-28741	,	-27303	,	-27.765701	,	0
28,54	,	55541	,	-28725	,	-27287	,	-27.609837	,	0
28,54	,	55557	,	-28695	,	-27278	,	-24.443754	,	0
28,54	,	55589	,	-28684	,	-27269	,	-17.85305	,	3
28,54	,	55605	,	-28667	,	-27285	,	-8.267821	,	9
28,54	,	55621	,	-28656	,	-27245	,	3.226263	,	18
28,54	,	55653	,	-28649	,	-27255	,	15.249032	,	29
28,54	,	55669	,	-28655	,	-27256	,	26.367916	,	41
28,54	,	55684	,	-28645	,	-27246	,	35.290104	,	52
28,54	,	55717	,	-28647	,	-27255	,	41.170876	,	60
28,54	,	55732	,	-28652	,	-27257	,	43.709534	,	65
28,54	,	55765	,	-28639	,	-27260	,	43.066547	,	67
28,54	,	55782	,	-28644	,	-27261	,	39.847435	,	64
28,54	,	55797	,	-28652	,	-27255	,	34.845406	,	58
28,54	,	55829	,	-28644	,	-27254	,	28.748478	,	49
28,54	,	55844	,	-28655	,	-27264	,	22.178438	,	38
28,54	,	55860	,	-28662	,	-27260	,	15.646477	,	26
28,54	,	55893	,	-28661	,	-27272	,	9.462138	,	15
28,54	,	55908	,	-28672	,	-27266	,	3.832446	,	7
28,54	,	55924	,	-28682	,	-27281	,	-1.1511674	,	2
28,54	,	55957	,	-28679	,	-27277	,	-5.5059304	,	0
28,54	,	55973	,	-28701	,	-27277	,	-9.250648	,	0
28,54	,	56005	,	-28710	,	-27278	,	-12.514457	,	0
28,54	,	56020	,	-28715	,	-27299	,	-15.524968	,	0
28,54	,	56036	,	-28736	,	-27298	,	-18.416414	,	0
28,54	,	56068	,	-28731	,	-27307	,	-21.210339	,	0
28,54	,	56084	,	-28736	,	-27295	,	-23.742237	,	0
28,54	,	56100	,	-28743	,	-27314	,	-25.681574	,	0
28,55	,	56133	,	-28747	,	-27314	,	-26.801142	,	0
28,55	,	56149	,	-28735	,	-27309	,	-26.989416	,	0
28,55	,	56180	,	-28692	,	-27284	,	-25.867237	,	0
28,55	,	56196	,	-28667	,	-27279	,	-22.596336	,	1
28,55	,	56212	,	-28647	,	-27283	,	-16.403542	,	4
28,55	,	56244	,	-28637	,	-27264	,	-7.291827	,	10
28,55	,	56260	,	-28642	,	-27264	,	3.769577	,	19
28,55	,	56276	,	-28617	,	-27256	,	15.250712	,	30
28,55	,	56308	,	-28616	,	-27270	,	25.76518	,	41
28,55	,	56325	,	-28614	,	-27238	,	34.346874	,	51
28,55	,	56356	,	-28626	,	-27258	,	40.246048	,	59
28,55	,	56372	,	-28628	,	-27255	,	42.89361	,	64
28,55	,	56388	,	-28640	,	-27253	,	42.08348	,	65
28,55	,	56420	,	-28638	,	-27254	,	38.08653	,	62
28,55	,	56436	,	-28640	,	-27256	,	31.641247	,	56
28,55	,	56452	,	-28622	,	-27261	,	23.879883	,	47
28,55	,	56484	,	-28623	,	-27263	,	16.122158	,	36
28,55	,	56500	,	-28631	,	-27268	,	9.4229355	,	25
28,55	,	56516	,	-28646	,	-27268	,	4.1542377	,	15
28,55	,	56548	,	-28649	,	-27281	,	0.0751133	,	7
28,55	,	56564	,	-28651	,	-27274	,	-3.20613	,	2
28,55	,	56596	,	-28672	,	-27275	,	-5.988412	,	0
28,55	,	56612	,	-28672	,	-27282	,	-8.557604	,	0
28,55	,	56628	,	-28672	,	-27293	,	-11.064347	,	0
28,55	,	56660	,	-28694	,	-27296	,	-13.448685	,	0
28,55	,	56676	,	-28696	,	-27299	,	-15.703989	,	0
28,55	,	56692	,	-28717	,	-27312	,	-17.94611	,	0
28,55	,	56724	,	-28737	,	-27313	,	-20.357073	,	0
28,55	,	56740	,	-28727	,	-27319	,	-23.061077	,	0
28,55	,	56772	,	-28741	,	-27318	,	-25.83273	,	0
28,55	,	56788	,	-28710	,	-27301	,	-28.057064	,	0
28,55	,	56804	,	-28691	,	-27294	,	-28.810593	,	0
28,55	,	56836	,	-28653	,	-27284	,	-27.000353	,	0
28,55	,	56852	,	-28640	,	-27281	,	-21.81949	,	1
28,55	,	56868	,	-28632	,	-27278	,	-13.284214	,	6
28,55	,	56900	,	-28626	,	-27274	,	-2.3921194	,	14
28,55	,	56916	,	-28617	,	-27274	,	9.307717	,	24
28,55	,	56932	,	-28619	,	-27267	,	20.270214	,	35
28,55	,	56964	,	-28618	,	-27271	,	29.211205	,	45
28,55	,	56980	,	-28598	,	-27270	,	35.344524	,	53
28,55	,	57012	,	-28619	,	-27272	,	38.497192	,	59
28,55	,	57028	,	-28624	,	-27248	,	38.738213	,	62
28,55	,	57044	,	-28626	,	-27273	,	36.18692	,	61
28,55	,	57076	,	-28623	,	-27270	,	31.303032	,	56
28,55	,	57092	,	-28626	,	-27280	,	24.926556	,	48
28,55	,	57108	,	-28630	,	-27285	,	17.962032	,	38
28,56	,	57140	,	-28631	,	-27283	,	11.141876	,	27
28,56	,	57156	,	-28648	,	-27276	,	4.927228	,	17
28,56	,	57188	,	-28643	,	-27294	,	-0.5007162	,	9
28,56	,	57204	,	-28657	,	-27295	,	-5.097804	,	3
28,56	,	57220	,	-28660	,	-27283	,	-8.87599	,	0
28,56	,	57252	,	-28652	,	-27318	,	-11.844067	,	0
28,56	,	57268	,	-28677	,	-27288	,	-13.973746	,	0
28,56	,	57284	,	-28690	,	-27308	,	-15.474533	,	0
28,56	,	57316	,	-28702	,	-27318	,	-16.848434	,	0
28,56	,	57332	,	-28721	,	-27331	,	-18.554895	,	0
28,56	,	57348	,	-28721	,	-27332	,	-20.803204	,	0
28,56	,	57380	,	-28740	,	-27330	,	-23.508694	,	0
28,56	,	57396	,	-28717	,	-27322	,	-26.27882	,	0
28,56	,	57428	,	-28705	,	-27314	,	-28.330544	,	0
28,56	,	57444	,	-28689	,	-27297	,	-28.647854	,	0
28,56	,	57460	,	-28679	,	-27296	,	-26.496439	,	0
28,56	,	57492	,	-28644	,	-27287	,	-21.62394	,	2
28,56	,	57508	,	-28630	,	-27298	,	-14.091572	,	6
28,56	,	57524	,	-28633	,	-27283	,	-4.403242	,	13
28,56	,	57556	,	-28630	,	-27277	,	6.2584114	,	22
28,56	,	57572	,	-28633	,	-27284	,	16.343922	,	32
28,56	,	57604	,	-28645	,	-27288	,	24.441942	,	42
28,56	,	57620	,	-28636	,	-27293	,	29.574963	,	50
28,56	,	57636	,	-28658	,	-27281	,	31.351654	,	55
28,56	,	57668	,	-28650	,	-27282	,	29.897152	,	56
28,56	,	57684	,	-28644	,	-27286	,	25.831787	,	54
28,56	,	57700	,	-28641	,	-27304	,	20.241924	,	50
28,56	,	57732	,	-28672	,	-27275	,	14.146642	,	43
28,56	,	57748	,	-28665	,	-27309	,	8.017667	,	34
28,56	,	57764	,	-28674	,	-27310	,	2.0573845	,	24
28,56	,	57795	,	-28682	,	-27305	,	-3.4683366	,	14
28,56	,	57812	,	-28683	,	-27310	,	-8.32172	,	6
28,56	,	57844	,	-28696	,	-27317	,	-12.36194	,	1
28,56	,	57860	,	-28692	,	-27321	,	-15.520555	,	0
28,56	,	57876	,	-28709	,	-27322	,	-17.79985	,	0
28,56	,	57908	,	-28723	,	-27328	,	-19.373335	,	0
28,56	,	57924	,	-28721	,	-27334	,	-20.565258	,	0
28,56	,	57940	,	-28737	,	-27368	,	-21.589828	,	0
28,56	,	57971	,	-28739	,	-27337	,	-22.509983	,	0
28,56	,	57987	,	-28774	,	-27356	,	-23.458748	,	0
28,56	,	58020	,	-28787	,	-27354	,	-24.791111	,	0
28,56	,	58036	,	-28768	,	-27351	,	-26.719053	,	0
28,56	,	58052	,	-28748	,	-27349	,	-28.665668	,	0
28,56	,	58084	,	-28713	,	-27338	,	-29.30035	,	0
28,56	,	58100	,	-28724	,	-27329	,	-27.36347	,	0
28,56	,	58116	,	-28713	,	-27317	,	-22.53424	,	1
28,57	,	58148	,	-28696	,	-27322	,	-15.422946	,	5
28,57	,	58164	,	-28694	,	-27329	,	-6.9311466	,	12
28,57	,	58180	,	-28689	,	-27316	,	1.9857035	,	20
28,57	,	58211	,	-28687	,	-27313	,	10.331431	,	28
28,57	,	58228	,	-28687	,	-27320	,	17.248507	,	36
28,57	,	58260	,	-28700	,	-27327	,	22.095741	,	42
28,57	,	58276	,	-28692	,	-27332	,	24.480558	,	46
28,57	,	58291	,	-28693	,	-27334	,	24.43372	,	48
28,57	,	58324	,	-28695	,	-27329	,	22.408989	,	47
28,57	,	58339	,	-28699	,	-27327	,	19.004723	,	43
28,57	,	58356	,	-28705	,	-27325	,	14.75969	,	36
28,57	,	58388	,	-28705	,	-27336	,	10.124612	,	28
28,57	,	58404	,	-28708	,	-27345	,	5.5043793	,	20
28,57	,	58435	,	-28719	,	-27320	,	1.2133994	,	12
28,57	,	58451	,	-28723	,	-27339	,	-2.6259656	,	6
28,57	,	58467	,	-28737	,	-27345	,	-6.0542994	,	2
28,57	,	58500	,	-28738	,	-27362	,	-9.163197	,	0
28,57	,	58516	,	-28768	,	-27349	,	-12.088277	,	0
28,57	,	58532	,	-28767	,	-27368	,	-15.04842	,	0
28,57	,	58564	,	-28779	,	-27366	,	-18.160725	,	0
28,57	,	58580	,	-28782	,	-27370	,	-21.27294	,	0
28,57	,	58595	,	-28801	,	-27368	,	-24.138214	,	0
28,57	,	58628	,	-28807	,	-27376	,	-26.62897	,	0
28,57	,	58644	,	-28816	,	-27396	,	-28.710497	,	0
28,57	,	58675	,	-28816	,	-27359	,	-30.294493	,	0
28,57	,	58691	,	-28810	,	-27371	,	-31.144464	,	0
28,57	,	58707	,	-28777	,	-27359	,	-30.767036	,	0
28,57	,	58739	,	-28773	,	-27351	,	-28.465778	,	0
28,57	,	58755	,	-28762	,	-27351	,	-23.828571	,	2
28,57	,	58774	,	-28757	,	-27351	,	-17.105976	,	6
28,57	,	58803	,	-28740	,	-27341	,	-9.003479	,	12
28,57	,	58819	,	-28733	,	-27343	,	-0.30311203	,	20
28,57	,	58852	,	-28730	,	-27344	,	8.24745	,	28
28,57	,	58867	,	-28724	,	-27347	,	15.914644	,	36
28,57	,	58883	,	-28724	,	-27348	,	22.07467	,	43
28,57	,	58915	,	-28730	,	-27341	,	26.276917	,	49
28,57	,	58931	,	-28738	,	-27340	,	28.198063	,	53
28,57	,	58947	,	-28732	,	-27344	,	27.738752	,	52
28,57	,	58979	,	-28738	,	-27336	,	25.188667	,	48
28,57	,	58995	,	-28750	,	-27344	,	21.075428	,	42
28,57	,	59011	,	-28736	,	-27347	,	15.9562025	,	34
28,57	,	59044	,	-28737	,	-27355	,	10.515122	,	26
28,57	,	59059	,	-28754	,	-27353	,	5.422224	,	18
28,57	,	59091	,	-28754	,	-27350	,	0.9654741	,	11
28,57	,	59107	,	-28758	,	-27362	,	-2.8467488	,	5
28,57	,	59123	,	-28765	,	-27336	,	-6.0206003	,	1
28,58	,	59155	,	-28759	,	-27367	,	-8.538591	,	0
28,58	,	59172	,	-28779	,	-27373	,	-10.406134	,	0
28,58	,	59187	,	-28785	,	-27377	,	-11.800806	,	0
28,58	,	59219	,	-28792	,	-27369	,	-13.042582	,	0
28,58	,	59235	,	-28795	,	-27379	,	-14.319366	,	0
28,58	,	59267	,	-28810	,	-27385	,	-15.650333	,	0
28,58	,	59283	,	-28833	,	-27394	,	-17.13712	,	0
28,58	,	59299	,	-28847	,	-27400	,	-19.071545	,	0
28,58	,	59331	,	-28848	,	-27397	,	-21.640995	,	0
28,58	,	59347	,	-28860	,	-27425	,	-24.645454	,	0
28,58	,	59363	,	-28848	,	-27380	,	-27.5644	,	0
28,58	,	59395	,	-28802	,	-27370	,	-29.484554	,	0
28,58	,	59411	,	-28781	,	-27374	,	-29.03635	,	0
28,58	,	59443	,	-28757	,	-27376	,	-25.034424	,	0
28,58	,	59459	,	-28768	,	-27356	,	-17.334126	,	4
28,58	,	59475	,	-28751	,	-27353	,	-6.997774	,	11
28,58	,	59507	,	-28744	,	-27356	,	4.352146	,	21
28,58	,	59523	,	-28747	,	-27352	,	15.202284	,	32
28,58	,	59539	,	-28733	,	-27348	,	24.35539	,	42
28,58	,	59571	,	-28740	,	-27358	,	31.041283	,	51
28,58	,	59587	,	-28736	,	-27367	,	34.913006	,	57
28,58	,	59603	,	-28739	,	-27334	,	35.948875	,	60
28,58	,	59635	,	-28759	,	-27350	,	34.346985	,	61
28,58	,	59651	,	-28749	,	-27352	,	30.417408	,	57
28,58	,	59683	,	-28747	,	-27351	,	24.754822	,	50
28,58	,	59699	,	-28747	,	-27364	,	18.28838	,	40
28,58	,	59715	,	-28757	,	-27352	,	11.882084	,	29
28,58	,	59747	,	-28767	,	-27359	,	6.0061474	,	19
28,58	,	59763	,	-28752	,	-27352	,	0.86608887	,	10
28,58	,	59779	,	-28771	,	-27357	,	-3.3419309	,	4
28,58	,	59811	,	-28755	,	-27366	,	-6.4716983	,	1
28,58	,	59827	,	-28775	,	-27354	,	-8.520612	,	0
28,58	,	59859	,	-28778	,	-27368	,	-9.685963	,	0
28,58	,	59875	,	-28809	,	-27374	,	-10.466078	,	0
28,58	,	59891	,	-28812	,	-27384	,	-11.539599	,	0
28,58	,	59923	,	-28813	,	-27391	,	-13.3257675	,	0
28,58	,	59939	,	-28823	,	-27392	,	-15.71122	,	0
28,58	,	59955	,	-28826	,	-27398	,	-18.300728	,	0
28,58	,	59987	,	-28851	,	-27400	,	-20.798237	,	0
28,58	,	60003	,	-28866	,	-27408	,	-23.215776	,	0
28,58	,	60019	,	-28842	,	-27399	,	-25.594528	,	0
28,58	,	60051	,	-28814	,	-27407	,	-27.33617	,	0
28,58	,	60067	,	-28806	,	-27347	,	-27.274933	,	0
28,58	,	60099	,	-28758	,	-27357	,	-24.388693	,	0
28,58	,	60115	,	-28762	,	-27359	,	-18.192932	,	2
28,59	,	60131	,	-28747	,	-27351	,	-9.030263	,	8
28,59	,	60163	,	-28733	,	-27348	,	1.9525461	,	17
28,59	,	60179	,	-28739	,	-27334	,	13.309628	,	27
28,59	,	60195	,	-28725	,	-27351	,	23.63637	,	38
28,59	,	60227	,	-28739	,	-27342	,	31.77194	,	48
28,59	,	60243	,	-28746	,	-27349	,	36.880913	,	56
28,59	,	60275	,	-28739	,	-27345	,	38.52812	,	61
28,59	,	60291	,	-28735	,	-27365	,	36.94158	,	62
28,59	,	60307	,	-28733	,	-27338	,	32.95179	,	60
28,59	,	60339	,	-28727	,	-27348	,	27.599443	,	54
28,59	,	60355	,	-28742	,	-27344	,	21.791725	,	45
28,59	,	60371	,	-28744	,	-27344	,	16.065521	,	35
28,59	,	60403	,	-28742	,	-27346	,	10.670464	,	24
28,59	,	60419	,	-28742	,	-27342	,	5.8491917	,	14
28,59	,	60435	,	-28751	,	-27347	,	1.8234468	,	6
28,59	,	60467	,	-28755	,	-27347	,	-1.3933053	,	1
28,59	,	60483	,	-28754	,	-27347	,	-3.932501	,	0
28,59	,	60515	,	-28780	,	-27357	,	-5.982498	,	0
28,59	,	60531	,	-28784	,	-27353	,	-7.894259	,	0
28,59	,	60547	,	-28798	,	-27366	,	-10.060901	,	0
28,59	,	60579	,	-28811	,	-27378	,	-12.686959	,	0
28,59	,	60595	,	-28815	,	-27382	,	-15.771043	,	0
28,59	,	60611	,	-28837	,	-27377	,	-19.165869	,	0
28,59	,	60643	,	-28831	,	-27388	,	-22.645561	,	0
28,59	,	60659	,	-28834	,	-27391	,	-25.832525	,	0
28,59	,	60691	,	-28837	,	-27388	,	-28.205479	,	0
28,59	,	60707	,	-28798	,	-27367	,	-29.179115	,	0
28,59	,	60723	,	-28778	,	-27354	,	-27.959887	,	0
28,59	,	60754	,	-28754	,	-27359	,	-23.759163	,	1
28,59	,	60771	,	-28746	,	-27317	,	-16.393326	,	5
28,59	,	60786	,	-28716	,	-27335	,	-6.4302397	,	12
28,59	,	60819	,	-28711	,	-27327	,	5.1414404	,	21
28,59	,	60835	,	-28706	,	-27335	,	17.104733	,	32
28,59	,	60851	,	-28703	,	-27339	,	28.08835	,	43
28,59	,	60883	,	-28704	,	-27334	,	36.84148	,	53
28,59	,	60899	,	-28704	,	-27324	,	42.50398	,	61
28,59	,	60931	,	-28720	,	-27340	,	44.6516	,	66
28,59	,	60947	,	-28722	,	-27346	,	43.231937	,	67
28,59	,	60963	,	-28708	,	-27329	,	38.688717	,	63
28,59	,	60995	,	-28714	,	-27346	,	32.04535	,	56
28,59	,	61011	,	-28706	,	-27323	,	24.53619	,	47
28,59	,	61027	,	-28708	,	-27348	,	17.214355	,	36
28,59	,	61059	,	-28719	,	-27337	,	10.764395	,	25
28,59	,	61075	,	-28711	,	-27352	,	5.452468	,	15
28,59	,	61106	,	-28722	,	-27350	,	1.308897	,	7
29,0	,	61122	,	-28730	,	-27354	,	-1.7962995	,	2
29,0	,	61138	,	-28727	,	-27354	,	-4.1403093	,	0
29,0	,	61171	,	-28744	,	-27356	,	-5.9972324	,	0
29,0	,	61187	,	-28759	,	-27364	,	-7.6894403	,	0
29,0	,	61203	,	-28755	,	-27370	,	-9.566176	,	0
29,0	,	61235	,	-28780	,	-27379	,	-11.782924	,	0
29,0	,	61251	,	-28774	,	-27373	,	-14.31909	,	0
29,0	,	61267	,	-28800	,	-27387	,	-17.073298	,	0
29,0	,	61298	,	-28806	,	-27385	,	-19.94992	,	0
29,0	,	61314	,	-28806	,	-27386	,	-22.838604	,	0
29,0	,	61347	,	-28783	,	-27377	,	-25.30373	,	0
29,0	,	61363	,	-28754	,	-27364	,	-26.407845	,	0
29,0	,	61379	,	-28730	,	-27354	,	-24.999235	,	0
29,0	,	61411	,	-28692	,	-27339	,	-20.20418	,	1
29,0	,	61426	,	-28697	,	-27340	,	-11.862559	,	5
29,0	,	61442	,	-28675	,	-27342	,	-0.78796387	,	13
29,0	,	61474	,	-28676	,	-27306	,	11.501485	,	24
29,0	,	61491	,	-28670	,	-27316	,	23.340933	,	36
29,0	,	61522	,	-28669	,	-27315	,	33.272118	,	47
29,0	,	61539	,	-28673	,	-27315	,	40.25832	,	56
29,0	,	61554	,	-28680	,	-27310	,	43.73075	,	62
29,0	,	61586	,	-28678	,	-27318	,	43.580883	,	65
29,0	,	61602	,	-28680	,	-27312	,	40.22042	,	64
29,0	,	61618	,	-28684	,	-27312	,	34.46691	,	60
29,0	,	61650	,	-28670	,	-27308	,	27.34407	,	52
29,0	,	61666	,	-28664	,	-27316	,	20.001232	,	41
29,0	,	61683	,	-28671	,	-27327	,	13.456903	,	29
29,0	,	61715	,	-28666	,	-27290	,	8.250541	,	18
29,0	,	61730	,	-28691	,	-27320	,	4.376211	,	9
29,0	,	61763	,	-28694	,	-27324	,	1.3853307	,	3
29,0	,	61778	,	-28704	,	-27328	,	-1.3066161	,	0
29,0	,	61794	,	-28711	,	-27336	,	-4.068832	,	0
29,0	,	61826	,	-28730	,	-27341	,	-7.0712876	,	0
29,0	,	61842	,	-28738	,	-27343	,	-10.431695	,	0
29,0	,	61875	,	-28730	,	-27355	,	-14.074379	,	0
29,0	,	61890	,	-28741	,	-27355	,	-17.579811	,	0
29,0	,	61907	,	-28754	,	-27361	,	-20.504953	,	0
29,0	,	61938	,	-28763	,	-27368	,	-22.740047	,	0
29,0	,	61954	,	-28784	,	-27368	,	-24.464403	,	0
29,0	,	61970	,	-28754	,	-27351	,	-25.8064	,	0
29,0	,	62002	,	-28721	,	-27332	,	-26.280565	,	0
29,0	,	62018	,	-28707	,	-27317	,	-24.792412	,	0
29,0	,	62050	,	-28692	,	-27315	,	-20.508759	,	1
29,0	,	62066	,	-28675	,	-27304	,	-13.413955	,	5
29,0	,	62083	,	-28666	,	-27297	,	-4.1529408	,	12
29,0	,	62114	,	-28669	,	-27295	,	6.172386	,	21
29,1	,	62130	,	-28663	,	-27295	,	16.180756	,	31
29,1	,	62146	,	-28651	,	-27299	,	24.654215	,	41
29,1	,	62178	,	-28663	,	-27274	,	30.847094	,	49
29,1	,	62194	,	-28663	,	-27297	,	34.33783	,	55
29,1	,	62226	,	-28680	,	-27302	,	34.891987	,	58
29,1	,	62242	,	-28672	,	-27293	,	32.578686	,	57
29,1	,	62258	,	-28658	,	-27298	,	28.001915	,	53
29,1	,	62290	,	-28668	,	-27299	,	22.23982	,	46
29,1	,	62306	,	-28663	,	-27301	,	16.31615	,	37
29,1	,	62322	,	-28660	,	-27300	,	10.912648	,	27
29,1	,	62354	,	-28661	,	-27314	,	6.4691706	,	17
29,1	,	62370	,	-28661	,	-27283	,	3.1876588	,	9
29,1	,	62386	,	-28677	,	-27317	,	0.9535928	,	3
29,1	,	62418	,	-28687	,	-27313	,	-0.6768124	,	0
29,1	,	62434	,	-28697	,	-27316	,	-2.2968054	,	0
29,1	,	62466	,	-28697	,	-27311	,	-4.3059206	,	0
29,1	,	62482	,	-28720	,	-27321	,	-6.802793	,	0
29,1	,	62498	,	-28725	,	-27327	,	-9.789039	,	0
29,1	,	62530	,	-28737	,	-27319	,	-13.225653	,	0
29,1	,	62546	,	-28750	,	-27335	,	-16.954819	,	0
29,1	,	62562	,	-28751	,	-27331	,	-20.726807	,	0
29,1	,	62594	,	-28765	,	-27355	,	-24.231016	,	0
29,1	,	62610	,	-28762	,	-27316	,	-27.146183	,	0
29,1	,	62642	,	-28697	,	-27309	,	-28.837929	,	0
29,1	,	62658	,	-28688	,	-27294	,	-28.040855	,	0
29,1	,	62674	,	-28656	,	-27294	,	-23.58665	,	0
29,1	,	62706	,	-28644	,	-27291	,	-15.282463	,	4
29,1	,	62722	,	-28631	,	-27287	,	-3.9285107	,	12
29,1	,	62738	,	-28637	,	-27285	,	8.947747	,	23
29,1	,	62770	,	-28623	,	-27290	,	21.485983	,	35
29,1	,	62786	,	-28601	,	-27291	,	32.18996	,	47
29,1	,	62818	,	-28605	,	-27296	,	40.319576	,	57
29,1	,	62834	,	-28618	,	-27288	,	45.50632	,	65
29,1	,	62850	,	-28617	,	-27299	,	47.40112	,	70
29,1	,	62882	,	-28605	,	-27288	,	46.00872	,	71
29,1	,	62898	,	-28609	,	-27282	,	41.9613	,	67
29,1	,	62914	,	-28613	,	-27283	,	36.167847	,	59
29,1	,	62946	,	-28624	,	-27291	,	29.369532	,	48
29,1	,	62962	,	-28599	,	-27296	,	22.196157	,	36
29,1	,	62978	,	-28612	,	-27297	,	15.401232	,	24
29,1	,	63010	,	-28617	,	-27299	,	9.593828	,	14
29,1	,	63026	,	-28620	,	-27305	,	4.9121094	,	6
29,1	,	63058	,	-28631	,	-27316	,	1.1852355	,	1
29,1	,	63074	,	-28644	,	-27288	,	-1.9074411	,	0
29,1	,	63090	,	-28658	,	-27320	,	-4.8038397	,	0
29,1	,	63122	,	-28651	,	-27317	,	-7.815244	,	0
29,2	,	63138	,	-28671	,	-27330	,	-10.929271	,	0
29,2	,	63154	,	-28665	,	-27328	,	-13.960094	,	0
29,2	,	63186	,	-28678	,	-27338	,	-16.696417	,	0
29,2	,	63202	,	-28695	,	-27334	,	-19.013073	,	0
29,2	,	63234	,	-28678	,	-27335	,	-20.89484	,	0
29,2	,	63250	,	-28647	,	-27323	,	-21.983147	,	0
29,2	,	63266	,	-28618	,	-27302	,	-21.315203	,	0
29,2	,	63298	,	-28611	,	-27312	,	-17.92809	,	0
29,2	,	63314	,	-28577	,	-27267	,	-11.530178	,	3
29,2	,	63330	,	-28560	,	-27276	,	-2.4648657	,	9
29,2	,	63362	,	-28552	,	-27277	,	8.486285	,	18
29,2	,	63378	,	-28546	,	-27280	,	20.092098	,	28
29,2	,	63394	,	-28537	,	-27272	,	30.91652	,	39
29,2	,	63426	,	-28530	,	-27279	,	39.763424	,	49
29,2	,	63442	,	-28546	,	-27280	,	45.810436	,	57
29,2	,	63473	,	-28548	,	-27278	,	48.479786	,	63
29,2	,	63489	,	-28555	,	-27282	,	47.526325	,	65
29,2	,	63506	,	-28544	,	-27269	,	43.295013	,	62
29,2	,	63538	,	-28545	,	-27276	,	36.722458	,	56
29,2	,	63554	,	-28554	,	-27278	,	28.956514	,	47
29,2	,	63570	,	-28549	,	-27281	,	20.950089	,	37
29,2	,	63602	,	-28558	,	-27285	,	13.387001	,	26
29,2	,	63617	,	-28554	,	-27285	,	6.7424917	,	16
29,2	,	63650	,	-28556	,	-27289	,	1.3261786	,	8
29,2	,	63666	,	-28575	,	-27306	,	-2.7857456	,	2
29,2	,	63682	,	-28578	,	-27300	,	-5.8695974	,	0
29,2	,	63714	,	-28588	,	-27300	,	-8.3566475	,	0
29,2	,	63729	,	-28599	,	-27306	,	-10.581796	,	0
29,2	,	63746	,	-28607	,	-27311	,	-12.7740135	,	0
29,2	,	63778	,	-28623	,	-27308	,	-15.08276	,	0
29,2	,	63794	,	-28634	,	-27329	,	-17.607695	,	0
29,2	,	63810	,	-28651	,	-27330	,	-20.418083	,	0
29,2	,	63841	,	-28647	,	-27330	,	-23.449827	,	0
29,2	,	63858	,	-28615	,	-27313	,	-26.19242	,	0
29,2	,	63890	,	-28596	,	-27309	,	-27.524973	,	0
29,2	,	63906	,	-28562	,	-27296	,	-26.157026	,	0
29,2	,	63922	,	-28552	,	-27290	,	-21.292469	,	1
29,2	,	63954	,	-28548	,	-27280	,	-13.08253	,	5
29,2	,	63970	,	-28534	,	-27281	,	-2.621542	,	13
29,2	,	63985	,	-28525	,	-27292	,	8.61726	,	23
29,2	,	64017	,	-28523	,	-27261	,	19.280724	,	34
29,2	,	64034	,	-28521	,	-27287	,	28.24283	,	44
29,2	,	64066	,	-28533	,	-27289	,	34.612686	,	52
29,2	,	64082	,	-28532	,	-27294	,	37.79746	,	58
29,2	,	64098	,	-28530	,	-27288	,	37.686256	,	61
29,3	,	64129	,	-28533	,	-27285	,	34.73401	,	60
29,3	,	64145	,	-28543	,	-27296	,	29.687	,	56
29,3	,	64161	,	-28539	,	-27297	,	23.302176	,	48
29,3	,	64193	,	-28544	,	-27296	,	16.336412	,	38
29,3	,	64210	,	-28545	,	-27302	,	9.518043	,	27
29,3	,	64226	,	-28555	,	-27313	,	3.3824787	,	17
29,3	,	64258	,	-28554	,	-27296	,	-1.7999315	,	9
29,3	,	64274	,	-28572	,	-27323	,	-5.987512	,	3
29,3	,	64305	,	-28591	,	-27318	,	-9.419886	,	0
29,3	,	64321	,	-28592	,	-27331	,	-12.529027	,	0
29,3	,	64337	,	-28608	,	-27331	,	-15.601127	,	0
29,3	,	64369	,	-28605	,	-27335	,	-18.636242	,	0
29,3	,	64386	,	-28625	,	-27340	,	-21.473433	,	0
29,3	,	64401	,	-28637	,	-27350	,	-24.01318	,	0
29,3	,	64433	,	-28629	,	-27355	,	-26.226868	,	0
29,3	,	64449	,	-28648	,	-27363	,	-27.96223	,	0
29,3	,	64481	,	-28659	,	-27346	,	-29.111115	,	0
29,3	,	64497	,	-28651	,	-27355	,	-29.721794	,	0
29,3	,	64514	,	-28596	,	-27335	,	-29.436357	,	0
29,3	,	64545	,	-28591	,	-27329	,	-27.215923	,	0
29,3	,	64561	,	-28568	,	-27323	,	-22.14804	,	2
29,3	,	64577	,	-28567	,	-27324	,	-14.242703	,	7
29,3	,	64609	,	-28566	,	-27320	,	-4.426503	,	14
29,3	,	64625	,	-28556	,	-27317	,	5.887582	,	23
29,3	,	64641	,	-28561	,	-27318	,	15.326498	,	33
29,3	,	64673	,	-28559	,	-27310	,	22.836172	,	42
29,3	,	64690	,	-28573	,	-27343	,	27.698763	,	49
29,3	,	64721	,	-28573	,	-27302	,	29.54583	,	53
29,3	,	64737	,	-28579	,	-27320	,	28.429943	,	54
29,3	,	64753	,	-28590	,	-27323	,	24.784346	,	52
29,3	,	64785	,	-28590	,	-27326	,	19.24451	,	47
29,3	,	64801	,	-28593	,	-27338	,	12.59299	,	40
29,3	,	64817	,	-28596	,	-27341	,	5.6967344	,	31
29,3	,	64849	,	-28604	,	-27334	,	-0.71300316	,	21
29,3	,	64865	,	-28607	,	-27332	,	-6.185475	,	12
29,3	,	64897	,	-28619	,	-27347	,	-10.547037	,	5
29,3	,	64913	,	-28629	,	-27358	,	-13.879819	,	1
29,3	,	64929	,	-28647	,	-27378	,	-16.49102	,	0
29,3	,	64961	,	-28634	,	-27355	,	-18.678707	,	0
29,3	,	64977	,	-28672	,	-27372	,	-20.562649	,	0
29,3	,	64993	,	-28678	,	-27387	,	-22.348976	,	0
29,3	,	65025	,	-28692	,	-27399	,	-24.36443	,	0
29,3	,	65041	,	-28699	,	-27390	,	-26.702347	,	0
29,3	,	65057	,	-28720	,	-27401	,	-29.226192	,	0
29,3	,	65089	,	-28712	,	-27407	,	-31.72292	,	0
29,3	,	65105	,	-28729	,	-27409	,	-33.864662	,	0
29,4	,	65137	,	-28725	,	-27408	,	-35.289665	,	0
29,4	,	65153	,	-28699	,	-27389	,	-35.582424	,	0
29,4	,	65169	,	-28679	,	-27381	,	-34.064163	,	0
29,4	,	65201	,	-28675	,	-27380	,	-30.085752	,	1
29,4	,	65217	,	-28641	,	-27371	,	-23.501999	,	4
29,4	,	65233	,	-28639	,	-27374	,	-14.635575	,	10
29,4	,	65265	,	-28646	,	-27377	,	-4.296054	,	18
29,4	,	65281	,	-28637	,	-27377	,	6.1797876	,	28
29,4	,	65313	,	-28655	,	-27376	,	15.351189	,	38
29,4	,	65329	,	-28661	,	-27382	,	22.019289	,	47
29,4	,	65345	,	-28646	,	-27372	,	25.496868	,	53
29,4	,	65377	,	-28662	,	-27387	,	25.86058	,	56
29,4	,	65393	,	-28660	,	-27396	,	23.665024	,	55
29,4	,	65409	,	-28667	,	-27368	,	19.576628	,	52
29,4	,	65441	,	-28677	,	-27396	,	14.269632	,	46
29,4	,	65457	,	-28684	,	-27395	,	8.314341	,	38
29,4	,	65473	,	-28689	,	-27400	,	2.1777506	,	28
29,4	,	65505	,	-28692	,	-27391	,	-3.6890826	,	18
29,4	,	65521	,	-28706	,	-27407	,	-8.9105	,	9
29,4	,	65553	,	-28703	,	-27401	,	-13.275769	,	3
29,4	,	65569	,	-28728	,	-27414	,	-16.746704	,	0
29,4	,	65585	,	-28726	,	-27410	,	-19.463285	,	0
29,4	,	65617	,	-28725	,	-27414	,	-21.54697	,	0
29,4	,	65633	,	-28736	,	-27432	,	-22.923605	,	0
29,4	,	65649	,	-28749	,	-27418	,	-23.585657	,	0
29,4	,	65681	,	-28764	,	-27441	,	-23.814312	,	0
29,4	,	65697	,	-28794	,	-27456	,	-24.126158	,	0
29,4	,	65729	,	-28812	,	-27453	,	-25.155972	,	0
29,4	,	65746	,	-28805	,	-27449	,	-27.25601	,	0
29,4	,	65761	,	-28829	,	-27458	,	-30.167175	,	0
29,4	,	65793	,	-28796	,	-27460	,	-33.166645	,	0
29,4	,	65809	,	-28787	,	-27437	,	-35.17483	,	0
29,4	,	65825	,	-28775	,	-27429	,	-35.025974	,	0
29,4	,	65857	,	-28744	,	-27425	,	-31.97031	,	0
29,4	,	65873	,	-28740	,	-27434	,	-25.810452	,	3
29,4	,	65889	,	-28750	,	-27415	,	-17.071407	,	9
29,4	,	65921	,	-28751	,	-27427	,	-7.1145916	,	17
29,4	,	65937	,	-28740	,	-27421	,	2.4623442	,	26
29,4	,	65969	,	-28731	,	-27414	,	10.581849	,	35
29,4	,	65985	,	-28752	,	-27413	,	16.711391	,	43
29,4	,	66001	,	-28758	,	-27429	,	20.417555	,	49
29,4	,	66033	,	-28758	,	-27432	,	21.383533	,	52
29,4	,	66049	,	-28764	,	-27423	,	19.754938	,	52
29,4	,	66065	,	-28769	,	-27426	,	16.091091	,	49
29,4	,	66097	,	-28761	,	-27431	,	11.160398	,	43
29,4	,	66113	,	-28769	,	-27416	,	5.8380547	,	35
29,5	,	66145	,	-28759	,	-27436	,	0.91194296	,	26
29,5	,	66161	,	-28779	,	-27441	,	-3.1286817	,	17
29,5	,	66177	,	-28787	,	-27450	,	-6.242222	,	9
29,5	,	66208	,	-28809	,	-27443	,	-8.810843	,	3
29,5	,	66225	,	-28800	,	-27446	,	-11.2858	,	0
29,5	,	66241	,	-28805	,	-27454	,	-13.758444	,	0
29,5	,	66273	,	-28824	,	-27459	,	-16.036013	,	0
29,5	,	66289	,	-28827	,	-27464	,	-18.05224	,	0
29,5	,	66321	,	-28840	,	-27469	,	-19.889769	,	0
29,5	,	66337	,	-28856	,	-27487	,	-21.650476	,	0
29,5	,	66353	,	-28868	,	-27467	,	-23.48611	,	0
29,5	,	66384	,	-28867	,	-27487	,	-25.455778	,	0
29,5	,	66400	,	-28882	,	-27492	,	-27.383759	,	0
29,5	,	66416	,	-28901	,	-27495	,	-29.09851	,	0
29,5	,	66449	,	-28888	,	-27486	,	-30.553661	,	0
29,5	,	66465	,	-28867	,	-27477	,	-31.403774	,	0
29,5	,	66481	,	-28847	,	-27478	,	-30.800913	,	0
29,5	,	66512	,	-28822	,	-27459	,	-27.825726	,	0
29,5	,	66529	,	-28837	,	-27461	,	-22.11642	,	2
29,5	,	66561	,	-28823	,	-27457	,	-14.245719	,	7
29,5	,	66577	,	-28811	,	-27458	,	-5.336499	,	14
29,5	,	66593	,	-28818	,	-27438	,	3.5487041	,	22
29,5	,	66625	,	-28827	,	-27458	,	11.402494	,	30
29,5	,	66641	,	-28834	,	-27454	,	17.221025	,	37
29,5	,	66656	,	-28833	,	-27464	,	20.345743	,	42
29,5	,	66689	,	-28845	,	-27453	,	20.676832	,	45
29,5	,	66705	,	-28834	,	-27461	,	18.582378	,	45
29,5	,	66738	,	-28844	,	-27463	,	14.76553	,	43
29,5	,	66753	,	-28845	,	-27454	,	10.039288	,	38
29,5	,	66769	,	-28847	,	-27456	,	5.0949526	,	31
29,5	,	66800	,	-28856	,	-27465	,	0.43524456	,	23
29,5	,	66816	,	-28858	,	-27455	,	-3.6547322	,	15
29,5	,	66832	,	-28857	,	-27461	,	-7.0267096	,	8
29,5	,	66865	,	-28867	,	-27474	,	-9.584402	,	3
29,5	,	66881	,	-28870	,	-27471	,	-11.365461	,	0
29,5	,	66897	,	-28878	,	-27482	,	-12.5455885	,	0
29,5	,	66929	,	-28900	,	-27475	,	-13.4191065	,	0
29,5	,	66945	,	-28892	,	-27491	,	-14.345405	,	0
29,5	,	66977	,	-28906	,	-27492	,	-15.486677	,	0
29,5	,	66994	,	-28919	,	-27488	,	-16.81367	,	0
29,5	,	67008	,	-28925	,	-27491	,	-18.337687	,	0
29,5	,	67041	,	-28941	,	-27505	,	-20.08561	,	0
29,5	,	67056	,	-28956	,	-27486	,	-22.077955	,	0
29,5	,	67072	,	-28948	,	-27494	,	-24.265778	,	0
29,5	,	67104	,	-28923	,	-27477	,	-26.17339	,	0
29,5	,	67120	,	-28892	,	-27477	,	-26.73064	,	0
29,6	,	67152	,	-28876	,	-27465	,	-24.723434	,	0
29,6	,	67169	,	-28875	,	-27462	,	-19.577599	,	2
29,6	,	67184	,	-28863	,	-27466	,	-11.746273	,	7
29,6	,	67216	,	-28840	,	-27446	,	-2.2797804	,	14
29,6	,	67232	,	-28852	,	-27451	,	7.7077293	,	23
29,6	,	67248	,	-28854	,	-27443	,	17.006386	,	32
29,6	,	67280	,	-28848	,	-27449	,	24.40619	,	41
29,6	,	67297	,	-28842	,	-27432	,	29.200481	,	48
29,6	,	67313	,	-28871	,	-27445	,	31.206057	,	52
29,6	,	67345	,	-28870	,	-27448	,	30.35854	,	54
29,6	,	67361	,	-28861	,	-27442	,	26.855213	,	52
29,6	,	67392	,	-28866	,	-27438	,	21.47517	,	47
29,6	,	67408	,	-28864	,	-27443	,	15.273988	,	40
29,6	,	67424	,	-28855	,	-27435	,	9.211307	,	31
29,6	,	67456	,	-28870	,	-27441	,	4.007951	,	22
29,6	,	67472	,	-28868	,	-27433	,	-0.041141033	,	13
29,6	,	67488	,	-28868	,	-27449	,	-2.980381	,	6
29,6	,	67520	,	-28881	,	-27424	,	-4.9722714	,	2
29,6	,	67536	,	-28889	,	-27447	,	-6.3356323	,	0
29,6	,	67568	,	-28890	,	-27453	,	-7.471721	,	0
29,6	,	67584	,	-28898	,	-27454	,	-8.623929	,	0
29,6	,	67600	,	-28909	,	-27461	,	-9.888447	,	0
29,6	,	67632	,	-28914	,	-27462	,	-11.34193	,	0
29,6	,	67648	,	-28917	,	-27467	,	-12.9881935	,	0
29,6	,	67664	,	-28945	,	-27464	,	-14.794626	,	0
29,6	,	67696	,	-28946	,	-27474	,	-16.85775	,	0
29,6	,	67712	,	-28937	,	-27466	,	-19.154612	,	0
29,6	,	67728	,	-28936	,	-27488	,	-21.21676	,	0
29,6	,	67760	,	-28914	,	-27431	,	-22.306156	,	0
29,6	,	67776	,	-28857	,	-27431	,	-21.479465	,	0
29,6	,	67808	,	-28846	,	-27421	,	-17.623123	,	0
29,6	,	67824	,	-28830	,	-27413	,	-10.201932	,	3
29,6	,	67840	,	-28823	,	-27399	,	0.14985275	,	10
29,6	,	67872	,	-28829	,	-27405	,	11.902948	,	20
29,6	,	67888	,	-28822	,	-27395	,	23.193857	,	31
29,6	,	67904	,	-28806	,	-27395	,	32.484734	,	42
29,6	,	67936	,	-28815	,	-27394	,	38.97085	,	51
29,6	,	67952	,	-28830	,	-27394	,	42.281006	,	57
29,6	,	67984	,	-28849	,	-27414	,	42.101288	,	60
29,6	,	68000	,	-28825	,	-27390	,	38.453594	,	60
29,6	,	68016	,	-28817	,	-27397	,	32.220924	,	57
29,6	,	68048	,	-28815	,	-27392	,	24.923935	,	50
29,6	,	68064	,	-28827	,	-27394	,	17.863531	,	40
29,6	,	68080	,	-28823	,	-27386	,	11.68899	,	29
29,6	,	68112	,	-28833	,	-27396	,	6.578768	,	18
29,7	,	68128	,	-28830	,	-27386	,	2.4946365	,	9
29,7	,	68144	,	-28823	,	-27384	,	-0.61541224	,	3
29,7	,	68176	,	-28824	,	-27398	,	-2.7047813	,	0
29,7	,	68192	,	-28842	,	-27401	,	-3.84228	,	0
29,7	,	68224	,	-28849	,	-27395	,	-4.450433	,	0
29,7	,	68240	,	-28856	,	-27401	,	-5.0997863	,	0
29,7	,	68256	,	-28851	,	-27404	,	-6.101929	,	0
29,7	,	68288	,	-28866	,	-27412	,	-7.4301233	,	0
29,7	,	68304	,	-28878	,	-27426	,	-9.0200205	,	0
29,7	,	68320	,	-28897	,	-27424	,	-10.991313	,	0
29,7	,	68352	,	-28881	,	-27412	,	-13.418015	,	0
29,7	,	68368	,	-28851	,	-27409	,	-15.802107	,	0
29,7	,	68400	,	-28815	,	-27386	,	-16.897352	,	0
29,7	,	68416	,	-28801	,	-27369	,	-15.313665	,	0
29,7	,	68432	,	-28787	,	-27382	,	-10.393795	,	1
29,7	,	68464	,	-28775	,	-27334	,	-2.5218863	,	5
29,7	,	68480	,	-28760	,	-27354	,	7.2338753	,	12
29,7	,	68496	,	-28734	,	-27346	,	17.68727	,	21
29,7	,	68528	,	-28743	,	-27334	,	27.801746	,	31
29,7	,	68544	,	-28742	,	-27359	,	36.515713	,	41
29,7	,	68576	,	-28763	,	-27348	,	42.666462	,	49
29,7	,	68592	,	-28758	,	-27344	,	45.317257	,	55
29,7	,	68608	,	-28753	,	-27340	,	44.225586	,	57
29,7	,	68640	,	-28754	,	-27342	,	39.99276	,	56
29,7	,	68656	,	-28735	,	-27341	,	33.766254	,	52
29,7	,	68672	,	-28736	,	-27338	,	26.879406	,	45
29,7	,	68704	,	-28733	,	-27326	,	20.461111	,	36
29,7	,	68720	,	-28750	,	-27343	,	15.0611925	,	26
29,7	,	68738	,	-28733	,	-27340	,	10.711318	,	16
29,7	,	68768	,	-28742	,	-27330	,	7.325696	,	8
29,7	,	68784	,	-28747	,	-27343	,	4.8039465	,	2
29,7	,	68816	,	-28762	,	-27342	,	2.8344173	,	0
29,7	,	68832	,	-28760	,	-27343	,	0.96989393	,	0
29,7	,	68848	,	-28772	,	-27346	,	-1.0905242	,	0
29,7	,	68879	,	-28769	,	-27353	,	-3.3981524	,	0
29,7	,	68896	,	-28778	,	-27355	,	-5.820884	,	0
29,7	,	68912	,	-28787	,	-27344	,	-8.198749	,	0
29,7	,	68944	,	-28789	,	-27360	,	-10.455158	,	0
29,7	,	68960	,	-28796	,	-27361	,	-12.528788	,	0
29,7	,	68991	,	-28776	,	-27351	,	-14.215656	,	0
29,7	,	69008	,	-28757	,	-27332	,	-15.0009365	,	0
29,7	,	69023	,	-28724	,	-27316	,	-14.074657	,	0
29,7	,	69056	,	-28693	,	-27308	,	-10.603733	,	0
29,7	,	69072	,	-28673	,	-27294	,	-4.10627	,	3
29,7	,	69088	,	-28677	,	-27312	,	5.1038184	,	9
29,7	,	69120	,	-28656	,	-27297	,	15.827024	,	18
29,8	,	69136	,	-28655	,	-27308	,	26.53027	,	28
29,8	,	69152	,	-28650	,	-27278	,	35.86269	,	38
29,8	,	69184	,	-28661	,	-27288	,	42.740467	,	47
29,8	,	69199	,	-28651	,	-27295	,	46.431618	,	53
29,8	,	69231	,	-28650	,	-27285	,	46.793415	,	56
29,8	,	69247	,	-28647	,	-27278	,	44.287327	,	56
29,8	,	69264	,	-28655	,	-27269	,	39.64599	,	53
29,8	,	69296	,	-28638	,	-27276	,	33.650127	,	47
29,8	,	69312	,	-28637	,	-27281	,	27.184786	,	38
29,8	,	69328	,	-28634	,	-27286	,	21.118216	,	28
29,8	,	69359	,	-28624	,	-27278	,	16.054592	,	18
29,8	,	69375	,	-28641	,	-27295	,	12.235236	,	9
29,8	,	69407	,	-28631	,	-27262	,	9.51328	,	3
29,8	,	69423	,	-28650	,	-27295	,	7.5011272	,	0
29,8	,	69439	,	-28662	,	-27289	,	5.693123	,	0
29,8	,	69472	,	-28664	,	-27301	,	3.555984	,	0
29,8	,	69487	,	-28662	,	-27293	,	0.8608959	,	0
29,8	,	69504	,	-28688	,	-27306	,	-2.2878394	,	0
29,8	,	69536	,	-28688	,	-27312	,	-5.801577	,	0
29,8	,	69551	,	-28704	,	-27320	,	-9.63501	,	0
29,8	,	69567	,	-28707	,	-27319	,	-13.62614	,	0
29,8	,	69600	,	-28704	,	-27316	,	-17.446823	,	0
29,8	,	69615	,	-28695	,	-27310	,	-20.552319	,	0
29,8	,	69647	,	-28654	,	-27281	,	-22.124792	,	0
29,8	,	69663	,	-28594	,	-27267	,	-20.94235	,	0
29,8	,	69679	,	-28571	,	-27268	,	-15.658243	,	1
29,8	,	69712	,	-28553	,	-27249	,	-5.7893124	,	6
29,8	,	69729	,	-28559	,	-27247	,	7.6234026	,	15
29,8	,	69744	,	-28541	,	-27244	,	22.42451	,	28
29,8	,	69775	,	-28542	,	-27249	,	36.309807	,	42
29,8	,	69791	,	-28549	,	-27239	,	47.426125	,	55
29,8	,	69823	,	-28538	,	-27240	,	54.53917	,	66
29,8	,	69839	,	-28532	,	-27255	,	57.268814	,	73
29,8	,	69855	,	-28538	,	-27225	,	56.045906	,	75
29,8	,	69888	,	-28538	,	-27252	,	51.645134	,	74
29,8	,	69904	,	-28532	,	-27249	,	44.954773	,	69
29,8	,	69919	,	-28530	,	-27244	,	37.004723	,	60
29,8	,	69952	,	-28537	,	-27243	,	28.791672	,	47
29,8	,	69968	,	-28532	,	-27243	,	21.03726	,	33
29,8	,	69983	,	-28529	,	-27248	,	14.224758	,	20
29,8	,	70015	,	-28531	,	-27256	,	8.693021	,	9
29,8	,	70031	,	-28549	,	-27263	,	4.48435	,	2
29,8	,	70063	,	-28550	,	-27257	,	1.2542682	,	0
29,8	,	70079	,	-28548	,	-27284	,	-1.4027424	,	0
29,8	,	70095	,	-28558	,	-27246	,	-3.6606855	,	0
29,9	,	70127	,	-28590	,	-27284	,	-5.730958	,	0
29,9	,	70143	,	-28593	,	-27279	,	-8.105705	,	0
29,9	,	70159	,	-28600	,	-27288	,	-11.151693	,	0
29,9	,	70191	,	-28613	,	-27290	,	-14.771671	,	0
29,9	,	70207	,	-28602	,	-27267	,	-18.544605	,	0
29,9	,	70239	,	-28591	,	-27283	,	-21.77769	,	0
29,9	,	70255	,	-28545	,	-27274	,	-23.423613	,	0
29,9	,	70271	,	-28534	,	-27262	,	-22.285269	,	0
29,9	,	70303	,	-28487	,	-27245	,	-17.520844	,	1
29,9	,	70319	,	-28488	,	-27252	,	-9.040781	,	5
29,9	,	70335	,	-28479	,	-27251	,	2.285757	,	13
29,9	,	70367	,	-28467	,	-27245	,	14.813898	,	24
29,9	,	70383	,	-28472	,	-27233	,	26.75045	,	36
29,9	,	70399	,	-28463	,	-27239	,	36.593872	,	47
29,9	,	70431	,	-28462	,	-27238	,	43.357826	,	56
29,9	,	70447	,	-28470	,	-27242	,	46.6389	,	62
29,9	,	70479	,	-28486	,	-27241	,	46.37401	,	65
29,9	,	70495	,	-28468	,	-27250	,	42.80176	,	64
29,9	,	70511	,	-28471	,	-27255	,	36.712532	,	60
29,9	,	70543	,	-28483	,	-27260	,	29.222397	,	52
29,9	,	70559	,	-28482	,	-27232	,	21.248892	,	41
29,9	,	70575	,	-28479	,	-27250	,	13.492594	,	29
29,9	,	70607	,	-28492	,	-27258	,	6.5458813	,	18
29,9	,	70623	,	-28508	,	-27258	,	0.65145206	,	9
29,9	,	70655	,	-28508	,	-27265	,	-4.337771	,	3
29,9	,	70671	,	-28516	,	-27276	,	-8.598192	,	0
29,9	,	70687	,	-28532	,	-27268	,	-12.215958	,	0
29,9	,	70719	,	-28523	,	-27283	,	-15.27084	,	0
29,9	,	70735	,	-28542	,	-27288	,	-17.75754	,	0
29,9	,	70751	,	-28557	,	-27295	,	-19.720167	,	0
29,9	,	70783	,	-28557	,	-27318	,	-21.379438	,	0
29,9	,	70799	,	-28578	,	-27297	,	-22.92183	,	0
29,9	,	70815	,	-28588	,	-27311	,	-24.468815	,	0
29,9	,	70847	,	-28576	,	-27305	,	-26.03087	,	0
29,9	,	70863	,	-28553	,	-27300	,	-27.145224	,	0
29,9	,	70895	,	-28523	,	-27285	,	-26.80319	,	0
29,9	,	70911	,	-28520	,	-27287	,	-23.997044	,	0
29,9	,	70927	,	-28507	,	-27284	,	-18.418434	,	2
29,9	,	70959	,	-28499	,	-27285	,	-10.590844	,	7
29,9	,	70975	,	-28494	,	-27283	,	-1.5007381	,	14
29,9	,	70991	,	-28485	,	-27286	,	7.740896	,	23
29,9	,	71023	,	-28502	,	-27289	,	16.043694	,	32
29,9	,	71039	,	-28510	,	-27289	,	22.330809	,	40
29,9	,	71071	,	-28518	,	-27304	,	25.712069	,	46
29,9	,	71087	,	-28514	,	-27295	,	25.879152	,	49
29,9	,	71103	,	-28527	,	-27304	,	23.193121	,	49
29,10	,	71135	,	-28539	,	-27304	,	18.31966	,	47
29,10	,	71151	,	-28536	,	-27317	,	11.964575	,	42
29,10	,	71167	,	-28542	,	-27320	,	4.9425764	,	35
29,10	,	71199	,	-28554	,	-27317	,	-1.9305925	,	26
29,10	,	71215	,	-28555	,	-27331	,	-8.090456	,	17
29,10	,	71231	,	-28561	,	-27331	,	-13.195833	,	9
29,10	,	71263	,	-28573	,	-27321	,	-17.078661	,	3
29,10	,	71279	,	-28589	,	-27340	,	-19.86179	,	0
29,10	,	71311	,	-28609	,	-27351	,	-21.976759	,	0
29,10	,	71327	,	-28616	,	-27357	,	-23.942192	,	0
29,10	,	71343	,	-28624	,	-27360	,	-26.039219	,	0
29,10	,	71375	,	-28654	,	-27375	,	-28.306595	,	0
29,10	,	71391	,	-28658	,	-27384	,	-30.78801	,	0
29,10	,	71407	,	-28670	,	-27388	,	-33.456764	,	0
29,10	,	71439	,	-28676	,	-27403	,	-36.051178	,	0
29,10	,	71455	,	-28697	,	-27400	,	-38.258614	,	0
29,10	,	71487	,	-28708	,	-27422	,	-39.96131	,	0
29,10	,	71503	,	-28689	,	-27370	,	-41.05758	,	0
29,10	,	71519	,	-28662	,	-27390	,	-40.980515	,	0
29,10	,	71551	,	-28644	,	-27379	,	-38.734703	,	0
29,10	,	71566	,	-28644	,	-27386	,	-33.633446	,	2
29,10	,	71583	,	-28646	,	-27388	,	-25.924658	,	7
29,10	,	71615	,	-28641	,	-27391	,	-16.682247	,	14
29,10	,	71631	,	-28652	,	-27380	,	-7.2614994	,	23
29,10	,	71663	,	-28650	,	-27380	,	1.0884829	,	32
29,10	,	71679	,	-28645	,	-27377	,	7.4964967	,	40
29,10	,	71695	,	-28667	,	-27380	,	11.559695	,	46
29,10	,	71727	,	-28679	,	-27403	,	13.07136	,	50
29,10	,	71743	,	-28671	,	-27386	,	12.013528	,	51
29,10	,	71759	,	-28682	,	-27401	,	8.851407	,	49
29,10	,	71791	,	-28684	,	-27410	,	4.383107	,	44
29,10	,	71807	,	-28689	,	-27405	,	-0.61194754	,	37
29,10	,	71823	,	-28699	,	-27409	,	-5.508318	,	28
29,10	,	71855	,	-28713	,	-27419	,	-9.954632	,	19
29,10	,	71871	,	-28726	,	-27417	,	-13.917882	,	11
29,10	,	71903	,	-28744	,	-27416	,	-17.557854	,	5
29,10	,	71919	,	-28744	,	-27425	,	-21.021711	,	1
29,10	,	71934	,	-28756	,	-27446	,	-24.259678	,	0
29,10	,	71967	,	-28756	,	-27426	,	-27.04211	,	0
29,10	,	71983	,	-28779	,	-27447	,	-29.171219	,	0
29,10	,	71999	,	-28797	,	-27455	,	-30.7298	,	0
29,10	,	72031	,	-28813	,	-27466	,	-32.090706	,	0
29,10	,	72047	,	-28837	,	-27469	,	-33.66595	,	0
29,10	,	72078	,	-28846	,	-27471	,	-35.716805	,	0
29,10	,	72094	,	-28853	,	-27475	,	-38.201782	,	0
29,10	,	72110	,	-28848	,	-27494	,	-40.661594	,	0
29,11	,	72143	,	-28875	,	-27495	,	-42.478027	,	0
29,11	,	72159	,	-28875	,	-27497	,	-43.336273	,	0
29,11	,	72175	,	-28860	,	-27510	,	-43.127457	,	0
29,11	,	72207	,	-28842	,	-27455	,	-41.476517	,	0
29,11	,	72222	,	-28829	,	-27478	,	-37.80993	,	1
29,11	,	72238	,	-28834	,	-27482	,	-31.903658	,	4
29,11	,	72270	,	-28835	,	-27473	,	-24.251717	,	9
29,11	,	72286	,	-28830	,	-27476	,	-15.861992	,	16
29,11	,	72319	,	-28840	,	-27484	,	-7.787735	,	24
29,11	,	72335	,	-28836	,	-27488	,	-0.9008589	,	32
29,11	,	72351	,	-28847	,	-27480	,	4.194585	,	38
29,11	,	72383	,	-28867	,	-27488	,	7.1199074	,	43
29,11	,	72399	,	-28857	,	-27491	,	7.6971617	,	45
29,11	,	72414	,	-28866	,	-27506	,	6.176902	,	44
29,11	,	72446	,	-28875	,	-27484	,	3.1687045	,	41
29,11	,	72463	,	-28879	,	-27504	,	-0.72082806	,	36
29,11	,	72494	,	-28891	,	-27500	,	-4.996804	,	29
29,11	,	72510	,	-28884	,	-27504	,	-9.218842	,	21
29,11	,	72526	,	-28899	,	-27511	,	-12.977892	,	13
29,11	,	72558	,	-28914	,	-27499	,	-16.066385	,	7
29,11	,	72574	,	-28908	,	-27514	,	-18.537388	,	2
29,11	,	72590	,	-28929	,	-27512	,	-20.467422	,	0
29,11	,	72623	,	-28931	,	-27515	,	-21.935566	,	0
29,11	,	72638	,	-28945	,	-27530	,	-23.091791	,	0
29,11	,	72654	,	-28957	,	-27516	,	-24.095503	,	0
29,11	,	72686	,	-28963	,	-27541	,	-25.086594	,	0
29,11	,	72702	,	-28987	,	-27545	,	-26.181683	,	0
29,11	,	72734	,	-28998	,	-27546	,	-27.537132	,	0
29,11	,	72750	,	-29002	,	-27554	,	-29.251245	,	0
29,11	,	72766	,	-29017	,	-27557	,	-31.17899	,	0
29,11	,	72798	,	-29029	,	-27563	,	-33.07389	,	0
29,11	,	72814	,	-29039	,	-27564	,	-34.77794	,	0
29,11	,	72830	,	-29022	,	-27567	,	-36.06208	,	0
29,11	,	72862	,	-29022	,	-27554	,	-36.416813	,	0
29,11	,	72878	,	-29005	,	-27559	,	-35.223038	,	0
29,11	,	72910	,	-29002	,	-27526	,	-32.085342	,	1
29,11	,	72927	,	-28969	,	-27545	,	-26.886578	,	4
29,11	,	72942	,	-28994	,	-27540	,	-19.82214	,	9
29,11	,	72974	,	-28988	,	-27544	,	-11.683376	,	16
29,11	,	72990	,	-28997	,	-27541	,	-3.7196426	,	24
29,11	,	73006	,	-28986	,	-27552	,	3.0070057	,	31
29,11	,	73038	,	-29004	,	-27548	,	7.899318	,	37
29,11	,	73054	,	-29012	,	-27546	,	10.621543	,	41
29,11	,	73070	,	-28999	,	-27540	,	11.090452	,	43
29,11	,	73103	,	-29013	,	-27544	,	9.6733	,	42
29,11	,	73119	,	-29010	,	-27563	,	7.0025873	,	39
29,12	,	73150	,	-29014	,	-27535	,	3.6832972	,	34
29,12	,	73166	,	-29024	,	-27558	,	0.20294905	,	27
29,12	,	73182	,	-29021	,	-27552	,	-3.1246758	,	19
29,12	,	73214	,	-29029	,	-27559	,	-6.092104	,	12
29,12	,	73230	,	-29049	,	-27561	,	-8.636122	,	6
29,12	,	73246	,	-29049	,	-27563	,	-10.930251	,	2
29,12	,	73278	,	-29047	,	-27557	,	-13.099304	,	0
29,12	,	73294	,	-29050	,	-27563	,	-14.970747	,	0
29,12	,	73326	,	-29065	,	-27565	,	-16.331997	,	0
29,12	,	73342	,	-29078	,	-27572	,	-17.271404	,	0
29,12	,	73358	,	-29087	,	-27556	,	-18.123268	,	0
29,12	,	73390	,	-29101	,	-27572	,	-19.194942	,	0
29,12	,	73406	,	-29123	,	-27584	,	-20.707928	,	0
29,12	,	73422	,	-29117	,	-27590	,	-22.776035	,	0
29,12	,	73454	,	-29119	,	-27580	,	-25.154743	,	0
29,12	,	73470	,	-29137	,	-27598	,	-27.326578	,	0
29,12	,	73502	,	-29146	,	-27607	,	-28.988958	,	0
29,12	,	73518	,	-29129	,	-27598	,	-30.03251	,	0
29,12	,	73534	,	-29104	,	-27579	,	-30.024576	,	0
29,12	,	73566	,	-29081	,	-27569	,	-28.127129	,	0
29,12	,	73582	,	-29076	,	-27579	,	-23.663708	,	1
29,12	,	73598	,	-29074	,	-27537	,	-16.715324	,	5
29,12	,	73630	,	-29055	,	-27550	,	-8.08805	,	11
29,12	,	73646	,	-29054	,	-27539	,	1.1954613	,	19
29,12	,	73662	,	-29056	,	-27552	,	10.132272	,	28
29,12	,	73694	,	-29045	,	-27553	,	17.785482	,	36
29,12	,	73712	,	-29056	,	-27549	,	23.470026	,	43
29,12	,	73742	,	-29062	,	-27548	,	26.755424	,	48
29,12	,	73758	,	-29066	,	-27555	,	27.418766	,	51
29,12	,	73774	,	-29060	,	-27548	,	25.616646	,	50
29,12	,	73806	,	-29054	,	-27543	,	21.978056	,	46
29,12	,	73822	,	-29072	,	-27549	,	17.332752	,	40
29,12	,	73838	,	-29054	,	-27529	,	12.366141	,	32
29,12	,	73870	,	-29060	,	-27545	,	7.6505337	,	23
29,12	,	73886	,	-29075	,	-27541	,	3.601101	,	15
29,12	,	73918	,	-29057	,	-27543	,	0.3283038	,	8
29,12	,	73934	,	-29070	,	-27541	,	-2.1372123	,	3
29,12	,	73950	,	-29061	,	-27534	,	-3.7519784	,	0
29,12	,	73982	,	-29076	,	-27540	,	-4.615982	,	0
29,12	,	73998	,	-29073	,	-27538	,	-4.983603	,	0
29,12	,	74014	,	-29082	,	-27554	,	-5.1542454	,	0
29,12	,	74046	,	-29091	,	-27561	,	-5.40743	,	0
29,12	,	74062	,	-29090	,	-27535	,	-5.9682627	,	0
29,12	,	74078	,	-29106	,	-27553	,	-6.9376106	,	0
29,12	,	74110	,	-29108	,	-27558	,	-8.33326	,	0
29,12	,	74126	,	-29120	,	-27562	,	-10.133783	,	0
29,13	,	74158	,	-29114	,	-27556	,	-12.197271	,	0
29,13	,	74174	,	-29097	,	-27542	,	-14.111368	,	0
29,13	,	74190	,	-29057	,	-27536	,	-15.016453	,	0
29,13	,	74222	,	-29046	,	-27527	,	-13.789492	,	0
29,13	,	74238	,	-29024	,	-27518	,	-9.700491	,	1
29,13	,	74254	,	-29011	,	-27505	,	-2.8249145	,	5
29,13	,	74286	,	-29004	,	-27507	,	6.071483	,	11
29,13	,	74302	,	-28999	,	-27474	,	15.780184	,	19
29,13	,	74334	,	-28993	,	-27498	,	24.96703	,	28
29,13	,	74350	,	-28983	,	-27482	,	32.54697	,	37
29,13	,	74366	,	-28984	,	-27484	,	37.874603	,	44
29,13	,	74398	,	-28983	,	-27490	,	40.674408	,	49
29,13	,	74414	,	-28976	,	-27481	,	40.966377	,	51
29,13	,	74430	,	-28982	,	-27480	,	39.05699	,	50
29,13	,	74462	,	-28982	,	-27476	,	35.396713	,	46
29,13	,	74478	,	-28985	,	-27464	,	30.455597	,	40
29,13	,	74493	,	-28975	,	-27478	,	24.781742	,	32
29,13	,	74526	,	-28974	,	-27483	,	19.046064	,	23
29,13	,	74542	,	-28980	,	-27451	,	13.848653	,	14
29,13	,	74574	,	-28983	,	-27463	,	9.461637	,	7
29,13	,	74590	,	-28975	,	-27471	,	5.904626	,	2
29,13	,	74606	,	-28982	,	-27479	,	3.171905	,	0
29,13	,	74638	,	-28973	,	-27474	,	1.2544026	,	0
29,13	,	74654	,	-28997	,	-27470	,	0.0065336227	,	0
29,13	,	74669	,	-28991	,	-27480	,	-0.9322282	,	0
29,13	,	74701	,	-29017	,	-27483	,	-2.0134454	,	0
29,13	,	74718	,	-29024	,	-27478	,	-3.659028	,	0
29,13	,	74750	,	-29017	,	-27497	,	-6.0730267	,	0
29,13	,	74766	,	-29031	,	-27486	,	-9.026597	,	0
29,13	,	74781	,	-29012	,	-27489	,	-11.997205	,	0
29,13	,	74814	,	-28985	,	-27471	,	-14.212893	,	0
29,13	,	74830	,	-28968	,	-27460	,	-14.639494	,	0
29,13	,	74846	,	-28933	,	-27451	,	-12.363192	,	0
29,13	,	74878	,	-28933	,	-27429	,	-7.0241075	,	2
29,13	,	74894	,	-28909	,	-27428	,	0.9589915	,	7
29,13	,	74909	,	-28893	,	-27410	,	10.610987	,	14
29,13	,	74941	,	-28884	,	-27409	,	20.840218	,	23
29,13	,	74957	,	-28881	,	-27408	,	30.542631	,	33
29,13	,	74990	,	-28862	,	-27418	,	38.708435	,	42
29,13	,	75006	,	-28869	,	-27388	,	44.658844	,	50
29,13	,	75022	,	-28868	,	-27399	,	47.99588	,	55
29,13	,	75054	,	-28856	,	-27396	,	48.57749	,	58
29,13	,	75069	,	-28868	,	-27405	,	46.638683	,	56
29,13	,	75085	,	-28873	,	-27392	,	42.588165	,	51
29,13	,	75117	,	-28870	,	-27396	,	36.837486	,	44
29,14	,	75133	,	-28853	,	-27385	,	30.037468	,	35
29,14	,	75165	,	-28861	,	-27388	,	23.116081	,	25
29,14	,	75182	,	-28839	,	-27387	,	16.94608	,	16
29,14	,	75198	,	-28855	,	-27383	,	12.101733	,	8
29,14	,	75230	,	-28838	,	-27398	,	8.768676	,	3
29,14	,	75246	,	-28840	,	-27380	,	6.850461	,	0
29,14	,	75261	,	-28855	,	-27392	,	6.0517616	,	0
29,14	,	75293	,	-28866	,	-27386	,	5.7437897	,	0
29,14	,	75309	,	-28875	,	-27400	,	5.1259575	,	0
29,14	,	75325	,	-28873	,	-27400	,	3.6735644	,	0
29,14	,	75357	,	-28890	,	-27413	,	1.2980721	,	0
29,14	,	75373	,	-28885	,	-27403	,	-1.8136706	,	0
29,14	,	75405	,	-28907	,	-27405	,	-5.376044	,	0
29,14	,	75421	,	-28911	,	-27411	,	-9.158117	,	0
29,14	,	75437	,	-28882	,	-27402	,	-12.823937	,	0
29,14	,	75469	,	-28861	,	-27372	,	-15.516325	,	0
29,14	,	75485	,	-28824	,	-27373	,	-15.981064	,	0
29,14	,	75501	,	-28775	,	-27357	,	-13.025668	,	0
29,14	,	75533	,	-28753	,	-27337	,	-5.895112	,	2
29,14	,	75549	,	-28766	,	-27329	,	5.0789585	,	9
29,14	,	75581	,	-28743	,	-27334	,	18.213518	,	19
29,14	,	75597	,	-28728	,	-27329	,	31.388474	,	32
29,14	,	75613	,	-28723	,	-27322	,	42.977448	,	45
29,14	,	75645	,	-28727	,	-27329	,	51.84473	,	56
29,14	,	75661	,	-28741	,	-27319	,	57.101154	,	64
29,14	,	75677	,	-28721	,	-27333	,	58.271458	,	69
29,14	,	75709	,	-28734	,	-27304	,	55.604435	,	70
29,14	,	75725	,	-28734	,	-27308	,	49.88002	,	68
29,14	,	75741	,	-28707	,	-27313	,	42.15713	,	61
29,14	,	75773	,	-28723	,	-27312	,	33.74105	,	51
29,14	,	75789	,	-28716	,	-27313	,	25.73087	,	38
29,14	,	75821	,	-28715	,	-27306	,	18.716032	,	25
29,14	,	75837	,	-28716	,	-27304	,	12.982579	,	14
29,14	,	75853	,	-28715	,	-27311	,	8.60873	,	6
29,14	,	75885	,	-28724	,	-27318	,	5.4518175	,	1
29,14	,	75901	,	-28721	,	-27309	,	3.2123017	,	0
29,14	,	75917	,	-28727	,	-27322	,	1.5741959	,	0
29,14	,	75949	,	-28743	,	-27296	,	0.22819781	,	0
29,14	,	75965	,	-28770	,	-27334	,	-1.3205289	,	0
29,14	,	75997	,	-28760	,	-27331	,	-3.6272326	,	0
29,14	,	76013	,	-28763	,	-27334	,	-6.7661934	,	0
29,14	,	76029	,	-28768	,	-27334	,	-10.2462435	,	0
29,14	,	76061	,	-28758	,	-27341	,	-13.423162	,	0
29,14	,	76077	,	-28738	,	-27325	,	-15.609063	,	0
29,14	,	76093	,	-28681	,	-27303	,	-15.841525	,	0
29,15	,	76125	,	-28659	,	-27297	,	-12.920926	,	0
29,15	,	76141	,	-28637	,	-27282	,	-6.115543	,	2
29,15	,	76173	,	-28634	,	-27271	,	4.136147	,	8
29,15	,	76189	,	-28617	,	-27268	,	16.370415	,	18
29,15	,	76205	,	-28590	,	-27269	,	28.88933	,	30
29,15	,	76237	,	-28585	,	-27268	,	40.383934	,	42
29,15	,	76253	,	-28581	,	-27269	,	49.883835	,	53
29,15	,	76269	,	-28593	,	-27270	,	56.498844	,	62
29,15	,	76301	,	-28601	,	-27258	,	59.44567	,	68
29,15	,	76317	,	-28592	,	-27261	,	58.36783	,	70
29,15	,	76333	,	-28584	,	-27255	,	53.71138	,	68
29,15	,	76365	,	-28585	,	-27265	,	46.60653	,	62
29,15	,	76381	,	-28580	,	-27263	,	38.332237	,	52
29,15	,	76413	,	-28588	,	-27243	,	29.931292	,	40
29,15	,	76429	,	-28583	,	-27261	,	22.09109	,	28
29,15	,	76445	,	-28592	,	-27272	,	15.191923	,	17
29,15	,	76477	,	-28602	,	-27272	,	9.336981	,	8
29,15	,	76493	,	-28603	,	-27264	,	4.389903	,	2
29,15	,	76509	,	-28605	,	-27286	,	0.19652557	,	0
29,15	,	76541	,	-28621	,	-27277	,	-3.3354158	,	0
29,15	,	76557	,	-28631	,	-27275	,	-6.4057045	,	0
29,15	,	76589	,	-28625	,	-27294	,	-9.236017	,	0
29,15	,	76605	,	-28640	,	-27295	,	-11.8380575	,	0
29,15	,	76621	,	-28652	,	-27311	,	-14.169363	,	0
29,15	,	76653	,	-28650	,	-27292	,	-16.283848	,	0
29,15	,	76669	,	-28667	,	-27297	,	-18.190079	,	0
29,15	,	76685	,	-28632	,	-27284	,	-19.689054	,	0
29,15	,	76717	,	-28581	,	-27267	,	-19.98231	,	0
29,15	,	76733	,	-28567	,	-27263	,	-17.696651	,	0
29,15	,	76749	,	-28535	,	-27252	,	-11.861589	,	2
29,15	,	76781	,	-28526	,	-27251	,	-2.572979	,	7
29,15	,	76797	,	-28523	,	-27245	,	9.095894	,	16
29,15	,	76829	,	-28506	,	-27239	,	21.475166	,	27
29,15	,	76845	,	-28490	,	-27238	,	32.974316	,	39
29,15	,	76861	,	-28494	,	-27227	,	42.47843	,	50
29,15	,	76893	,	-28497	,	-27241	,	49.167946	,	59
29,15	,	76909	,	-28506	,	-27242	,	52.401543	,	65
29,15	,	76925	,	-28520	,	-27252	,	51.83428	,	68
29,15	,	76957	,	-28522	,	-27243	,	47.548386	,	66
29,15	,	76973	,	-28515	,	-27244	,	40.214935	,	61
29,15	,	77005	,	-28505	,	-27242	,	31.114134	,	52
29,15	,	77021	,	-28509	,	-27248	,	21.757504	,	41
29,15	,	77037	,	-28529	,	-27257	,	13.24465	,	29
29,15	,	77068	,	-28520	,	-27251	,	5.9910564	,	18
29,15	,	77085	,	-28534	,	-27266	,	0.058211327	,	9
29,15	,	77101	,	-28534	,	-27250	,	-4.5953407	,	3
29,16	,	77133	,	-28535	,	-27268	,	-8.080306	,	0
29,16	,	77149	,	-28563	,	-27281	,	-10.608979	,	0
29,16	,	77165	,	-28574	,	-27289	,	-12.666712	,	0
29,16	,	77197	,	-28592	,	-27289	,	-14.883265	,	0
29,16	,	77213	,	-28606	,	-27300	,	-17.679903	,	0
29,16	,	77245	,	-28608	,	-27312	,	-21.109505	,	0
29,16	,	77261	,	-28629	,	-27310	,	-24.895844	,	0
29,16	,	77277	,	-28626	,	-27319	,	-28.629402	,	0
29,16	,	77309	,	-28605	,	-27299	,	-31.72734	,	0
29,16	,	77325	,	-28582	,	-27299	,	-33.226723	,	0
29,16	,	77341	,	-28564	,	-27256	,	-32.053593	,	0
29,16	,	77373	,	-28536	,	-27276	,	-27.538483	,	1
29,16	,	77389	,	-28527	,	-27271	,	-19.664478	,	5
29,16	,	77420	,	-28524	,	-27271	,	-9.175646	,	12
29,16	,	77436	,	-28514	,	-27273	,	2.5387964	,	22
29,16	,	77453	,	-28509	,	-27261	,	13.947374	,	33
29,16	,	77485	,	-28508	,	-27265	,	23.791788	,	44
29,16	,	77501	,	-28512	,	-27271	,	31.151854	,	53
29,16	,	77517	,	-28532	,	-27281	,	35.363342	,	60
29,16	,	77549	,	-28526	,	-27283	,	36.060234	,	64
29,16	,	77565	,	-28538	,	-27278	,	33.40077	,	63
29,16	,	77581	,	-28539	,	-27283	,	28.05943	,	59
29,16	,	77612	,	-28539	,	-27286	,	20.98632	,	52
29,16	,	77628	,	-28547	,	-27290	,	13.211416	,	42
29,16	,	77661	,	-28553	,	-27292	,	5.6008635	,	31
29,16	,	77677	,	-28552	,	-27297	,	-1.2513342	,	20
29,16	,	77693	,	-28567	,	-27302	,	-6.9724774	,	11
29,16	,	77725	,	-28575	,	-27313	,	-11.479443	,	4
29,16	,	77741	,	-28597	,	-27312	,	-15.024233	,	0
29,16	,	77756	,	-28597	,	-27324	,	-18.006645	,	0
29,16	,	77788	,	-28627	,	-27330	,	-20.76001	,	0
29,16	,	77804	,	-28636	,	-27322	,	-23.568073	,	0
29,16	,	77837	,	-28642	,	-27339	,	-26.59905	,	0
29,16	,	77853	,	-28667	,	-27353	,	-29.777573	,	0
29,16	,	77868	,	-28676	,	-27355	,	-32.96827	,	0
29,16	,	77901	,	-28680	,	-27364	,	-36.01711	,	0
29,16	,	77916	,	-28678	,	-27358	,	-38.542458	,	0
29,16	,	77948	,	-28664	,	-27347	,	-39.919773	,	0
29,16	,	77964	,	-28649	,	-27349	,	-39.424026	,	0
29,16	,	77980	,	-28630	,	-27342	,	-36.44194	,	0
29,16	,	78012	,	-28622	,	-27343	,	-30.73218	,	2
29,16	,	78029	,	-28614	,	-27366	,	-22.613327	,	7
29,16	,	78044	,	-28622	,	-27319	,	-12.996304	,	15
29,16	,	78077	,	-28613	,	-27343	,	-3.1622124	,	24
29,16	,	78093	,	-28629	,	-27343	,	5.6180925	,	33
29,16	,	78124	,	-28636	,	-27350	,	12.29041	,	41
29,17	,	78140	,	-28652	,	-27349	,	16.091467	,	47
29,17	,	78156	,	-28645	,	-27359	,	16.745787	,	50
29,17	,	78188	,	-28665	,	-27360	,	14.560937	,	50
29,17	,	78204	,	-28664	,	-27359	,	10.199197	,	48
29,17	,	78220	,	-28666	,	-27368	,	4.491134	,	43
29,17	,	78252	,	-28671	,	-27347	,	-1.6247826	,	35
29,17	,	78268	,	-28679	,	-27373	,	-7.3362665	,	26
29,17	,	78300	,	-28699	,	-27372	,	-12.2287655	,	17
29,17	,	78316	,	-28709	,	-27387	,	-16.33201	,	9
29,17	,	78332	,	-28722	,	-27389	,	-19.894325	,	3
29,17	,	78364	,	-28734	,	-27395	,	-23.123306	,	0
29,17	,	78381	,	-28738	,	-27407	,	-26.08194	,	0
29,17	,	78396	,	-28753	,	-27409	,	-28.693409	,	0
29,17	,	78428	,	-28764	,	-27420	,	-30.875557	,	0
29,17	,	78444	,	-28774	,	-27422	,	-32.63176	,	0
29,17	,	78460	,	-28786	,	-27440	,	-33.99292	,	0
29,17	,	78492	,	-28797	,	-27434	,	-34.992966	,	0
29,17	,	78509	,	-28824	,	-27444	,	-35.761154	,	0
29,17	,	78540	,	-28831	,	-27451	,	-36.561016	,	0
29,17	,	78556	,	-28831	,	-27445	,	-37.517555	,	0
29,17	,	78572	,	-28800	,	-27428	,	-38.199722	,	0
29,17	,	78604	,	-28792	,	-27433	,	-37.61838	,	0
29,17	,	78620	,	-28773	,	-27422	,	-34.7965	,	0
29,17	,	78636	,	-28795	,	-27432	,	-29.458313	,	2
29,17	,	78668	,	-28788	,	-27417	,	-22.292664	,	7
29,17	,	78684	,	-28784	,	-27443	,	-14.480543	,	14
29,17	,	78716	,	-28794	,	-27404	,	-7.061262	,	21
29,17	,	78732	,	-28793	,	-27435	,	-0.82297325	,	28
29,17	,	78748	,	-28807	,	-27434	,	3.64999	,	34
29,17	,	78780	,	-28815	,	-27434	,	6.002823	,	38
29,17	,	78796	,	-28811	,	-27442	,	6.1860104	,	40
29,17	,	78812	,	-28827	,	-27440	,	4.5213737	,	40
29,17	,	78844	,	-28827	,	-27447	,	1.5178566	,	38
29,17	,	78860	,	-28831	,	-27444	,	-2.2686033	,	33
29,17	,	78876	,	-28826	,	-27448	,	-6.197489	,	26
29,17	,	78908	,	-28842	,	-27457	,	-9.684482	,	19
29,17	,	78924	,	-28850	,	-27472	,	-12.47937	,	12
29,17	,	78956	,	-28881	,	-27444	,	-14.789091	,	6
29,17	,	78972	,	-28895	,	-27470	,	-17.16351	,	2
29,17	,	78988	,	-28899	,	-27478	,	-20.07734	,	0
29,17	,	79020	,	-28894	,	-27485	,	-23.44516	,	0
29,17	,	79036	,	-28906	,	-27491	,	-26.674185	,	0
29,17	,	79052	,	-28920	,	-27496	,	-29.226921	,	0
29,17	,	79084	,	-28937	,	-27489	,	-31.004925	,	0
29,17	,	79100	,	-28946	,	-27501	,	-32.23443	,	0
29,18	,	79132	,	-28957	,	-27501	,	-33.159508	,	0
29,18	,	79148	,	-28974	,	-27514	,	-33.933666	,	0
29,18	,	79164	,	-28986	,	-27504	,	-34.693165	,	0
29,18	,	79196	,	-28990	,	-27512	,	-35.508694	,	0
29,18	,	79212	,	-28977	,	-27514	,	-36.161972	,	0
29,18	,	79228	,	-28968	,	-27512	,	-36.05429	,	0
29,18	,	79260	,	-28947	,	-27502	,	-34.42109	,	0
29,18	,	79276	,	-28944	,	-27498	,	-30.692484	,	1
29,18	,	79308	,	-28950	,	-27507	,	-24.882586	,	4
29,18	,	79324	,	-28946	,	-27505	,	-17.71222	,	9
29,18	,	79340	,	-28952	,	-27495	,	-10.237183	,	16
29,18	,	79372	,	-28938	,	-27504	,	-3.3670578	,	23
29,18	,	79388	,	-28960	,	-27513	,	2.290738	,	29
29,18	,	79404	,	-28956	,	-27483	,	6.2836175	,	34
29,18	,	79436	,	-28957	,	-27513	,	8.357721	,	37
29,18	,	79452	,	-28970	,	-27502	,	8.597916	,	39
29,18	,	79468	,	-28973	,	-27505	,	7.2511845	,	38
29,18	,	79500	,	-28978	,	-27506	,	4.6273317	,	35
29,18	,	79516	,	-28975	,	-27509	,	1.196383	,	30
29,18	,	79548	,	-28983	,	-27514	,	-2.4696343	,	23
29,18	,	79564	,	-28978	,	-27516	,	-5.8636713	,	16
29,18	,	79580	,	-28994	,	-27507	,	-8.659014	,	10
29,18	,	79612	,	-29003	,	-27525	,	-10.823823	,	5
29,18	,	79628	,	-29017	,	-27534	,	-12.622349	,	2
29,18	,	79644	,	-29020	,	-27518	,	-14.371698	,	0
29,18	,	79676	,	-29025	,	-27534	,	-16.18666	,	0
29,18	,	79693	,	-29044	,	-27531	,	-18.021797	,	0
29,18	,	79724	,	-29048	,	-27536	,	-19.87736	,	0
29,18	,	79740	,	-29065	,	-27535	,	-21.798674	,	0
29,18	,	79756	,	-29058	,	-27547	,	-23.72671	,	0
29,18	,	79787	,	-29077	,	-27542	,	-25.459442	,	0
29,18	,	79803	,	-29092	,	-27560	,	-26.872118	,	0
29,18	,	79820	,	-29103	,	-27567	,	-28.095604	,	0
29,18	,	79852	,	-29099	,	-27566	,	-29.254986	,	0
29,18	,	79868	,	-29103	,	-27552	,	-30.176235	,	0
29,18	,	79884	,	-29086	,	-27553	,	-30.422756	,	0
29,18	,	79916	,	-29057	,	-27537	,	-29.338413	,	0
29,18	,	79932	,	-29046	,	-27543	,	-26.162762	,	1
29,18	,	79963	,	-29048	,	-27534	,	-20.569715	,	4
29,18	,	79980	,	-29033	,	-27535	,	-13.024923	,	9
29,18	,	79996	,	-29040	,	-27529	,	-4.499754	,	16
29,18	,	80028	,	-29038	,	-27532	,	3.8734818	,	24
29,18	,	80043	,	-29030	,	-27533	,	11.078718	,	32
29,18	,	80060	,	-29043	,	-27529	,	16.461306	,	39
29,18	,	80092	,	-29052	,	-27553	,	19.614172	,	44
29,18	,	80108	,	-29031	,	-27514	,	20.391272	,	47
29,19	,	80140	,	-29047	,	-27538	,	19.150194	,	46
29,19	,	80156	,	-29038	,	-27531	,	16.531242	,	43
29,19	,	80172	,	-29053	,	-27536	,	13.091774	,	38
29,19	,	80203	,	-29044	,	-27527	,	9.261461	,	31
29,19	,	80219	,	-29048	,	-27531	,	5.433901	,	23
29,19	,	80236	,	-29052	,	-27535	,	1.9663672	,	15
29,19	,	80268	,	-29055	,	-27532	,	-0.9447384	,	8
29,19	,	80284	,	-29056	,	-27533	,	-3.2638874	,	3
29,19	,	80299	,	-29060	,	-27535	,	-5.0169845	,	0
29,19	,	80331	,	-29072	,	-27547	,	-6.3138456	,	0
29,19	,	80347	,	-29078	,	-27530	,	-7.3961306	,	0
29,19	,	80380	,	-29085	,	-27545	,	-8.531948	,	0
29,19	,	80396	,	-29103	,	-27546	,	-9.923446	,	0
29,19	,	80412	,	-29110	,	-27549	,	-11.747438	,	0
29,19	,	80444	,	-29113	,	-27547	,	-14.058483	,	0
29,19	,	80460	,	-29118	,	-27550	,	-16.640139	,	0
29,19	,	80476	,	-29134	,	-27555	,	-19.168179	,	0
29,19	,	80508	,	-29138	,	-27558	,	-21.461164	,	0
29,19	,	80524	,	-29116	,	-27538	,	-23.302553	,	0
29,19	,	80555	,	-29092	,	-27527	,	-24.053741	,	0
29,19	,	80571	,	-29070	,	-27512	,	-22.758282	,	0
29,19	,	80587	,	-29056	,	-27519	,	-18.713203	,	1
29,19	,	80620	,	-29035	,	-27511	,	-11.860902	,	5
29,19	,	80636	,	-29016	,	-27501	,	-2.7112465	,	11
29,19	,	80652	,	-29025	,	-27501	,	7.7965183	,	20
29,19	,	80683	,	-29020	,	-27498	,	18.297419	,	30
29,19	,	80699	,	-29011	,	-27492	,	27.363739	,	40
29,19	,	80715	,	-29011	,	-27496	,	34.039574	,	49
29,19	,	80747	,	-29022	,	-27490	,	37.858246	,	55
29,19	,	80763	,	-29010	,	-27498	,	38.68537	,	58
29,19	,	80795	,	-29023	,	-27510	,	36.77896	,	57
29,19	,	80811	,	-29013	,	-27475	,	32.72458	,	53
29,19	,	80827	,	-29014	,	-27494	,	27.290165	,	47
29,19	,	80859	,	-29023	,	-27492	,	21.265837	,	38
29,19	,	80876	,	-29018	,	-27479	,	15.247734	,	28
29,19	,	80891	,	-29012	,	-27485	,	9.699796	,	18
29,19	,	80923	,	-29015	,	-27492	,	5.0649815	,	9
29,19	,	80939	,	-29016	,	-27496	,	1.6006074	,	3
29,19	,	80971	,	-29028	,	-27488	,	-0.7618923	,	0
29,19	,	80987	,	-29027	,	-27496	,	-2.3398097	,	0
29,19	,	81004	,	-29026	,	-27493	,	-3.453653	,	0
29,19	,	81035	,	-29036	,	-27510	,	-4.285917	,	0
29,19	,	81051	,	-29041	,	-27480	,	-5.0030775	,	0
29,19	,	81067	,	-29054	,	-27499	,	-5.843586	,	0
29,19	,	81099	,	-29061	,	-27501	,	-7.0463424	,	0
29,19	,	81115	,	-29086	,	-27506	,	-8.827441	,	0
29,20	,	81131	,	-29073	,	-27500	,	-11.301481	,	0
29,20	,	81163	,	-29046	,	-27497	,	-14.059147	,	0
29,20	,	81179	,	-29010	,	-27483	,	-15.889654	,	0
29,20	,	81211	,	-28995	,	-27466	,	-15.307308	,	0
29,20	,	81227	,	-28967	,	-27456	,	-11.394983	,	0
29,20	,	81243	,	-28961	,	-27457	,	-4.1757197	,	3
29,20	,	81275	,	-28945	,	-27445	,	5.4933496	,	10
29,20	,	81291	,	-28944	,	-27436	,	16.239847	,	19
29,20	,	81307	,	-28926	,	-27432	,	26.608667	,	29
29,20	,	81339	,	-28920	,	-27424	,	35.463528	,	39
29,20	,	81355	,	-28925	,	-27435	,	42.064636	,	47
29,20	,	81387	,	-28931	,	-27438	,	45.867935	,	53
29,20	,	81403	,	-28921	,	-27430	,	46.577885	,	56
29,20	,	81419	,	-28914	,	-27432	,	44.45262	,	56
29,20	,	81451	,	-28921	,	-27420	,	40.227707	,	53
29,20	,	81467	,	-28895	,	-27420	,	34.792297	,	46
29,20	,	81483	,	-28912	,	-27420	,	29.034365	,	37
29,20	,	81515	,	-28915	,	-27397	,	23.541265	,	27
29,20	,	81531	,	-28896	,	-27416	,	18.535978	,	17
29,20	,	81563	,	-28908	,	-27416	,	14.233317	,	9
29,20	,	81579	,	-28914	,	-27411	,	10.74187	,	3
29,20	,	81595	,	-28923	,	-27413	,	7.82288	,	0
29,20	,	81627	,	-28935	,	-27416	,	5.066405	,	0
29,20	,	81643	,	-28921	,	-27418	,	2.2086291	,	0
29,20	,	81659	,	-28927	,	-27417	,	-0.6379421	,	0
29,20	,	81691	,	-28941	,	-27420	,	-3.210272	,	0
29,20	,	81707	,	-28936	,	-27421	,	-5.445451	,	0
29,20	,	81723	,	-28950	,	-27444	,	-7.3905354	,	0
29,20	,	81755	,	-28953	,	-27415	,	-9.103423	,	0
29,20	,	81771	,	-28957	,	-27428	,	-10.6590805	,	0
29,20	,	81803	,	-28933	,	-27408	,	-11.927831	,	0
29,20	,	81819	,	-28886	,	-27392	,	-12.216933	,	0
29,20	,	81835	,	-28869	,	-27381	,	-10.347427	,	0
29,20	,	81867	,	-28842	,	-27373	,	-5.4299273	,	1
29,20	,	81883	,	-28826	,	-27371	,	2.5461516	,	5
29,20	,	81899	,	-28817	,	-27364	,	12.7693205	,	12
29,20	,	81931	,	-28821	,	-27355	,	23.81795	,	22
29,20	,	81947	,	-28802	,	-27348	,	34.0575	,	33
29,20	,	81979	,	-28785	,	-27354	,	42.307404	,	43
29,20	,	81995	,	-28801	,	-27346	,	48.02004	,	51
29,20	,	82011	,	-28784	,	-27344	,	50.912888	,	56
29,20	,	82043	,	-28796	,	-27349	,	50.912846	,	58
29,20	,	82059	,	-28783	,	-27345	,	48.28708	,	57
29,20	,	82075	,	-28787	,	-27331	,	43.605034	,	53
29,20	,	82107	,	-28766	,	-27337	,	37.696045	,	46
29,20	,	82123	,	-28777	,	-27332	,	31.48443	,	36
29,21	,	82139	,	-28768	,	-27321	,	25.66492	,	25
29,21	,	82171	,	-28753	,	-27330	,	20.666643	,	15
29,21	,	82187	,	-28780	,	-27334	,	16.721203	,	7
29,21	,	82219	,	-28772	,	-27309	,	13.645168	,	2
29,21	,	82235	,	-28780	,	-27330	,	10.988862	,	0
29,21	,	82251	,	-28780	,	-27337	,	8.456305	,	0
29,21	,	82283	,	-28784	,	-27336	,	5.944926	,	0
29,21	,	82299	,	-28798	,	-27336	,	3.3928075	,	0
29,21	,	82315	,	-28802	,	-27343	,	0.67997575	,	0
29,21	,	82347	,	-28796	,	-27341	,	-2.2223046	,	0
29,21	,	82363	,	-28809	,	-27341	,	-5.1075644	,	0
29,21	,	82395	,	-28819	,	-27347	,	-7.7869415	,	0
29,21	,	82411	,	-28811	,	-27337	,	-10.211276	,	0
29,21	,	82427	,	-28783	,	-27358	,	-12.081979	,	0
29,21	,	82459	,	-28752	,	-27296	,	-12.567498	,	0
29,21	,	82475	,	-28705	,	-27293	,	-10.521278	,	0
29,21	,	82491	,	-28690	,	-27283	,	-5.029266	,	2
29,21	,	82523	,	-28678	,	-27276	,	3.922162	,	7
29,21	,	82539	,	-28652	,	-27280	,	15.315245	,	15
29,21	,	82555	,	-28652	,	-27269	,	27.64214	,	26
29,21	,	82587	,	-28644	,	-27266	,	39.29733	,	38
29,21	,	82603	,	-28639	,	-27267	,	48.81149	,	49
29,21	,	82635	,	-28646	,	-27268	,	55.138214	,	58
29,21	,	82651	,	-28634	,	-27259	,	57.77343	,	64
29,21	,	82667	,	-28634	,	-27262	,	56.821648	,	66
29,21	,	82699	,	-28633	,	-27260	,	52.89926	,	64
29,21	,	82715	,	-28629	,	-27253	,	46.850777	,	59
29,21	,	82731	,	-28621	,	-27245	,	39.61785	,	51
29,21	,	82763	,	-28631	,	-27254	,	32.105236	,	40
29,21	,	82779	,	-28622	,	-27247	,	24.958416	,	28
29,21	,	82811	,	-28617	,	-27252	,	18.618832	,	17
29,21	,	82827	,	-28626	,	-27263	,	13.411553	,	8
29,21	,	82843	,	-28630	,	-27259	,	9.363647	,	2
29,21	,	82875	,	-28627	,	-27268	,	6.232688	,	0
29,21	,	82890	,	-28642	,	-27276	,	3.7292914	,	0
29,21	,	82907	,	-28649	,	-27257	,	1.5138817	,	0
29,21	,	82939	,	-28668	,	-27276	,	-0.83137465	,	0
29,21	,	82955	,	-28665	,	-27282	,	-3.6280308	,	0
29,21	,	82971	,	-28679	,	-27293	,	-6.906155	,	0
29,21	,	83003	,	-28683	,	-27293	,	-10.459299	,	0
29,21	,	83018	,	-28668	,	-27294	,	-13.909704	,	0
29,21	,	83050	,	-28662	,	-27280	,	-16.610462	,	0
29,21	,	83066	,	-28615	,	-27267	,	-17.655483	,	0
29,21	,	83082	,	-28592	,	-27248	,	-16.005798	,	0
29,21	,	83115	,	-28575	,	-27234	,	-10.941236	,	1
29,22	,	83131	,	-28549	,	-27244	,	-2.5730534	,	6
29,22	,	83147	,	-28535	,	-27221	,	8.257343	,	14
29,22	,	83179	,	-28522	,	-27225	,	20.314775	,	24
29,22	,	83194	,	-28506	,	-27219	,	32.22262	,	36
29,22	,	83226	,	-28512	,	-27225	,	42.690453	,	47
29,22	,	83243	,	-28518	,	-27231	,	50.54599	,	57
29,22	,	83258	,	-28512	,	-27223	,	54.869064	,	64
29,22	,	83291	,	-28515	,	-27210	,	55.34254	,	68
29,22	,	83307	,	-28520	,	-27225	,	52.27831	,	67
29,22	,	83323	,	-28510	,	-27220	,	46.40036	,	62
29,22	,	83354	,	-28506	,	-27232	,	38.768337	,	54
29,22	,	83370	,	-28516	,	-27234	,	30.53157	,	44
29,22	,	83402	,	-28515	,	-27225	,	22.531467	,	32
29,22	,	83418	,	-28532	,	-27234	,	15.184517	,	21
29,22	,	83434	,	-28526	,	-27238	,	8.6136465	,	11
29,22	,	83466	,	-28531	,	-27244	,	2.8908653	,	4
29,22	,	83483	,	-28542	,	-27252	,	-1.8910627	,	0
29,22	,	83498	,	-28540	,	-27252	,	-5.747425	,	0
29,22	,	83530	,	-28550	,	-27254	,	-8.767925	,	0
29,22	,	83547	,	-28566	,	-27271	,	-11.121616	,	0
29,22	,	83563	,	-28580	,	-27265	,	-13.166183	,	0
29,22	,	83594	,	-28586	,	-27284	,	-15.290342	,	0
29,22	,	83610	,	-28610	,	-27259	,	-17.720165	,	0
29,22	,	83642	,	-28607	,	-27281	,	-20.51861	,	0
29,22	,	83658	,	-28580	,	-27272	,	-23.340893	,	0
29,22	,	83676	,	-28549	,	-27258	,	-25.117506	,	0
29,22	,	83706	,	-28534	,	-27251	,	-24.45732	,	0
29,22	,	83722	,	-28505	,	-27249	,	-20.451563	,	0
29,22	,	83738	,	-28497	,	-27244	,	-13.033452	,	4
29,22	,	83771	,	-28490	,	-27243	,	-2.9733086	,	11
29,22	,	83786	,	-28482	,	-27240	,	8.329046	,	21
29,22	,	83818	,	-28486	,	-27237	,	19.277939	,	32
29,22	,	83834	,	-28477	,	-27261	,	28.47805	,	42
29,22	,	83850	,	-28484	,	-27224	,	34.97868	,	51
29,22	,	83883	,	-28490	,	-27237	,	38.28723	,	57
29,22	,	83898	,	-28509	,	-27247	,	38.207314	,	60
29,22	,	83914	,	-28487	,	-27244	,	34.9321	,	60
29,22	,	83946	,	-28497	,	-27245	,	29.2802	,	56
29,22	,	83962	,	-28504	,	-27248	,	22.377317	,	49
29,22	,	83978	,	-28505	,	-27256	,	15.120161	,	39
29,22	,	84010	,	-28515	,	-27265	,	8.11507	,	28
29,22	,	84026	,	-28514	,	-27265	,	1.7809658	,	18
29,22	,	84058	,	-28526	,	-27269	,	-3.6283865	,	9
29,22	,	84074	,	-28537	,	-27277	,	-8.065333	,	3
29,22	,	84090	,	-28544	,	-27280	,	-11.695082	,	0
29,22	,	84122	,	-28564	,	-27299	,	-14.779623	,	0
29,23	,	84138	,	-28578	,	-27305	,	-17.637482	,	0
29,23	,	84154	,	-28588	,	-27312	,	-20.564474	,	0
29,23	,	84186	,	-28592	,	-27308	,	-23.618546	,	0
29,23	,	84202	,	-28618	,	-27322	,	-26.655178	,	0
29,23	,	84234	,	-28625	,	-27326	,	-29.594246	,	0
29,23	,	84250	,	-28648	,	-27337	,	-32.46632	,	0
29,23	,	84266	,	-28643	,	-27340	,	-35.226646	,	0
29,23	,	84298	,	-28627	,	-27345	,	-37.47291	,	0
29,23	,	84314	,	-28603	,	-27307	,	-38.298992	,	0
29,23	,	84330	,	-28591	,	-27317	,	-36.66048	,	0
29,23	,	84362	,	-28560	,	-27307	,	-31.900959	,	1
29,23	,	84378	,	-28558	,	-27310	,	-23.983995	,	5
29,23	,	84394	,	-28558	,	-27305	,	-13.643343	,	12
29,23	,	84426	,	-28554	,	-27303	,	-2.3043165	,	22
29,23	,	84442	,	-28557	,	-27313	,	8.434718	,	33
29,23	,	84474	,	-28567	,	-27312	,	17.224184	,	43
29,23	,	84490	,	-28576	,	-27317	,	23.077185	,	51
29,23	,	84506	,	-28587	,	-27326	,	25.456394	,	56
29,23	,	84538	,	-28582	,	-27339	,	24.40255	,	58
29,23	,	84554	,	-28589	,	-27312	,	20.559612	,	57
29,23	,	84570	,	-28604	,	-27333	,	14.858073	,	53
29,23	,	84602	,	-28612	,	-27334	,	8.099662	,	46
29,23	,	84618	,	-28604	,	-27338	,	0.9834957	,	36
29,23	,	84650	,	-28613	,	-27344	,	-5.7095466	,	25
29,23	,	84666	,	-28620	,	-27349	,	-11.32139	,	15
29,23	,	84682	,	-28642	,	-27364	,	-15.649439	,	7
29,23	,	84714	,	-28645	,	-27363	,	-18.93259	,	2
29,23	,	84730	,	-28648	,	-27365	,	-21.470053	,	0
29,23	,	84746	,	-28686	,	-27370	,	-23.489197	,	0
29,23	,	84778	,	-28687	,	-27383	,	-25.379374	,	0
29,23	,	84794	,	-28698	,	-27376	,	-27.483828	,	0
29,23	,	84810	,	-28719	,	-27392	,	-29.81752	,	0
29,23	,	84842	,	-28738	,	-27398	,	-32.33817	,	0
29,23	,	84858	,	-28750	,	-27405	,	-35.087	,	0
29,23	,	84890	,	-28748	,	-27409	,	-37.92324	,	0
29,23	,	84906	,	-28763	,	-27417	,	-40.419434	,	0
29,23	,	84922	,	-28747	,	-27408	,	-42.03572	,	0
29,23	,	84954	,	-28713	,	-27406	,	-42.05223	,	0
29,23	,	84970	,	-28718	,	-27391	,	-39.604996	,	0
29,23	,	84986	,	-28712	,	-27394	,	-34.358288	,	2
29,23	,	85018	,	-28696	,	-27379	,	-26.790419	,	7
29,23	,	85034	,	-28716	,	-27404	,	-17.837337	,	14
29,23	,	85066	,	-28697	,	-27401	,	-8.655188	,	22
29,23	,	85082	,	-28705	,	-27398	,	-0.30438995	,	31
29,23	,	85098	,	-28726	,	-27406	,	6.3920374	,	39
29,24	,	85130	,	-28728	,	-27403	,	10.697429	,	45
29,24	,	85146	,	-28734	,	-27403	,	12.199863	,	49
29,24	,	85162	,	-28733	,	-27406	,	11.096739	,	50
29,24	,	85194	,	-28745	,	-27413	,	8.020338	,	48
29,24	,	85210	,	-28738	,	-27411	,	3.749146	,	43
29,24	,	85226	,	-28740	,	-27435	,	-0.88866615	,	36
29,24	,	85258	,	-28762	,	-27399	,	-5.216264	,	28
29,24	,	85274	,	-28779	,	-27433	,	-9.074937	,	19
29,24	,	85306	,	-28782	,	-27429	,	-12.704532	,	11
29,24	,	85322	,	-28791	,	-27431	,	-16.235823	,	5
29,24	,	85338	,	-28794	,	-27439	,	-19.527878	,	1
29,24	,	85370	,	-28820	,	-27444	,	-22.418808	,	0
29,24	,	85385	,	-28831	,	-27445	,	-24.990631	,	0
29,24	,	85402	,	-28832	,	-27455	,	-27.417328	,	0
29,24	,	85434	,	-28842	,	-27462	,	-29.62921	,	0
29,24	,	85450	,	-28862	,	-27473	,	-31.448494	,	0
29,24	,	85481	,	-28878	,	-27479	,	-32.926743	,	0
29,24	,	85498	,	-28876	,	-27471	,	-34.22639	,	0
29,24	,	85514	,	-28897	,	-27492	,	-35.3451	,	0
29,24	,	85546	,	-28901	,	-27497	,	-36.204964	,	0
29,24	,	85562	,	-28911	,	-27504	,	-36.76866	,	0
29,24	,	85578	,	-28885	,	-27494	,	-36.825874	,	0
29,24	,	85610	,	-28888	,	-27486	,	-35.8427	,	0
29,24	,	85626	,	-28877	,	-27486	,	-33.28356	,	0
29,24	,	85658	,	-28869	,	-27483	,	-28.972483	,	2
29,24	,	85674	,	-28865	,	-27483	,	-23.09697	,	6
29,24	,	85690	,	-28888	,	-27489	,	-16.264812	,	11
29,24	,	85722	,	-28879	,	-27475	,	-9.49715	,	17
29,24	,	85738	,	-28879	,	-27492	,	-3.7227325	,	23
29,24	,	85754	,	-28876	,	-27474	,	0.6442642	,	28
29,24	,	85785	,	-28887	,	-27485	,	3.545251	,	32
29,24	,	85801	,	-28894	,	-27493	,	4.968327	,	34
29,24	,	85817	,	-28893	,	-27493	,	4.929763	,	35
29,24	,	85850	,	-28902	,	-27495	,	3.62043	,	33
29,24	,	85866	,	-28913	,	-27494	,	1.3365614	,	29
29,24	,	85898	,	-28918	,	-27500	,	-1.6730187	,	24
29,24	,	85914	,	-28929	,	-27500	,	-5.170948	,	18
29,24	,	85930	,	-28928	,	-27519	,	-8.863249	,	12
29,24	,	85961	,	-28934	,	-27485	,	-12.389217	,	7
29,24	,	85977	,	-28949	,	-27514	,	-15.447821	,	3
29,24	,	85993	,	-28949	,	-27519	,	-17.946577	,	1
29,24	,	86026	,	-28966	,	-27515	,	-19.93431	,	0
29,24	,	86042	,	-28965	,	-27519	,	-21.493338	,	0
29,24	,	86074	,	-28973	,	-27530	,	-22.665716	,	0
29,24	,	86089	,	-28982	,	-27527	,	-23.444267	,	0
29,24	,	86105	,	-28992	,	-27547	,	-23.89061	,	0
29,25	,	86138	,	-29006	,	-27546	,	-24.186407	,	0
29,25	,	86154	,	-29023	,	-27554	,	-24.604515	,	0
29,25	,	86170	,	-29026	,	-27556	,	-25.391884	,	0
29,25	,	86201	,	-29031	,	-27552	,	-26.5439	,	0
29,25	,	86217	,	-29050	,	-27570	,	-27.835115	,	0
29,25	,	86234	,	-29056	,	-27569	,	-29.104406	,	0
29,25	,	86265	,	-29045	,	-27563	,	-30.193035	,	0
29,25	,	86281	,	-29034	,	-27555	,	-30.63645	,	0
29,25	,	86313	,	-29025	,	-27561	,	-29.767918	,	0
29,25	,	86329	,	-29025	,	-27560	,	-27.15793	,	0
29,25	,	86346	,	-29003	,	-27540	,	-22.788433	,	2
29,25	,	86377	,	-29018	,	-27549	,	-16.962982	,	6
29,25	,	86393	,	-29009	,	-27561	,	-10.331158	,	11
29,25	,	86409	,	-29003	,	-27536	,	-3.7128792	,	17
29,25	,	86441	,	-29013	,	-27548	,	2.2242308	,	23
29,25	,	86457	,	-29010	,	-27539	,	6.9553604	,	28
29,25	,	86490	,	-29014	,	-27549	,	10.110176	,	32
29,25	,	86506	,	-29025	,	-27546	,	11.545119	,	35
29,25	,	86521	,	-29016	,	-27550	,	11.305856	,	36
29,25	,	86553	,	-29017	,	-27540	,	9.719654	,	34
29,25	,	86569	,	-29019	,	-27548	,	7.3519683	,	30
29,25	,	86585	,	-29025	,	-27549	,	4.7033954	,	25
29,25	,	86617	,	-29034	,	-27558	,	2.0259266	,	19
29,25	,	86634	,	-29031	,	-27560	,	-0.6030798	,	13
29,25	,	86649	,	-29045	,	-27532	,	-3.133027	,	8
29,25	,	86681	,	-29041	,	-27556	,	-5.509533	,	4
29,25	,	86697	,	-29056	,	-27554	,	-7.697073	,	1
29,25	,	86729	,	-29071	,	-27550	,	-9.768837	,	0
29,25	,	86745	,	-29072	,	-27558	,	-11.919934	,	0
29,25	,	86761	,	-29075	,	-27557	,	-14.198397	,	0
29,25	,	86793	,	-29080	,	-27540	,	-16.383986	,	0
29,25	,	86809	,	-29061	,	-27551	,	-18.086946	,	0
29,25	,	86825	,	-29082	,	-27551	,	-18.890213	,	0
29,25	,	86857	,	-29086	,	-27557	,	-18.706177	,	0
29,25	,	86873	,	-29102	,	-27558	,	-17.921415	,	0
29,25	,	86905	,	-29100	,	-27567	,	-17.05563	,	0
29,25	,	86921	,	-29107	,	-27550	,	-16.418798	,	0
29,25	,	86937	,	-29077	,	-27544	,	-15.914225	,	0
29,25	,	86969	,	-29049	,	-27532	,	-14.875969	,	0
29,25	,	86985	,	-29030	,	-27528	,	-12.288696	,	1
29,25	,	87001	,	-29038	,	-27520	,	-7.567776	,	3
29,25	,	87033	,	-29024	,	-27524	,	-1.073802	,	7
29,25	,	87049	,	-29007	,	-27514	,	6.310784	,	13
29,25	,	87081	,	-29001	,	-27504	,	13.802231	,	20
29,25	,	87097	,	-28991	,	-27504	,	20.791777	,	27
29,25	,	87113	,	-29004	,	-27483	,	26.670872	,	33
29,26	,	87145	,	-29001	,	-27501	,	30.778336	,	38
29,26	,	87161	,	-29006	,	-27498	,	32.600407	,	42
29,26	,	87177	,	-29000	,	-27491	,	32.03827	,	42
29,26	,	87209	,	-28995	,	-27486	,	29.468151	,	40
