Data recorded on Wed Jul 26 14-13-05 CAT 2017
Time: 14:13:18
Time		Millis		IR PPG		Red PPG		Filtered		SSF
13,27	,	23244	,	-18482	,	-15457	,	-27.883703	,	0
13,27	,	23276	,	-18482	,	-15472	,	-27.888815	,	0
13,27	,	23292	,	-18496	,	-15472	,	-27.639507	,	0
13,27	,	23308	,	-18502	,	-15468	,	-27.46378	,	0
13,27	,	23340	,	-18474	,	-15453	,	-27.388645	,	0
13,27	,	23356	,	-18430	,	-15440	,	-26.633286	,	0
13,27	,	23372	,	-18397	,	-15434	,	-23.743223	,	0
13,27	,	23404	,	-18374	,	-15416	,	-17.481827	,	2
13,27	,	23420	,	-18371	,	-15417	,	-7.6999264	,	8
13,27	,	23452	,	-18364	,	-15417	,	4.4997253	,	17
13,27	,	23468	,	-18350	,	-15412	,	17.348843	,	29
13,27	,	23484	,	-18347	,	-15396	,	29.179537	,	41
13,27	,	23516	,	-18323	,	-15391	,	38.839993	,	52
13,27	,	23532	,	-18326	,	-15393	,	45.78088	,	61
13,27	,	23548	,	-18315	,	-15390	,	49.87567	,	67
13,27	,	23580	,	-18321	,	-15389	,	51.193474	,	71
13,27	,	23596	,	-18327	,	-15395	,	49.882385	,	70
13,27	,	23612	,	-18333	,	-15393	,	46.12521	,	64
13,27	,	23644	,	-18328	,	-15396	,	40.28092	,	55
13,27	,	23660	,	-18339	,	-15397	,	32.981598	,	43
13,27	,	23692	,	-18339	,	-15401	,	24.95782	,	31
13,27	,	23708	,	-18345	,	-15411	,	16.872763	,	20
13,27	,	23724	,	-18345	,	-15390	,	9.28827	,	11
13,27	,	23756	,	-18353	,	-15415	,	2.627264	,	5
13,27	,	23772	,	-18363	,	-15414	,	-2.9116964	,	1
13,27	,	23788	,	-18367	,	-15416	,	-7.374937	,	0
13,27	,	23820	,	-18384	,	-15416	,	-10.9614935	,	0
13,27	,	23836	,	-18386	,	-15429	,	-13.929264	,	0
13,27	,	23868	,	-18400	,	-15431	,	-16.493252	,	0
13,27	,	23884	,	-18403	,	-15431	,	-18.758274	,	0
13,27	,	23900	,	-18424	,	-15434	,	-20.789114	,	0
13,27	,	23932	,	-18419	,	-15443	,	-22.65234	,	0
13,27	,	23948	,	-18426	,	-15443	,	-24.281128	,	0
13,27	,	23964	,	-18438	,	-15437	,	-25.491734	,	0
13,27	,	23996	,	-18447	,	-15456	,	-26.241266	,	0
13,27	,	24012	,	-18462	,	-15470	,	-26.693142	,	0
13,27	,	24028	,	-18467	,	-15466	,	-27.065254	,	0
13,27	,	24060	,	-18485	,	-15458	,	-27.522175	,	0
13,27	,	24076	,	-18489	,	-15472	,	-28.155931	,	0
13,27	,	24108	,	-18490	,	-15476	,	-28.905567	,	0
13,27	,	24124	,	-18447	,	-15452	,	-29.27237	,	0
13,27	,	24140	,	-18413	,	-15430	,	-28.104338	,	0
13,27	,	24172	,	-18382	,	-15429	,	-24.009556	,	1
13,27	,	24188	,	-18370	,	-15419	,	-16.240894	,	5
13,27	,	24204	,	-18361	,	-15415	,	-5.228816	,	12
13,27	,	24236	,	-18357	,	-15418	,	7.5887737	,	23
13,28	,	24252	,	-18344	,	-15406	,	20.40168	,	35
13,28	,	24284	,	-18330	,	-15406	,	31.699543	,	47
13,28	,	24300	,	-18323	,	-15403	,	40.58005	,	58
13,28	,	24316	,	-18327	,	-15402	,	46.5944	,	66
13,28	,	24348	,	-18333	,	-15400	,	49.47204	,	72
13,28	,	24364	,	-18342	,	-15410	,	49.07447	,	73
13,28	,	24380	,	-18346	,	-15411	,	45.52684	,	69
13,28	,	24411	,	-18344	,	-15407	,	39.3468	,	62
13,28	,	24428	,	-18345	,	-15400	,	31.433167	,	51
13,28	,	24460	,	-18348	,	-15414	,	22.838865	,	39
13,28	,	24476	,	-18349	,	-15400	,	14.492022	,	27
13,28	,	24492	,	-18361	,	-15420	,	7.018469	,	16
13,28	,	24523	,	-18357	,	-15420	,	0.7142105	,	8
13,28	,	24540	,	-18376	,	-15423	,	-4.36348	,	2
13,28	,	24556	,	-18383	,	-15425	,	-8.383057	,	0
13,28	,	24588	,	-18391	,	-15434	,	-11.666033	,	0
13,28	,	24604	,	-18403	,	-15432	,	-14.490855	,	0
13,28	,	24620	,	-18409	,	-15446	,	-17.034538	,	0
13,28	,	24652	,	-18418	,	-15447	,	-19.372179	,	0
13,28	,	24668	,	-18433	,	-15447	,	-21.516241	,	0
13,28	,	24700	,	-18438	,	-15465	,	-23.497171	,	0
13,28	,	24716	,	-18446	,	-15454	,	-25.302448	,	0
13,28	,	24732	,	-18462	,	-15474	,	-26.870663	,	0
13,28	,	24764	,	-18472	,	-15462	,	-28.227482	,	0
13,28	,	24780	,	-18476	,	-15480	,	-29.437958	,	0
13,28	,	24796	,	-18495	,	-15474	,	-30.49442	,	0
13,28	,	24828	,	-18504	,	-15478	,	-31.414185	,	0
13,28	,	24844	,	-18517	,	-15483	,	-32.28545	,	0
13,28	,	24876	,	-18528	,	-15489	,	-33.168346	,	0
13,28	,	24892	,	-18542	,	-15504	,	-34.074493	,	0
13,28	,	24908	,	-18532	,	-15492	,	-34.903313	,	0
13,28	,	24939	,	-18486	,	-15486	,	-35.068844	,	0
13,28	,	24955	,	-18448	,	-15448	,	-33.24601	,	0
13,28	,	24971	,	-18421	,	-15451	,	-27.968155	,	1
13,28	,	25003	,	-18400	,	-15443	,	-18.611992	,	6
13,28	,	25019	,	-18410	,	-15433	,	-5.8760796	,	15
13,28	,	25035	,	-18389	,	-15432	,	8.462548	,	27
13,28	,	25067	,	-18381	,	-15446	,	22.404129	,	41
13,28	,	25084	,	-18383	,	-15433	,	34.380844	,	54
13,28	,	25116	,	-18375	,	-15428	,	43.305134	,	65
13,28	,	25131	,	-18380	,	-15429	,	48.57762	,	73
13,28	,	25147	,	-18388	,	-15433	,	50.050316	,	78
13,28	,	25180	,	-18396	,	-15445	,	47.877274	,	78
13,28	,	25196	,	-18392	,	-15433	,	42.560074	,	73
13,28	,	25212	,	-18401	,	-15442	,	34.98714	,	64
13,28	,	25244	,	-18396	,	-15438	,	26.23068	,	52
13,29	,	25259	,	-18408	,	-15439	,	17.295725	,	38
13,29	,	25291	,	-18404	,	-15439	,	8.962622	,	25
13,29	,	25307	,	-18417	,	-15449	,	1.7334108	,	14
13,29	,	25323	,	-18423	,	-15453	,	-4.1863136	,	6
13,29	,	25355	,	-18428	,	-15449	,	-8.844491	,	1
13,29	,	25372	,	-18430	,	-15461	,	-12.36659	,	0
13,29	,	25387	,	-18445	,	-15466	,	-14.892149	,	0
13,29	,	25420	,	-18458	,	-15472	,	-16.69902	,	0
13,29	,	25435	,	-18464	,	-15481	,	-18.17817	,	0
13,29	,	25451	,	-18471	,	-15464	,	-19.601631	,	0
13,29	,	25484	,	-18494	,	-15478	,	-21.096344	,	0
13,29	,	25499	,	-18499	,	-15487	,	-22.799511	,	0
13,29	,	25531	,	-18505	,	-15483	,	-24.749203	,	0
13,29	,	25549	,	-18506	,	-15494	,	-26.706738	,	0
13,29	,	25564	,	-18524	,	-15488	,	-28.33214	,	0
13,29	,	25595	,	-18531	,	-15504	,	-29.487879	,	0
13,29	,	25611	,	-18533	,	-15502	,	-30.206964	,	0
13,29	,	25627	,	-18547	,	-15508	,	-30.504421	,	0
13,29	,	25659	,	-18558	,	-15512	,	-30.447159	,	0
13,29	,	25676	,	-18565	,	-15529	,	-30.213305	,	0
13,29	,	25707	,	-18566	,	-15503	,	-29.90789	,	0
13,29	,	25723	,	-18486	,	-15470	,	-29.048897	,	0
13,29	,	25739	,	-18465	,	-15471	,	-26.18909	,	0
13,29	,	25772	,	-18452	,	-15462	,	-19.871054	,	2
13,29	,	25787	,	-18438	,	-15462	,	-9.958236	,	8
13,29	,	25804	,	-18444	,	-15460	,	2.3307428	,	17
13,29	,	25835	,	-18443	,	-15454	,	15.071934	,	29
13,29	,	25851	,	-18444	,	-15462	,	26.292997	,	41
13,29	,	25867	,	-18441	,	-15470	,	34.559513	,	52
13,29	,	25899	,	-18442	,	-15461	,	39.207825	,	60
13,29	,	25915	,	-18444	,	-15464	,	40.24	,	64
13,29	,	25947	,	-18453	,	-15459	,	38.073616	,	65
13,29	,	25963	,	-18463	,	-15462	,	33.295525	,	63
13,29	,	25979	,	-18458	,	-15466	,	26.60415	,	57
13,29	,	26011	,	-18455	,	-15463	,	18.92541	,	48
13,29	,	26027	,	-18463	,	-15465	,	11.286024	,	36
13,29	,	26043	,	-18476	,	-15462	,	4.3928175	,	24
13,29	,	26075	,	-18466	,	-15464	,	-1.4619255	,	13
13,29	,	26091	,	-18480	,	-15475	,	-6.1352773	,	5
13,29	,	26123	,	-18491	,	-15491	,	-9.643805	,	1
13,29	,	26139	,	-18503	,	-15486	,	-12.295544	,	0
13,29	,	26155	,	-18502	,	-15494	,	-14.464872	,	0
13,29	,	26187	,	-18506	,	-15506	,	-16.293612	,	0
13,29	,	26203	,	-18511	,	-15477	,	-17.706757	,	0
13,29	,	26219	,	-18528	,	-15495	,	-18.67617	,	0
13,30	,	26251	,	-18540	,	-15504	,	-19.413002	,	0
13,30	,	26267	,	-18546	,	-15508	,	-20.239641	,	0
13,30	,	26283	,	-18551	,	-15515	,	-21.29787	,	0
13,30	,	26315	,	-18564	,	-15505	,	-22.505741	,	0
13,30	,	26331	,	-18573	,	-15520	,	-23.761408	,	0
13,30	,	26363	,	-18583	,	-15518	,	-25.032253	,	0
13,30	,	26379	,	-18587	,	-15521	,	-26.266273	,	0
13,30	,	26395	,	-18605	,	-15523	,	-27.380157	,	0
13,30	,	26427	,	-18596	,	-15532	,	-28.294512	,	0
13,30	,	26443	,	-18552	,	-15492	,	-28.585468	,	0
13,30	,	26459	,	-18492	,	-15482	,	-26.996208	,	0
13,30	,	26491	,	-18475	,	-15475	,	-21.878368	,	1
13,30	,	26507	,	-18472	,	-15468	,	-12.55055	,	6
13,30	,	26539	,	-18475	,	-15466	,	-0.048851013	,	15
13,30	,	26555	,	-18469	,	-15468	,	13.479227	,	27
13,30	,	26571	,	-18461	,	-15478	,	25.884987	,	40
13,30	,	26603	,	-18458	,	-15469	,	35.682415	,	52
13,30	,	26619	,	-18459	,	-15468	,	42.101334	,	61
13,30	,	26635	,	-18463	,	-15462	,	44.89296	,	67
13,30	,	26667	,	-18475	,	-15485	,	44.15403	,	69
13,30	,	26683	,	-18487	,	-15471	,	40.197945	,	68
13,30	,	26715	,	-18482	,	-15478	,	33.59173	,	63
13,30	,	26731	,	-18482	,	-15481	,	25.29101	,	54
13,30	,	26747	,	-18487	,	-15470	,	16.473284	,	42
13,30	,	26779	,	-18485	,	-15476	,	8.16161	,	29
13,30	,	26795	,	-18490	,	-15492	,	1.0644417	,	17
13,30	,	26811	,	-18503	,	-15487	,	-4.4933124	,	8
13,30	,	26843	,	-18508	,	-15483	,	-8.611405	,	2
13,30	,	26859	,	-18515	,	-15481	,	-11.61129	,	0
13,30	,	26875	,	-18521	,	-15490	,	-13.798108	,	0
13,30	,	26907	,	-18538	,	-15492	,	-15.454771	,	0
13,30	,	26923	,	-18534	,	-15505	,	-16.850851	,	0
13,30	,	26955	,	-18539	,	-15508	,	-18.077892	,	0
13,30	,	26971	,	-18560	,	-15505	,	-19.1063	,	0
13,30	,	26987	,	-18570	,	-15506	,	-20.085331	,	0
13,30	,	27019	,	-18569	,	-15516	,	-21.232574	,	0
13,30	,	27035	,	-18577	,	-15514	,	-22.500322	,	0
13,30	,	27051	,	-18587	,	-15527	,	-23.66774	,	0
13,30	,	27083	,	-18600	,	-15533	,	-24.63353	,	0
13,30	,	27099	,	-18608	,	-15521	,	-25.464285	,	0
13,30	,	27131	,	-18601	,	-15514	,	-26.178757	,	0
13,30	,	27147	,	-18555	,	-15503	,	-26.32043	,	0
13,30	,	27163	,	-18510	,	-15493	,	-24.661554	,	0
13,30	,	27195	,	-18488	,	-15461	,	-19.731867	,	1
13,30	,	27211	,	-18468	,	-15459	,	-10.888671	,	5
13,30	,	27227	,	-18461	,	-15457	,	1.2094469	,	13
13,31	,	27259	,	-18455	,	-15465	,	14.935803	,	25
13,31	,	27275	,	-18458	,	-15453	,	28.279211	,	38
13,31	,	27291	,	-18449	,	-15456	,	39.411285	,	51
13,31	,	27323	,	-18452	,	-15450	,	47.116863	,	62
13,31	,	27339	,	-18447	,	-15447	,	50.91262	,	69
13,31	,	27371	,	-18452	,	-15453	,	50.912926	,	72
13,31	,	27387	,	-18470	,	-15456	,	47.549164	,	71
13,31	,	27403	,	-18457	,	-15469	,	41.405193	,	67
13,31	,	27435	,	-18459	,	-15448	,	33.3788	,	59
13,31	,	27451	,	-18461	,	-15465	,	24.624529	,	47
13,31	,	27467	,	-18467	,	-15457	,	16.13768	,	34
13,31	,	27499	,	-18470	,	-15461	,	8.544165	,	21
13,31	,	27515	,	-18478	,	-15464	,	2.1452694	,	10
13,31	,	27547	,	-18473	,	-15471	,	-2.9614239	,	3
13,31	,	27563	,	-18484	,	-15466	,	-6.774118	,	0
13,31	,	27579	,	-18494	,	-15469	,	-9.447368	,	0
13,31	,	27610	,	-18500	,	-15481	,	-11.328595	,	0
13,31	,	27627	,	-18513	,	-15486	,	-12.804832	,	0
13,31	,	27643	,	-18514	,	-15490	,	-14.164709	,	0
13,31	,	27675	,	-18516	,	-15477	,	-15.4934845	,	0
13,31	,	27691	,	-18527	,	-15488	,	-16.696096	,	0
13,31	,	27707	,	-18538	,	-15499	,	-17.733562	,	0
13,31	,	27739	,	-18557	,	-15512	,	-18.768864	,	0
13,31	,	27755	,	-18566	,	-15504	,	-20.077873	,	0
13,31	,	27787	,	-18577	,	-15518	,	-21.838612	,	0
13,31	,	27803	,	-18573	,	-15512	,	-23.93834	,	0
13,31	,	27819	,	-18555	,	-15499	,	-25.848888	,	0
13,31	,	27851	,	-18506	,	-15479	,	-26.510607	,	0
13,31	,	27867	,	-18465	,	-15460	,	-24.41985	,	0
13,31	,	27883	,	-18454	,	-15467	,	-18.351208	,	2
13,31	,	27914	,	-18437	,	-15453	,	-8.271546	,	8
13,31	,	27930	,	-18439	,	-15462	,	4.547838	,	18
13,31	,	27963	,	-18420	,	-15436	,	18.177864	,	30
13,31	,	27979	,	-18419	,	-15444	,	30.774124	,	43
13,31	,	27995	,	-18411	,	-15439	,	40.970005	,	55
13,31	,	28027	,	-18408	,	-15443	,	47.94183	,	65
13,31	,	28042	,	-18407	,	-15427	,	51.39041	,	71
13,31	,	28058	,	-18404	,	-15436	,	51.460083	,	74
13,31	,	28091	,	-18412	,	-15436	,	48.59997	,	72
13,31	,	28107	,	-18419	,	-15439	,	43.375328	,	66
13,31	,	28122	,	-18416	,	-15449	,	36.399086	,	56
13,31	,	28154	,	-18417	,	-15446	,	28.428923	,	44
13,31	,	28170	,	-18419	,	-15435	,	20.306128	,	31
13,31	,	28202	,	-18426	,	-15445	,	12.722649	,	19
13,31	,	28218	,	-18431	,	-15444	,	6.074211	,	9
13,31	,	28235	,	-18439	,	-15451	,	0.47758102	,	3
13,32	,	28266	,	-18450	,	-15455	,	-4.151923	,	0
13,32	,	28282	,	-18456	,	-15469	,	-8.019213	,	0
13,32	,	28298	,	-18461	,	-15466	,	-11.31084	,	0
13,32	,	28330	,	-18475	,	-15465	,	-14.13622	,	0
13,32	,	28346	,	-18477	,	-15473	,	-16.584948	,	0
13,32	,	28378	,	-18487	,	-15482	,	-18.702496	,	0
13,32	,	28394	,	-18494	,	-15490	,	-20.480072	,	0
13,32	,	28410	,	-18498	,	-15466	,	-21.902176	,	0
13,32	,	28443	,	-18514	,	-15488	,	-22.976767	,	0
13,32	,	28458	,	-18535	,	-15486	,	-23.867956	,	0
13,32	,	28474	,	-18534	,	-15492	,	-24.870483	,	0
13,32	,	28506	,	-18543	,	-15503	,	-26.083614	,	0
13,32	,	28522	,	-18535	,	-15484	,	-27.259884	,	0
13,32	,	28554	,	-18492	,	-15465	,	-27.72855	,	0
13,32	,	28570	,	-18450	,	-15448	,	-26.235504	,	0
13,32	,	28586	,	-18426	,	-15443	,	-21.387486	,	1
13,32	,	28618	,	-18408	,	-15428	,	-12.599618	,	5
13,32	,	28634	,	-18404	,	-15434	,	-0.55080605	,	13
13,32	,	28650	,	-18400	,	-15420	,	13.085441	,	25
13,32	,	28682	,	-18389	,	-15430	,	26.301582	,	38
13,32	,	28698	,	-18368	,	-15415	,	37.516277	,	51
13,32	,	28714	,	-18369	,	-15414	,	45.91779	,	62
13,32	,	28746	,	-18359	,	-15406	,	51.223053	,	70
13,32	,	28762	,	-18354	,	-15409	,	53.455856	,	75
13,32	,	28794	,	-18368	,	-15418	,	52.851746	,	76
13,32	,	28811	,	-18379	,	-15413	,	49.611504	,	72
13,32	,	28826	,	-18375	,	-15417	,	43.941208	,	64
13,32	,	28858	,	-18386	,	-15424	,	36.35604	,	52
13,32	,	28874	,	-18365	,	-15414	,	27.726156	,	39
13,32	,	28890	,	-18369	,	-15429	,	19.142038	,	26
13,32	,	28922	,	-18378	,	-15418	,	11.550814	,	15
13,32	,	28938	,	-18392	,	-15431	,	5.3152695	,	7
13,32	,	28970	,	-18395	,	-15434	,	0.2688551	,	2
13,32	,	29003	,	-18420	,	-15439	,	-7.6188383	,	0
13,32	,	29034	,	-18424	,	-15443	,	-11.058503	,	0
13,32	,	29050	,	-18438	,	-15448	,	-14.3242655	,	0
13,32	,	29066	,	-18444	,	-15462	,	-17.392878	,	0
13,32	,	29098	,	-18447	,	-15459	,	-20.18637	,	0
13,32	,	29114	,	-18455	,	-15452	,	-22.535658	,	0
13,32	,	29130	,	-18467	,	-15473	,	-24.304726	,	0
13,32	,	29162	,	-18470	,	-15453	,	-25.500206	,	0
13,32	,	29178	,	-18495	,	-15467	,	-26.26484	,	0
13,32	,	29210	,	-18503	,	-15480	,	-26.899952	,	0
13,32	,	29226	,	-18509	,	-15478	,	-27.69326	,	0
13,32	,	29242	,	-18514	,	-15482	,	-28.649853	,	0
13,33	,	29274	,	-18520	,	-15487	,	-29.54404	,	0
13,33	,	29290	,	-18488	,	-15466	,	-29.950397	,	0
13,33	,	29306	,	-18442	,	-15432	,	-28.935059	,	0
13,33	,	29338	,	-18406	,	-15442	,	-25.09637	,	1
13,33	,	29354	,	-18392	,	-15425	,	-17.416275	,	4
13,33	,	29386	,	-18380	,	-15432	,	-6.0958815	,	11
13,33	,	29402	,	-18377	,	-15415	,	7.465371	,	22
13,33	,	29418	,	-18373	,	-15413	,	21.287195	,	35
13,33	,	29450	,	-18355	,	-15404	,	33.526836	,	48
13,33	,	29466	,	-18350	,	-15402	,	43.00713	,	60
13,33	,	29482	,	-18344	,	-15402	,	49.246597	,	69
13,33	,	29514	,	-18340	,	-15398	,	52.20946	,	75
13,33	,	29530	,	-18349	,	-15404	,	52.10812	,	76
13,33	,	29546	,	-18347	,	-15401	,	49.26425	,	73
13,33	,	29578	,	-18350	,	-15408	,	44.134872	,	66
13,33	,	29594	,	-18357	,	-15413	,	37.33977	,	55
13,33	,	29626	,	-18358	,	-15407	,	29.546486	,	42
13,33	,	29642	,	-18355	,	-15408	,	21.44823	,	29
13,33	,	29658	,	-18367	,	-15412	,	13.712629	,	17
13,33	,	29690	,	-18372	,	-15426	,	6.766532	,	8
13,33	,	29706	,	-18378	,	-15419	,	0.7552185	,	2
13,33	,	29722	,	-18401	,	-15429	,	-4.380195	,	0
13,33	,	29754	,	-18401	,	-15432	,	-8.872775	,	0
13,33	,	29770	,	-18412	,	-15442	,	-12.919986	,	0
13,33	,	29802	,	-18421	,	-15440	,	-16.546164	,	0
13,33	,	29818	,	-18430	,	-15438	,	-19.72428	,	0
13,33	,	29834	,	-18438	,	-15443	,	-22.435146	,	0
13,33	,	29866	,	-18445	,	-15446	,	-24.646168	,	0
13,33	,	29882	,	-18454	,	-15464	,	-26.324333	,	0
13,33	,	29898	,	-18460	,	-15450	,	-27.462528	,	0
13,33	,	29930	,	-18482	,	-15471	,	-28.154774	,	0
13,33	,	29946	,	-18486	,	-15469	,	-28.637157	,	0
13,33	,	29962	,	-18492	,	-15474	,	-29.10152	,	0
13,33	,	29994	,	-18511	,	-15479	,	-29.581213	,	0
13,33	,	30010	,	-18519	,	-15491	,	-30.118153	,	0
13,33	,	30041	,	-18527	,	-15490	,	-30.772552	,	0
13,33	,	30058	,	-18529	,	-15489	,	-31.450375	,	0
13,33	,	30074	,	-18534	,	-15493	,	-31.896309	,	0
13,33	,	30106	,	-18481	,	-15464	,	-31.575027	,	0
13,33	,	30122	,	-18447	,	-15447	,	-29.3652	,	0
13,33	,	30138	,	-18415	,	-15435	,	-23.916592	,	2
13,33	,	30170	,	-18396	,	-15425	,	-14.594466	,	7
13,33	,	30186	,	-18395	,	-15426	,	-1.9964285	,	16
13,33	,	30218	,	-18380	,	-15421	,	12.252617	,	28
13,33	,	30234	,	-18374	,	-15424	,	26.204351	,	42
13,34	,	30250	,	-18368	,	-15419	,	38.211483	,	55
13,34	,	30282	,	-18374	,	-15412	,	47.091133	,	67
13,34	,	30298	,	-18355	,	-15420	,	52.20581	,	75
13,34	,	30314	,	-18365	,	-15412	,	53.573364	,	80
13,34	,	30346	,	-18371	,	-15418	,	51.614815	,	79
13,34	,	30362	,	-18375	,	-15423	,	46.829613	,	74
13,34	,	30393	,	-18374	,	-15415	,	39.86106	,	65
13,34	,	30409	,	-18379	,	-15428	,	31.568054	,	53
13,34	,	30426	,	-18380	,	-15429	,	22.849306	,	39
13,34	,	30458	,	-18385	,	-15435	,	14.466927	,	26
13,34	,	30474	,	-18397	,	-15439	,	6.9256277	,	14
13,34	,	30490	,	-18404	,	-15435	,	0.40607452	,	6
13,34	,	30522	,	-18423	,	-15435	,	-5.182402	,	1
13,34	,	30538	,	-18426	,	-15447	,	-10.061779	,	0
13,34	,	30553	,	-18426	,	-15445	,	-14.340172	,	0
13,34	,	30586	,	-18442	,	-15453	,	-17.92413	,	0
13,34	,	30602	,	-18440	,	-15455	,	-20.720135	,	0
13,34	,	30633	,	-18456	,	-15458	,	-22.734535	,	0
13,34	,	30649	,	-18465	,	-15464	,	-24.087402	,	0
13,34	,	30665	,	-18481	,	-15479	,	-25.045662	,	0
13,34	,	30697	,	-18488	,	-15478	,	-25.912209	,	0
13,34	,	30714	,	-18496	,	-15471	,	-26.85059	,	0
13,34	,	30730	,	-18502	,	-15479	,	-27.822187	,	0
13,34	,	30762	,	-18519	,	-15481	,	-28.718512	,	0
13,34	,	30778	,	-18518	,	-15483	,	-29.486866	,	0
13,34	,	30810	,	-18527	,	-15499	,	-30.048738	,	0
13,34	,	30826	,	-18543	,	-15499	,	-30.321815	,	0
13,34	,	30842	,	-18547	,	-15502	,	-30.361008	,	0
13,34	,	30873	,	-18561	,	-15520	,	-30.28539	,	0
13,34	,	30889	,	-18546	,	-15496	,	-30.078392	,	0
13,34	,	30905	,	-18462	,	-15463	,	-29.045689	,	0
13,34	,	30937	,	-18430	,	-15446	,	-25.453255	,	1
13,34	,	30953	,	-18420	,	-15448	,	-17.699432	,	4
13,34	,	30970	,	-18417	,	-15445	,	-5.8666916	,	11
13,34	,	31002	,	-18413	,	-15447	,	8.31628	,	22
13,34	,	31017	,	-18408	,	-15435	,	22.538073	,	36
13,34	,	31049	,	-18405	,	-15440	,	34.777126	,	50
13,34	,	31065	,	-18404	,	-15437	,	43.687553	,	62
13,34	,	31082	,	-18405	,	-15431	,	48.632896	,	70
13,34	,	31114	,	-18407	,	-15446	,	49.57909	,	74
13,34	,	31130	,	-18416	,	-15429	,	46.927372	,	73
13,34	,	31146	,	-18422	,	-15439	,	41.333153	,	70
13,34	,	31177	,	-18426	,	-15442	,	33.607574	,	63
13,34	,	31193	,	-18427	,	-15448	,	24.683937	,	52
13,34	,	31225	,	-18424	,	-15442	,	15.563896	,	38
13,34	,	31241	,	-18433	,	-15446	,	7.1648836	,	24
13,35	,	31257	,	-18431	,	-15456	,	0.1107645	,	12
13,35	,	31289	,	-18446	,	-15455	,	-5.357097	,	4
13,35	,	31305	,	-18447	,	-15458	,	-9.337336	,	0
13,35	,	31321	,	-18458	,	-15470	,	-12.126461	,	0
13,35	,	31353	,	-18479	,	-15468	,	-14.134982	,	0
13,35	,	31369	,	-18487	,	-15467	,	-15.886183	,	0
13,35	,	31385	,	-18500	,	-15486	,	-17.824535	,	0
13,35	,	31417	,	-18512	,	-15488	,	-20.14191	,	0
13,35	,	31433	,	-18524	,	-15497	,	-22.833694	,	0
13,35	,	31465	,	-18531	,	-15495	,	-25.751774	,	0
13,35	,	31481	,	-18541	,	-15500	,	-28.622719	,	0
13,35	,	31497	,	-18544	,	-15502	,	-31.11758	,	0
13,35	,	31529	,	-18554	,	-15514	,	-32.940773	,	0
13,35	,	31545	,	-18574	,	-15509	,	-33.98693	,	0
13,35	,	31561	,	-18568	,	-15521	,	-34.37288	,	0
13,35	,	31593	,	-18579	,	-15519	,	-34.19114	,	0
13,35	,	31609	,	-18593	,	-15530	,	-33.489937	,	0
13,35	,	31641	,	-18593	,	-15527	,	-32.435005	,	0
13,35	,	31657	,	-18625	,	-15528	,	-31.294586	,	1
13,35	,	31673	,	-18615	,	-15531	,	-30.381145	,	2
13,35	,	31705	,	-18556	,	-15513	,	-29.489109	,	2
13,35	,	31721	,	-18516	,	-15484	,	-27.269955	,	2
13,35	,	31737	,	-18489	,	-15485	,	-21.956043	,	4
13,35	,	31769	,	-18484	,	-15474	,	-12.776891	,	9
13,35	,	31785	,	-18471	,	-15464	,	-0.46870518	,	18
13,35	,	31817	,	-18474	,	-15470	,	13.21518	,	30
13,35	,	31833	,	-18477	,	-15470	,	26.198593	,	43
13,35	,	31849	,	-18479	,	-15472	,	36.617313	,	54
13,35	,	31881	,	-18465	,	-15454	,	43.306778	,	63
13,35	,	31897	,	-18467	,	-15461	,	46.05293	,	69
13,35	,	31913	,	-18473	,	-15474	,	45.29435	,	71
13,35	,	31945	,	-18477	,	-15470	,	41.653908	,	69
13,35	,	31961	,	-18478	,	-15471	,	35.828056	,	64
13,35	,	31977	,	-18485	,	-15477	,	28.614527	,	55
13,35	,	32009	,	-18486	,	-15476	,	20.80137	,	43
13,35	,	32025	,	-18485	,	-15464	,	13.105486	,	30
13,35	,	32057	,	-18487	,	-15482	,	6.1670103	,	18
13,35	,	32073	,	-18495	,	-15471	,	0.41749763	,	8
13,35	,	32089	,	-18497	,	-15492	,	-4.027126	,	2
13,35	,	32121	,	-18505	,	-15478	,	-7.2791176	,	0
13,35	,	32137	,	-18533	,	-15493	,	-9.674085	,	0
13,35	,	32153	,	-18538	,	-15498	,	-11.804118	,	0
13,35	,	32185	,	-18538	,	-15505	,	-14.137195	,	0
13,35	,	32201	,	-18556	,	-15499	,	-16.706423	,	0
13,35	,	32233	,	-18553	,	-15506	,	-19.319721	,	0
13,36	,	32249	,	-18571	,	-15508	,	-21.765692	,	0
13,36	,	32265	,	-18571	,	-15507	,	-23.873037	,	0
13,36	,	32297	,	-18577	,	-15516	,	-25.503887	,	0
13,36	,	32313	,	-18587	,	-15519	,	-26.537067	,	0
13,36	,	32329	,	-18599	,	-15528	,	-26.998367	,	0
13,36	,	32361	,	-18606	,	-15526	,	-27.085392	,	0
13,36	,	32377	,	-18614	,	-15531	,	-27.002615	,	0
13,36	,	32393	,	-18628	,	-15541	,	-26.89894	,	0
13,36	,	32425	,	-18633	,	-15544	,	-26.904	,	0
13,36	,	32441	,	-18591	,	-15518	,	-26.833015	,	0
13,36	,	32473	,	-18556	,	-15500	,	-25.723753	,	0
13,36	,	32489	,	-18505	,	-15489	,	-22.042652	,	1
13,36	,	32505	,	-18498	,	-15490	,	-14.610869	,	4
13,36	,	32537	,	-18496	,	-15475	,	-3.5435362	,	11
13,36	,	32553	,	-18498	,	-15477	,	9.591846	,	22
13,36	,	32569	,	-18499	,	-15476	,	22.54491	,	35
13,36	,	32601	,	-18496	,	-15474	,	33.301243	,	47
13,36	,	32617	,	-18493	,	-15469	,	40.608406	,	57
13,36	,	32649	,	-18491	,	-15470	,	44.07555	,	64
13,36	,	32665	,	-18507	,	-15477	,	43.902763	,	67
13,36	,	32681	,	-18521	,	-15480	,	40.473923	,	66
13,36	,	32713	,	-18525	,	-15487	,	34.23774	,	63
13,36	,	32729	,	-18515	,	-15481	,	25.970707	,	56
13,36	,	32745	,	-18505	,	-15483	,	16.935759	,	45
13,36	,	32777	,	-18512	,	-15480	,	8.529932	,	32
13,36	,	32793	,	-18515	,	-15474	,	1.6997166	,	20
13,36	,	32809	,	-18522	,	-15495	,	-3.274125	,	10
13,36	,	32841	,	-18536	,	-15487	,	-6.625523	,	3
13,36	,	32857	,	-18543	,	-15475	,	-8.891337	,	0
13,36	,	32889	,	-18552	,	-15491	,	-10.647301	,	0
13,36	,	32905	,	-18569	,	-15497	,	-12.341378	,	0
13,36	,	32921	,	-18563	,	-15512	,	-14.22973	,	0
13,36	,	32953	,	-18575	,	-15511	,	-16.273449	,	0
13,36	,	32969	,	-18591	,	-15510	,	-18.306355	,	0
13,36	,	32985	,	-18591	,	-15506	,	-20.279324	,	0
13,36	,	33017	,	-18596	,	-15527	,	-22.11488	,	0
13,36	,	33033	,	-18606	,	-15528	,	-23.617754	,	0
13,36	,	33064	,	-18615	,	-15522	,	-24.67524	,	0
13,36	,	33080	,	-18626	,	-15529	,	-25.350933	,	0
13,36	,	33096	,	-18625	,	-15521	,	-25.755638	,	0
13,36	,	33129	,	-18641	,	-15532	,	-25.932198	,	0
13,36	,	33145	,	-18621	,	-15535	,	-25.810276	,	0
13,36	,	33161	,	-18568	,	-15505	,	-24.846058	,	0
13,36	,	33193	,	-18524	,	-15485	,	-21.728594	,	0
13,36	,	33209	,	-18508	,	-15481	,	-15.105644	,	3
13,36	,	33225	,	-18498	,	-15472	,	-4.749316	,	9
13,37	,	33256	,	-18494	,	-15471	,	8.162016	,	19
13,37	,	33272	,	-18497	,	-15476	,	21.633677	,	31
13,37	,	33304	,	-18493	,	-15466	,	33.59376	,	44
13,37	,	33321	,	-18486	,	-15467	,	42.508102	,	55
13,37	,	33337	,	-18481	,	-15482	,	47.705643	,	63
13,37	,	33369	,	-18490	,	-15466	,	49.214993	,	68
13,37	,	33385	,	-18505	,	-15477	,	47.3226	,	69
13,37	,	33401	,	-18504	,	-15484	,	42.39952	,	66
13,37	,	33432	,	-18504	,	-15482	,	35.113926	,	60
13,37	,	33449	,	-18503	,	-15472	,	26.499897	,	50
13,37	,	33480	,	-18506	,	-15475	,	17.67521	,	38
13,37	,	33496	,	-18501	,	-15479	,	9.570221	,	25
13,37	,	33512	,	-18509	,	-15478	,	2.8178139	,	14
13,37	,	33544	,	-18523	,	-15490	,	-2.3685713	,	6
13,37	,	33560	,	-18520	,	-15480	,	-6.183396	,	1
13,37	,	33577	,	-18532	,	-15500	,	-8.953918	,	0
13,37	,	33609	,	-18542	,	-15488	,	-11.007397	,	0
13,37	,	33625	,	-18560	,	-15503	,	-12.748564	,	0
13,37	,	33641	,	-18566	,	-15505	,	-14.595571	,	0
13,37	,	33672	,	-18571	,	-15512	,	-16.755077	,	0
13,37	,	33688	,	-18578	,	-15515	,	-19.119091	,	0
13,37	,	33720	,	-18581	,	-15518	,	-21.39565	,	0
13,37	,	33736	,	-18586	,	-15520	,	-23.267485	,	0
13,37	,	33753	,	-18601	,	-15515	,	-24.540411	,	0
13,37	,	33785	,	-18606	,	-15523	,	-25.259052	,	0
13,37	,	33801	,	-18611	,	-15526	,	-25.583477	,	0
13,37	,	33816	,	-18616	,	-15535	,	-25.595158	,	0
13,37	,	33848	,	-18590	,	-15502	,	-25.153461	,	0
13,37	,	33864	,	-18513	,	-15477	,	-23.449512	,	0
13,37	,	33896	,	-18490	,	-15467	,	-18.90002	,	1
13,37	,	33913	,	-18483	,	-15467	,	-10.37148	,	5
13,37	,	33928	,	-18480	,	-15458	,	1.6039219	,	13
13,37	,	33960	,	-18461	,	-15443	,	15.219372	,	24
13,37	,	33976	,	-18466	,	-15453	,	28.457016	,	37
13,37	,	33992	,	-18465	,	-15448	,	39.578644	,	50
13,37	,	34024	,	-18456	,	-15448	,	47.34303	,	61
13,37	,	34040	,	-18448	,	-15435	,	51.292233	,	68
13,37	,	34072	,	-18456	,	-15455	,	51.667423	,	71
13,37	,	34088	,	-18463	,	-15449	,	48.95843	,	70
13,37	,	34104	,	-18466	,	-15452	,	43.686253	,	66
13,37	,	34136	,	-18462	,	-15454	,	36.5279	,	58
13,37	,	34152	,	-18463	,	-15450	,	28.373837	,	47
13,37	,	34168	,	-18467	,	-15441	,	20.134932	,	34
13,37	,	34200	,	-18475	,	-15453	,	12.489714	,	21
13,37	,	34216	,	-18474	,	-15459	,	5.810877	,	10
13,37	,	34232	,	-18488	,	-15457	,	0.23770809	,	3
13,38	,	34264	,	-18494	,	-15468	,	-4.300024	,	0
13,38	,	34280	,	-18500	,	-15469	,	-8.00656	,	0
13,38	,	34312	,	-18502	,	-15474	,	-11.039179	,	0
13,38	,	34328	,	-18518	,	-15483	,	-13.487633	,	0
13,38	,	34344	,	-18530	,	-15470	,	-15.53028	,	0
13,38	,	34376	,	-18533	,	-15487	,	-17.412651	,	0
13,38	,	34392	,	-18539	,	-15490	,	-19.226479	,	0
13,38	,	34408	,	-18555	,	-15486	,	-20.920448	,	0
13,38	,	34440	,	-18556	,	-15492	,	-22.470156	,	0
13,38	,	34456	,	-18565	,	-15500	,	-23.836082	,	0
13,38	,	34488	,	-18576	,	-15493	,	-24.938435	,	0
13,38	,	34504	,	-18563	,	-15492	,	-25.672947	,	0
13,38	,	34520	,	-18524	,	-15476	,	-25.58937	,	0
13,38	,	34552	,	-18479	,	-15457	,	-23.601543	,	0
13,38	,	34568	,	-18452	,	-15449	,	-18.412601	,	1
13,38	,	34584	,	-18436	,	-15437	,	-9.430242	,	6
13,38	,	34616	,	-18423	,	-15436	,	2.7324047	,	14
13,38	,	34632	,	-18421	,	-15431	,	16.504738	,	26
13,38	,	34648	,	-18408	,	-15421	,	29.961035	,	39
13,38	,	34680	,	-18408	,	-15416	,	41.405983	,	52
13,38	,	34696	,	-18397	,	-15427	,	49.710503	,	63
13,38	,	34728	,	-18394	,	-15422	,	54.390984	,	71
13,38	,	34744	,	-18393	,	-15422	,	55.519146	,	75
13,38	,	34760	,	-18403	,	-15432	,	53.467926	,	75
13,38	,	34792	,	-18404	,	-15429	,	48.705048	,	70
13,38	,	34808	,	-18415	,	-15444	,	41.78018	,	62
13,38	,	34824	,	-18407	,	-15418	,	33.388763	,	50
13,38	,	34856	,	-18412	,	-15430	,	24.396511	,	37
13,38	,	34872	,	-18421	,	-15439	,	15.653425	,	24
13,38	,	34904	,	-18418	,	-15439	,	7.754897	,	13
13,38	,	34920	,	-18429	,	-15441	,	1.0510044	,	5
13,38	,	34936	,	-18438	,	-15443	,	-4.345837	,	1
13,38	,	34968	,	-18454	,	-15441	,	-8.628034	,	0
13,38	,	34984	,	-18457	,	-15439	,	-12.152725	,	0
13,38	,	35000	,	-18459	,	-15455	,	-15.146922	,	0
13,38	,	35032	,	-18469	,	-15465	,	-17.61345	,	0
13,38	,	35048	,	-18489	,	-15460	,	-19.588587	,	0
13,38	,	35064	,	-18488	,	-15463	,	-21.27862	,	0
13,38	,	35096	,	-18489	,	-15467	,	-22.772003	,	0
13,38	,	35112	,	-18505	,	-15479	,	-23.93235	,	0
13,38	,	35144	,	-18517	,	-15468	,	-24.73051	,	0
13,38	,	35160	,	-18526	,	-15482	,	-25.36387	,	0
13,38	,	35176	,	-18509	,	-15483	,	-25.896595	,	0
13,38	,	35208	,	-18462	,	-15450	,	-25.74982	,	0
13,38	,	35224	,	-18435	,	-15437	,	-23.650293	,	0
13,38	,	35240	,	-18411	,	-15426	,	-18.397915	,	2
13,39	,	35272	,	-18398	,	-15422	,	-9.706114	,	7
13,39	,	35288	,	-18389	,	-15417	,	1.6380396	,	15
13,39	,	35320	,	-18380	,	-15425	,	14.147228	,	26
13,39	,	35336	,	-18375	,	-15407	,	26.167448	,	38
13,39	,	35352	,	-18359	,	-15399	,	36.34087	,	50
13,39	,	35384	,	-18348	,	-15404	,	43.90133	,	60
13,39	,	35400	,	-18351	,	-15394	,	48.62039	,	67
13,39	,	35416	,	-18349	,	-15407	,	50.49498	,	71
13,39	,	35447	,	-18353	,	-15400	,	49.626183	,	70
13,39	,	35464	,	-18364	,	-15401	,	46.239815	,	65
13,39	,	35480	,	-18369	,	-15404	,	40.65187	,	57
13,39	,	35512	,	-18364	,	-15406	,	33.366707	,	46
13,39	,	35528	,	-18355	,	-15410	,	25.236382	,	34
13,39	,	35560	,	-18363	,	-15423	,	17.282766	,	22
13,39	,	35576	,	-18369	,	-15398	,	10.240601	,	12
13,39	,	35592	,	-18381	,	-15414	,	4.3332224	,	5
13,39	,	35624	,	-18385	,	-15423	,	-0.57248783	,	1
13,39	,	35640	,	-18404	,	-15424	,	-4.7528534	,	0
13,39	,	35656	,	-18411	,	-15437	,	-8.533429	,	0
13,39	,	35688	,	-18421	,	-15444	,	-12.166654	,	0
13,39	,	35704	,	-18428	,	-15434	,	-15.702532	,	0
13,39	,	35736	,	-18438	,	-15443	,	-19.03336	,	0
13,39	,	35752	,	-18446	,	-15456	,	-22.019081	,	0
13,39	,	35768	,	-18453	,	-15452	,	-24.542736	,	0
13,39	,	35800	,	-18454	,	-15450	,	-26.479515	,	0
13,39	,	35816	,	-18468	,	-15450	,	-27.708027	,	0
13,39	,	35831	,	-18474	,	-15463	,	-28.237968	,	0
13,39	,	35863	,	-18493	,	-15472	,	-28.27983	,	0
13,39	,	35880	,	-18501	,	-15470	,	-28.17125	,	0
13,39	,	35896	,	-18464	,	-15462	,	-27.98557	,	0
13,39	,	35928	,	-18428	,	-15438	,	-26.976597	,	0
13,39	,	35944	,	-18406	,	-15430	,	-23.813377	,	1
13,39	,	35975	,	-18387	,	-15428	,	-17.573826	,	4
13,39	,	35991	,	-18372	,	-15419	,	-8.316284	,	10
13,39	,	36007	,	-18360	,	-15404	,	3.0697908	,	19
13,39	,	36039	,	-18358	,	-15403	,	15.217835	,	30
13,39	,	36056	,	-18348	,	-15401	,	26.631454	,	42
13,39	,	36072	,	-18344	,	-15396	,	36.05551	,	53
13,39	,	36104	,	-18330	,	-15393	,	42.749832	,	62
13,39	,	36120	,	-18325	,	-15386	,	46.5479	,	68
13,39	,	36151	,	-18334	,	-15395	,	47.62932	,	70
13,39	,	36168	,	-18346	,	-15399	,	46.149734	,	68
13,39	,	36184	,	-18343	,	-15400	,	42.22307	,	62
13,39	,	36216	,	-18356	,	-15409	,	36.191536	,	53
13,39	,	36232	,	-18347	,	-15394	,	28.69509	,	42
13,39	,	36248	,	-18352	,	-15414	,	20.577465	,	30
13,40	,	36280	,	-18355	,	-15404	,	12.691893	,	19
13,40	,	36296	,	-18365	,	-15422	,	5.629178	,	10
13,40	,	36327	,	-18367	,	-15406	,	-0.35700035	,	4
13,40	,	36344	,	-18391	,	-15414	,	-5.300961	,	1
13,40	,	36359	,	-18398	,	-15414	,	-9.500113	,	0
13,40	,	36391	,	-18402	,	-15431	,	-13.277876	,	0
13,40	,	36407	,	-18409	,	-15429	,	-16.699692	,	0
13,40	,	36423	,	-18425	,	-15433	,	-19.687616	,	0
13,40	,	36456	,	-18432	,	-15440	,	-22.260092	,	0
13,40	,	36472	,	-18441	,	-15433	,	-24.488663	,	0
13,40	,	36488	,	-18439	,	-15438	,	-26.331623	,	0
13,40	,	36520	,	-18453	,	-15445	,	-27.635597	,	0
13,40	,	36535	,	-18455	,	-15461	,	-28.30463	,	0
13,40	,	36567	,	-18467	,	-15445	,	-28.382584	,	0
13,40	,	36583	,	-18479	,	-15460	,	-28.036846	,	0
13,40	,	36599	,	-18497	,	-15471	,	-27.578396	,	0
13,40	,	36631	,	-18501	,	-15475	,	-27.362095	,	0
13,40	,	36647	,	-18505	,	-15487	,	-27.528208	,	0
13,40	,	36663	,	-18472	,	-15458	,	-27.732498	,	0
13,40	,	36695	,	-18441	,	-15449	,	-26.987616	,	0
13,40	,	36711	,	-18407	,	-15428	,	-23.947632	,	0
13,40	,	36743	,	-18387	,	-15427	,	-17.623344	,	3
13,40	,	36759	,	-18384	,	-15415	,	-8.006766	,	9
13,40	,	36775	,	-18376	,	-15414	,	3.8046427	,	18
13,40	,	36807	,	-18367	,	-15412	,	16.118896	,	29
13,40	,	36823	,	-18365	,	-15408	,	27.326784	,	41
13,40	,	36839	,	-18353	,	-15403	,	36.25268	,	52
13,40	,	36871	,	-18350	,	-15402	,	42.284275	,	60
13,40	,	36887	,	-18355	,	-15402	,	45.273872	,	66
13,40	,	36903	,	-18362	,	-15412	,	45.26727	,	68
13,40	,	36935	,	-18362	,	-15413	,	42.44928	,	65
13,40	,	36951	,	-18367	,	-15410	,	37.276447	,	59
13,40	,	36983	,	-18363	,	-15414	,	30.48318	,	50
13,40	,	36999	,	-18371	,	-15418	,	22.92514	,	39
13,40	,	37015	,	-18375	,	-15412	,	15.351557	,	27
13,40	,	37047	,	-18376	,	-15434	,	8.294496	,	16
13,40	,	37063	,	-18390	,	-15426	,	2.0822144	,	8
13,40	,	37079	,	-18410	,	-15427	,	-3.267527	,	2
13,40	,	37111	,	-18411	,	-15435	,	-8.01755	,	0
13,40	,	37127	,	-18421	,	-15436	,	-12.362003	,	0
13,40	,	37159	,	-18432	,	-15437	,	-16.2908	,	0
13,40	,	37175	,	-18445	,	-15461	,	-19.772326	,	0
13,40	,	37191	,	-18449	,	-15454	,	-22.811474	,	0
13,40	,	37223	,	-18457	,	-15464	,	-25.355766	,	0
13,40	,	37239	,	-18468	,	-15455	,	-27.320919	,	0
13,41	,	37255	,	-18485	,	-15459	,	-28.749645	,	0
13,41	,	37287	,	-18489	,	-15474	,	-29.823221	,	0
13,41	,	37303	,	-18491	,	-15457	,	-30.630535	,	0
13,41	,	37319	,	-18510	,	-15470	,	-31.112015	,	0
13,41	,	37351	,	-18521	,	-15478	,	-31.313288	,	0
13,41	,	37367	,	-18529	,	-15487	,	-31.42696	,	0
13,41	,	37399	,	-18537	,	-15489	,	-31.574097	,	0
13,41	,	37415	,	-18541	,	-15491	,	-31.713772	,	0
13,41	,	37431	,	-18549	,	-15495	,	-31.70366	,	0
13,41	,	37463	,	-18531	,	-15490	,	-31.298582	,	0
13,41	,	37479	,	-18483	,	-15461	,	-29.858383	,	0
13,41	,	37495	,	-18455	,	-15455	,	-26.218235	,	1
13,41	,	37527	,	-18436	,	-15450	,	-19.365513	,	4
13,41	,	37543	,	-18418	,	-15425	,	-9.230007	,	10
13,41	,	37575	,	-18421	,	-15437	,	3.2108498	,	20
13,41	,	37591	,	-18411	,	-15435	,	16.291748	,	32
13,41	,	37607	,	-18402	,	-15427	,	28.27231	,	45
13,41	,	37639	,	-18407	,	-15437	,	37.83144	,	56
13,41	,	37655	,	-18415	,	-15433	,	44.075058	,	65
13,41	,	37671	,	-18412	,	-15433	,	46.510864	,	71
13,41	,	37703	,	-18426	,	-15441	,	45.181526	,	72
13,41	,	37719	,	-18427	,	-15442	,	40.587715	,	69
13,41	,	37751	,	-18423	,	-15435	,	33.56492	,	63
13,41	,	37767	,	-18429	,	-15438	,	25.213068	,	53
13,41	,	37783	,	-18432	,	-15431	,	16.618425	,	41
13,41	,	37815	,	-18429	,	-15442	,	8.627036	,	28
13,41	,	37831	,	-18440	,	-15451	,	1.8152723	,	17
13,41	,	37847	,	-18447	,	-15447	,	-3.5913725	,	8
13,41	,	37879	,	-18458	,	-15459	,	-7.73055	,	2
13,41	,	37895	,	-18467	,	-15460	,	-10.938433	,	0
13,41	,	37911	,	-18480	,	-15459	,	-13.590268	,	0
13,41	,	37943	,	-18487	,	-15457	,	-15.999613	,	0
13,41	,	37959	,	-18487	,	-15476	,	-18.289051	,	0
13,41	,	37991	,	-18496	,	-15471	,	-20.336494	,	0
13,41	,	38007	,	-18500	,	-15470	,	-21.940773	,	0
13,41	,	38023	,	-18510	,	-15482	,	-23.002575	,	0
13,41	,	38055	,	-18518	,	-15478	,	-23.566298	,	0
13,41	,	38071	,	-18525	,	-15486	,	-23.778164	,	0
13,41	,	38087	,	-18543	,	-15490	,	-23.848305	,	0
13,41	,	38119	,	-18552	,	-15491	,	-24.050499	,	0
13,41	,	38135	,	-18556	,	-15497	,	-24.581379	,	0
13,41	,	38167	,	-18569	,	-15514	,	-25.416025	,	0
13,41	,	38183	,	-18579	,	-15506	,	-26.432411	,	0
13,41	,	38199	,	-18572	,	-15508	,	-27.46312	,	0
13,41	,	38231	,	-18547	,	-15483	,	-28.034496	,	0
13,41	,	38247	,	-18503	,	-15468	,	-27.150295	,	0
13,42	,	38263	,	-18478	,	-15468	,	-23.54267	,	0
13,42	,	38295	,	-18462	,	-15445	,	-16.425034	,	3
13,42	,	38311	,	-18458	,	-15447	,	-6.1214046	,	10
13,42	,	38327	,	-18465	,	-15454	,	5.9549236	,	20
13,42	,	38359	,	-18456	,	-15449	,	17.867964	,	32
13,42	,	38375	,	-18460	,	-15454	,	27.891323	,	43
13,42	,	38407	,	-18453	,	-15448	,	34.937267	,	53
13,42	,	38423	,	-18460	,	-15455	,	38.583694	,	60
13,42	,	38439	,	-18461	,	-15463	,	38.906265	,	63
13,42	,	38470	,	-18463	,	-15465	,	36.317406	,	63
13,42	,	38487	,	-18471	,	-15465	,	31.46577	,	60
13,42	,	38503	,	-18473	,	-15473	,	25.09464	,	53
13,42	,	38535	,	-18483	,	-15452	,	17.919914	,	43
13,42	,	38551	,	-18474	,	-15474	,	10.622994	,	31
13,42	,	38582	,	-18488	,	-15470	,	3.845683	,	20
13,42	,	38599	,	-18494	,	-15472	,	-1.9907598	,	10
13,42	,	38615	,	-18502	,	-15472	,	-6.798517	,	3
13,42	,	38647	,	-18511	,	-15480	,	-10.677938	,	0
13,42	,	38663	,	-18520	,	-15480	,	-13.796085	,	0
13,42	,	38679	,	-18520	,	-15479	,	-16.302187	,	0
13,42	,	38710	,	-18532	,	-15480	,	-18.257683	,	0
13,42	,	38726	,	-18536	,	-15484	,	-19.706657	,	0
13,42	,	38742	,	-18544	,	-15486	,	-20.724869	,	0
13,42	,	38774	,	-18552	,	-15488	,	-21.396523	,	0
13,42	,	38790	,	-18564	,	-15501	,	-21.845682	,	0
13,42	,	38822	,	-18579	,	-15498	,	-22.28247	,	0
13,42	,	38838	,	-18585	,	-15514	,	-22.943325	,	0
13,42	,	38854	,	-18582	,	-15509	,	-23.868475	,	0
13,42	,	38887	,	-18602	,	-15514	,	-24.851675	,	0
13,42	,	38903	,	-18603	,	-15527	,	-25.714722	,	0
13,42	,	38919	,	-18600	,	-15504	,	-26.338417	,	0
13,42	,	38950	,	-18554	,	-15489	,	-26.24667	,	0
13,42	,	38966	,	-18510	,	-15474	,	-24.29414	,	0
13,42	,	38998	,	-18491	,	-15466	,	-19.138172	,	1
13,42	,	39014	,	-18489	,	-15470	,	-10.331088	,	6
13,42	,	39031	,	-18488	,	-15458	,	1.1493597	,	14
13,42	,	39062	,	-18471	,	-15455	,	13.488892	,	25
13,42	,	39079	,	-18473	,	-15449	,	24.946167	,	37
13,42	,	39094	,	-18463	,	-15464	,	34.257324	,	48
13,42	,	39126	,	-18467	,	-15451	,	40.658207	,	57
13,42	,	39142	,	-18461	,	-15450	,	43.852448	,	63
13,42	,	39158	,	-18479	,	-15455	,	43.890118	,	66
13,42	,	39191	,	-18482	,	-15452	,	40.989746	,	65
13,42	,	39207	,	-18481	,	-15461	,	35.574127	,	60
13,42	,	39239	,	-18484	,	-15463	,	28.41369	,	52
13,43	,	39255	,	-18482	,	-15460	,	20.489147	,	41
13,43	,	39270	,	-18485	,	-15449	,	12.722483	,	29
13,43	,	39302	,	-18495	,	-15475	,	5.773653	,	18
13,43	,	39318	,	-18511	,	-15473	,	-0.13210392	,	9
13,43	,	39334	,	-18511	,	-15467	,	-5.124353	,	3
13,43	,	39366	,	-18525	,	-15475	,	-9.382277	,	0
13,43	,	39382	,	-18527	,	-15479	,	-13.003409	,	0
13,43	,	39414	,	-18537	,	-15490	,	-16.034275	,	0
13,43	,	39430	,	-18543	,	-15480	,	-18.497652	,	0
13,43	,	39447	,	-18554	,	-15483	,	-20.446163	,	0
13,43	,	39478	,	-18558	,	-15496	,	-21.96128	,	0
13,43	,	39494	,	-18559	,	-15507	,	-23.058588	,	0
13,43	,	39510	,	-18574	,	-15479	,	-23.698372	,	0
13,43	,	39542	,	-18578	,	-15497	,	-23.934168	,	0
13,43	,	39558	,	-18587	,	-15501	,	-23.916782	,	0
13,43	,	39574	,	-18598	,	-15507	,	-23.806429	,	0
13,43	,	39606	,	-18599	,	-15511	,	-23.72728	,	0
13,43	,	39622	,	-18578	,	-15505	,	-23.552967	,	0
13,43	,	39655	,	-18534	,	-15478	,	-22.574684	,	0
13,43	,	39670	,	-18496	,	-15457	,	-19.52135	,	0
13,43	,	39686	,	-18483	,	-15450	,	-13.271768	,	3
13,43	,	39718	,	-18480	,	-15450	,	-3.7750273	,	9
13,43	,	39734	,	-18471	,	-15448	,	7.789895	,	18
13,43	,	39750	,	-18468	,	-15457	,	19.672031	,	29
13,43	,	39782	,	-18467	,	-15439	,	30.208218	,	40
13,43	,	39798	,	-18448	,	-15440	,	38.22365	,	50
13,43	,	39830	,	-18449	,	-15447	,	43.255135	,	58
13,43	,	39846	,	-18452	,	-15441	,	45.341057	,	63
13,43	,	39862	,	-18464	,	-15437	,	44.621925	,	65
13,43	,	39894	,	-18470	,	-15453	,	41.25724	,	62
13,43	,	39910	,	-18474	,	-15442	,	35.58268	,	56
13,43	,	39926	,	-18477	,	-15448	,	28.215212	,	47
13,43	,	39958	,	-18470	,	-15451	,	20.019394	,	36
13,43	,	39974	,	-18459	,	-15442	,	12.032709	,	25
13,43	,	40006	,	-18474	,	-15462	,	5.206417	,	15
13,43	,	40022	,	-18464	,	-15438	,	0.03218937	,	7
13,43	,	40038	,	-18489	,	-15462	,	-3.5281043	,	2
13,43	,	40070	,	-18504	,	-15463	,	-5.9776597	,	0
13,43	,	40086	,	-18502	,	-15466	,	-8.039794	,	0
13,43	,	40102	,	-18507	,	-15469	,	-10.131289	,	0
13,43	,	40134	,	-18524	,	-15469	,	-12.286956	,	0
13,43	,	40150	,	-18530	,	-15471	,	-14.505417	,	0
13,43	,	40166	,	-18534	,	-15484	,	-16.780811	,	0
13,43	,	40198	,	-18542	,	-15484	,	-18.971172	,	0
13,43	,	40214	,	-18554	,	-15476	,	-20.908804	,	0
13,43	,	40246	,	-18558	,	-15492	,	-22.534483	,	0
13,44	,	40262	,	-18571	,	-15474	,	-23.858013	,	0
13,44	,	40278	,	-18574	,	-15495	,	-24.897642	,	0
13,44	,	40310	,	-18550	,	-15478	,	-25.496067	,	0
13,44	,	40326	,	-18496	,	-15454	,	-24.895988	,	0
13,44	,	40342	,	-18468	,	-15444	,	-21.732132	,	0
13,44	,	40374	,	-18448	,	-15442	,	-14.921563	,	3
13,44	,	40390	,	-18448	,	-15441	,	-4.595586	,	9
13,44	,	40422	,	-18439	,	-15428	,	7.8678484	,	19
13,44	,	40438	,	-18434	,	-15429	,	20.549665	,	31
13,44	,	40454	,	-18423	,	-15428	,	31.748	,	43
13,44	,	40486	,	-18424	,	-15428	,	40.32595	,	54
13,44	,	40502	,	-18408	,	-15416	,	45.744846	,	62
13,44	,	40518	,	-18408	,	-15421	,	48.02966	,	67
13,44	,	40550	,	-18411	,	-15423	,	47.550133	,	69
13,44	,	40566	,	-18421	,	-15424	,	44.695366	,	66
13,44	,	40582	,	-18427	,	-15430	,	39.792675	,	60
13,44	,	40614	,	-18441	,	-15424	,	33.187683	,	50
13,44	,	40630	,	-18426	,	-15428	,	25.376192	,	38
13,44	,	40662	,	-18427	,	-15430	,	17.171131	,	26
13,44	,	40678	,	-18430	,	-15444	,	9.526111	,	15
13,44	,	40694	,	-18441	,	-15427	,	3.0775967	,	7
13,44	,	40726	,	-18439	,	-15431	,	-1.99932	,	2
13,44	,	40742	,	-18453	,	-15442	,	-5.8107824	,	0
13,44	,	40758	,	-18466	,	-15436	,	-8.661896	,	0
13,44	,	40790	,	-18469	,	-15450	,	-10.983953	,	0
13,44	,	40806	,	-18478	,	-15446	,	-13.091329	,	0
13,44	,	40838	,	-18485	,	-15449	,	-15.085348	,	0
13,44	,	40854	,	-18501	,	-15455	,	-17.005915	,	0
13,44	,	40870	,	-18503	,	-15460	,	-18.911873	,	0
13,44	,	40902	,	-18508	,	-15462	,	-20.765684	,	0
13,44	,	40918	,	-18519	,	-15471	,	-22.408123	,	0
13,44	,	40934	,	-18531	,	-15470	,	-23.749699	,	0
13,44	,	40965	,	-18535	,	-15471	,	-24.832539	,	0
13,44	,	40982	,	-18536	,	-15478	,	-25.653149	,	0
13,44	,	40998	,	-18502	,	-15447	,	-25.891161	,	0
13,44	,	41030	,	-18424	,	-15422	,	-24.479385	,	0
13,44	,	41046	,	-18408	,	-15414	,	-19.719997	,	1
13,44	,	41078	,	-18409	,	-15422	,	-10.681602	,	5
13,44	,	41094	,	-18402	,	-15418	,	1.7259378	,	14
13,44	,	41110	,	-18392	,	-15408	,	15.425423	,	26
13,44	,	41141	,	-18391	,	-15406	,	28.32721	,	39
13,44	,	41157	,	-18388	,	-15396	,	38.8149	,	51
13,44	,	41173	,	-18372	,	-15399	,	45.93942	,	61
13,44	,	41206	,	-18368	,	-15394	,	49.54812	,	68
13,44	,	41222	,	-18364	,	-15404	,	50.056038	,	71
13,45	,	41254	,	-18370	,	-15391	,	48.0253	,	70
13,45	,	41270	,	-18374	,	-15409	,	43.94828	,	66
13,45	,	41286	,	-18384	,	-15406	,	38.235535	,	57
13,45	,	41318	,	-18383	,	-15410	,	31.304869	,	45
13,45	,	41333	,	-18389	,	-15404	,	23.677073	,	32
13,45	,	41349	,	-18395	,	-15408	,	15.920509	,	20
13,45	,	41381	,	-18392	,	-15410	,	8.5528965	,	10
13,45	,	41398	,	-18403	,	-15413	,	2.0165625	,	3
13,45	,	41430	,	-18407	,	-15425	,	-3.425765	,	0
13,45	,	41446	,	-18415	,	-15421	,	-7.755682	,	0
13,45	,	41462	,	-18422	,	-15435	,	-11.105689	,	0
13,45	,	41494	,	-18431	,	-15427	,	-13.6730175	,	0
13,45	,	41510	,	-18438	,	-15438	,	-15.669908	,	0
13,45	,	41525	,	-18456	,	-15439	,	-17.327963	,	0
13,45	,	41557	,	-18464	,	-15444	,	-18.925295	,	0
13,45	,	41573	,	-18466	,	-15448	,	-20.63749	,	0
13,45	,	41589	,	-18476	,	-15447	,	-22.39001	,	0
13,45	,	41621	,	-18485	,	-15454	,	-24.002491	,	0
13,45	,	41637	,	-18492	,	-15464	,	-25.358925	,	0
13,45	,	41669	,	-18505	,	-15466	,	-26.423685	,	0
13,45	,	41685	,	-18493	,	-15451	,	-27.148582	,	0
13,45	,	41701	,	-18457	,	-15432	,	-27.128742	,	0
13,45	,	41734	,	-18414	,	-15427	,	-25.321825	,	0
13,45	,	41750	,	-18401	,	-15406	,	-20.514492	,	1
13,45	,	41766	,	-18384	,	-15396	,	-12.264792	,	5
13,45	,	41798	,	-18362	,	-15398	,	-1.198163	,	13
13,45	,	41814	,	-18362	,	-15393	,	11.406358	,	24
13,45	,	41845	,	-18344	,	-15393	,	24.017496	,	36
13,45	,	41861	,	-18347	,	-15387	,	35.184643	,	48
13,45	,	41877	,	-18335	,	-15380	,	43.80643	,	59
13,45	,	41910	,	-18331	,	-15388	,	49.27884	,	67
13,45	,	41925	,	-18334	,	-15393	,	51.49646	,	72
13,45	,	41941	,	-18342	,	-15377	,	50.621075	,	73
13,45	,	41974	,	-18349	,	-15398	,	46.91348	,	69
13,45	,	41989	,	-18352	,	-15384	,	40.798645	,	61
13,45	,	42005	,	-18355	,	-15389	,	32.94584	,	50
13,45	,	42037	,	-18352	,	-15396	,	24.22758	,	38
13,45	,	42053	,	-18357	,	-15398	,	15.568111	,	26
13,45	,	42085	,	-18366	,	-15393	,	7.694623	,	15
13,45	,	42101	,	-18373	,	-15406	,	0.9575157	,	7
13,45	,	42117	,	-18379	,	-15410	,	-4.5948825	,	2
13,45	,	42149	,	-18394	,	-15411	,	-9.081234	,	0
13,45	,	42165	,	-18396	,	-15403	,	-12.721628	,	0
13,45	,	42181	,	-18402	,	-15412	,	-15.690439	,	0
13,45	,	42213	,	-18415	,	-15426	,	-18.059032	,	0
13,45	,	42229	,	-18431	,	-15423	,	-19.974379	,	0
13,46	,	42261	,	-18426	,	-15434	,	-21.647097	,	0
13,46	,	42277	,	-18447	,	-15432	,	-23.147175	,	0
13,46	,	42293	,	-18458	,	-15438	,	-24.510393	,	0
13,46	,	42325	,	-18464	,	-15447	,	-25.854374	,	0
13,46	,	42341	,	-18473	,	-15445	,	-27.201391	,	0
13,46	,	42357	,	-18484	,	-15462	,	-28.453045	,	0
13,46	,	42389	,	-18487	,	-15462	,	-29.503872	,	0
13,46	,	42405	,	-18501	,	-15460	,	-30.258045	,	0
13,46	,	42421	,	-18467	,	-15439	,	-30.489193	,	0
13,46	,	42453	,	-18425	,	-15429	,	-29.441164	,	0
13,46	,	42469	,	-18397	,	-15408	,	-25.83828	,	1
13,46	,	42501	,	-18376	,	-15402	,	-18.725637	,	4
13,46	,	42517	,	-18363	,	-15396	,	-8.190698	,	11
13,46	,	42533	,	-18351	,	-15391	,	4.675455	,	21
13,46	,	42565	,	-18342	,	-15387	,	18.257265	,	33
13,46	,	42581	,	-18339	,	-15386	,	30.895092	,	46
13,46	,	42597	,	-18340	,	-15380	,	41.1626	,	58
13,46	,	42629	,	-18331	,	-15388	,	48.075897	,	68
13,46	,	42645	,	-18325	,	-15382	,	51.31054	,	74
13,46	,	42677	,	-18337	,	-15383	,	51.105785	,	76
13,46	,	42693	,	-18342	,	-15388	,	47.88653	,	73
13,46	,	42709	,	-18352	,	-15404	,	42.11651	,	66
13,46	,	42741	,	-18338	,	-15383	,	34.46768	,	56
13,46	,	42757	,	-18352	,	-15392	,	25.888056	,	44
13,46	,	42773	,	-18358	,	-15398	,	17.281538	,	31
13,46	,	42805	,	-18362	,	-15398	,	9.22752	,	19
13,46	,	42821	,	-18366	,	-15404	,	2.0841274	,	9
13,46	,	42853	,	-18387	,	-15407	,	-3.9838772	,	3
13,46	,	42869	,	-18389	,	-15411	,	-9.086336	,	0
13,46	,	42885	,	-18397	,	-15414	,	-13.407384	,	0
13,46	,	42917	,	-18405	,	-15417	,	-17.005661	,	0
13,46	,	42933	,	-18406	,	-15423	,	-19.854038	,	0
13,46	,	42949	,	-18416	,	-15428	,	-21.904903	,	0
13,46	,	42981	,	-18425	,	-15420	,	-23.18754	,	0
13,46	,	42997	,	-18448	,	-15432	,	-23.948654	,	0
13,46	,	43013	,	-18447	,	-15437	,	-24.583033	,	0
13,46	,	43045	,	-18454	,	-15439	,	-25.312489	,	0
13,46	,	43061	,	-18462	,	-15448	,	-26.067842	,	0
13,46	,	43093	,	-18475	,	-15445	,	-26.730629	,	0
13,46	,	43109	,	-18484	,	-15460	,	-27.29877	,	0
13,46	,	43125	,	-18495	,	-15458	,	-27.833555	,	0
13,46	,	43157	,	-18499	,	-15467	,	-28.358873	,	0
13,46	,	43173	,	-18513	,	-15460	,	-28.834461	,	0
13,46	,	43189	,	-18485	,	-15451	,	-29.064346	,	0
13,46	,	43221	,	-18432	,	-15420	,	-28.275398	,	0
13,46	,	43237	,	-18401	,	-15422	,	-25.022331	,	0
13,47	,	43269	,	-18387	,	-15414	,	-18.122469	,	3
13,47	,	43285	,	-18364	,	-15401	,	-7.5772114	,	9
13,47	,	43301	,	-18372	,	-15414	,	5.4450645	,	19
13,47	,	43333	,	-18365	,	-15397	,	19.055202	,	32
13,47	,	43349	,	-18363	,	-15397	,	31.254288	,	45
13,47	,	43365	,	-18361	,	-15395	,	40.547832	,	57
13,47	,	43397	,	-18344	,	-15391	,	46.234993	,	66
13,47	,	43413	,	-18358	,	-15398	,	48.339226	,	71
13,47	,	43429	,	-18355	,	-15410	,	47.227303	,	73
13,47	,	43461	,	-18369	,	-15408	,	43.33988	,	70
13,47	,	43477	,	-18370	,	-15400	,	37.21109	,	64
13,47	,	43509	,	-18371	,	-15410	,	29.537247	,	54
13,47	,	43525	,	-18378	,	-15408	,	21.156565	,	41
13,47	,	43541	,	-18386	,	-15413	,	12.835821	,	28
13,47	,	43572	,	-18388	,	-15410	,	5.1156836	,	16
13,47	,	43589	,	-18391	,	-15421	,	-1.6181173	,	7
13,47	,	43605	,	-18401	,	-15422	,	-7.116697	,	2
13,47	,	43637	,	-18408	,	-15423	,	-11.353344	,	0
13,47	,	43653	,	-18424	,	-15432	,	-14.530057	,	0
13,47	,	43684	,	-18431	,	-15437	,	-16.988216	,	0
13,47	,	43700	,	-18435	,	-15450	,	-19.023764	,	0
13,47	,	43717	,	-18451	,	-15428	,	-20.779495	,	0
13,47	,	43749	,	-18467	,	-15444	,	-22.396683	,	0
13,47	,	43765	,	-18471	,	-15452	,	-24.0667	,	0
13,47	,	43781	,	-18481	,	-15453	,	-25.835083	,	0
13,47	,	43813	,	-18489	,	-15450	,	-27.562136	,	0
13,47	,	43829	,	-18485	,	-15461	,	-29.013954	,	0
13,47	,	43845	,	-18496	,	-15464	,	-29.904028	,	0
13,47	,	43877	,	-18513	,	-15478	,	-30.108685	,	0
13,47	,	43893	,	-18521	,	-15474	,	-29.842548	,	0
13,47	,	43925	,	-18525	,	-15478	,	-29.415476	,	0
13,47	,	43940	,	-18539	,	-15487	,	-28.985006	,	0
13,47	,	43957	,	-18542	,	-15473	,	-28.612988	,	0
13,47	,	43989	,	-18471	,	-15442	,	-27.928787	,	0
13,47	,	44005	,	-18443	,	-15432	,	-25.601587	,	0
13,47	,	44021	,	-18422	,	-15424	,	-20.067268	,	2
13,47	,	44053	,	-18416	,	-15420	,	-10.88848	,	7
13,47	,	44069	,	-18421	,	-15431	,	0.90496063	,	16
13,47	,	44100	,	-18408	,	-15425	,	13.434978	,	27
13,47	,	44117	,	-18408	,	-15422	,	24.850092	,	39
13,47	,	44132	,	-18403	,	-15410	,	33.839886	,	50
13,47	,	44164	,	-18398	,	-15417	,	39.709816	,	58
13,47	,	44180	,	-18398	,	-15421	,	42.334972	,	63
13,47	,	44196	,	-18402	,	-15417	,	41.979412	,	65
13,47	,	44228	,	-18408	,	-15423	,	39.074028	,	63
13,47	,	44244	,	-18415	,	-15429	,	34.1136	,	58
13,48	,	44260	,	-18422	,	-15425	,	27.630844	,	49
13,48	,	44293	,	-18422	,	-15429	,	20.2242	,	38
13,48	,	44309	,	-18423	,	-15441	,	12.593053	,	26
13,48	,	44340	,	-18429	,	-15440	,	5.4284697	,	15
13,48	,	44357	,	-18441	,	-15444	,	-0.8198471	,	7
13,48	,	44373	,	-18439	,	-15444	,	-5.997375	,	2
13,48	,	44404	,	-18458	,	-15438	,	-10.1239605	,	0
13,48	,	44420	,	-18464	,	-15453	,	-13.384667	,	0
13,48	,	44436	,	-18472	,	-15473	,	-16.060085	,	0
13,48	,	44468	,	-18479	,	-15459	,	-18.328817	,	0
13,48	,	44485	,	-18492	,	-15466	,	-20.266474	,	0
13,48	,	44517	,	-18500	,	-15472	,	-21.961193	,	0
13,48	,	44533	,	-18506	,	-15467	,	-23.485928	,	0
13,48	,	44549	,	-18517	,	-15470	,	-24.833534	,	0
13,48	,	44581	,	-18513	,	-15470	,	-25.914177	,	0
13,48	,	44596	,	-18532	,	-15487	,	-26.602627	,	0
13,48	,	44612	,	-18535	,	-15482	,	-26.884651	,	0
13,48	,	44644	,	-18547	,	-15490	,	-26.892109	,	0
13,48	,	44660	,	-18559	,	-15494	,	-26.803242	,	0
13,48	,	44676	,	-18567	,	-15507	,	-26.798254	,	0
13,48	,	44708	,	-18575	,	-15484	,	-26.98011	,	0
13,48	,	44724	,	-18581	,	-15498	,	-27.313547	,	0
13,48	,	44756	,	-18528	,	-15481	,	-27.387264	,	0
13,48	,	44772	,	-18494	,	-15461	,	-26.03175	,	0
13,48	,	44788	,	-18466	,	-15438	,	-21.744781	,	1
13,48	,	44821	,	-18463	,	-15441	,	-13.821421	,	5
13,48	,	44837	,	-18453	,	-15449	,	-2.9016104	,	12
13,48	,	44852	,	-18449	,	-15439	,	9.435948	,	22
13,48	,	44884	,	-18448	,	-15440	,	21.383545	,	34
13,48	,	44900	,	-18447	,	-15442	,	31.376791	,	45
13,48	,	44932	,	-18442	,	-15453	,	38.36441	,	54
13,48	,	44948	,	-18444	,	-15429	,	41.929367	,	60
13,48	,	44964	,	-18445	,	-15441	,	42.176174	,	63
13,48	,	44996	,	-18460	,	-15451	,	39.489117	,	62
13,48	,	45012	,	-18463	,	-15446	,	34.354546	,	58
13,48	,	45028	,	-18458	,	-15457	,	27.426785	,	51
13,48	,	45060	,	-18462	,	-15450	,	19.621836	,	41
13,48	,	45076	,	-18462	,	-15444	,	11.904419	,	29
13,48	,	45108	,	-18467	,	-15455	,	5.008703	,	18
13,48	,	45124	,	-18476	,	-15450	,	-0.6841335	,	9
13,48	,	45140	,	-18481	,	-15453	,	-5.1485147	,	3
13,48	,	45172	,	-18489	,	-15467	,	-8.5721855	,	0
13,48	,	45188	,	-18499	,	-15469	,	-11.210501	,	0
13,48	,	45204	,	-18505	,	-15478	,	-13.329209	,	0
13,48	,	45236	,	-18521	,	-15475	,	-15.180685	,	0
13,49	,	45252	,	-18527	,	-15479	,	-16.994415	,	0
13,49	,	45268	,	-18530	,	-15486	,	-18.872747	,	0
13,49	,	45300	,	-18540	,	-15486	,	-20.709492	,	0
13,49	,	45316	,	-18546	,	-15499	,	-22.330517	,	0
13,49	,	45348	,	-18548	,	-15491	,	-23.602554	,	0
13,49	,	45364	,	-18567	,	-15492	,	-24.459238	,	0
13,49	,	45380	,	-18573	,	-15494	,	-25.002186	,	0
13,49	,	45412	,	-18576	,	-15509	,	-25.400288	,	0
13,49	,	45428	,	-18590	,	-15511	,	-25.706207	,	0
13,49	,	45444	,	-18593	,	-15507	,	-25.930191	,	0
13,49	,	45476	,	-18588	,	-15497	,	-26.02069	,	0
13,49	,	45492	,	-18534	,	-15486	,	-25.472082	,	0
13,49	,	45524	,	-18494	,	-15466	,	-23.043297	,	0
13,49	,	45540	,	-18482	,	-15457	,	-17.392445	,	2
13,49	,	45556	,	-18468	,	-15449	,	-8.198569	,	7
13,49	,	45588	,	-18468	,	-15455	,	3.5438137	,	16
13,49	,	45604	,	-18469	,	-15444	,	16.04332	,	27
13,49	,	45620	,	-18467	,	-15456	,	27.367828	,	39
13,49	,	45652	,	-18464	,	-15451	,	36.02143	,	50
13,49	,	45668	,	-18471	,	-15457	,	41.19305	,	58
13,49	,	45684	,	-18462	,	-15440	,	42.709793	,	63
13,49	,	45716	,	-18495	,	-15470	,	40.82817	,	64
13,49	,	45732	,	-18488	,	-15461	,	35.951885	,	62
13,49	,	45764	,	-18487	,	-15454	,	28.747427	,	57
13,49	,	45780	,	-18491	,	-15456	,	20.304731	,	48
13,49	,	45796	,	-18490	,	-15465	,	11.783663	,	37
13,49	,	45828	,	-18492	,	-15459	,	4.0940065	,	25
13,49	,	45844	,	-18495	,	-15464	,	-2.1720953	,	14
13,49	,	45860	,	-18509	,	-15462	,	-6.822755	,	6
13,49	,	45892	,	-18511	,	-15470	,	-10.058789	,	1
13,49	,	45908	,	-18518	,	-15483	,	-12.249286	,	0
13,49	,	45940	,	-18530	,	-15479	,	-13.749156	,	0
13,49	,	45956	,	-18536	,	-15481	,	-14.90156	,	0
13,49	,	45972	,	-18544	,	-15481	,	-15.986222	,	0
13,49	,	46004	,	-18555	,	-15491	,	-17.153128	,	0
13,49	,	46020	,	-18554	,	-15491	,	-18.422554	,	0
13,49	,	46036	,	-18574	,	-15493	,	-19.723484	,	0
13,49	,	46068	,	-18581	,	-15503	,	-21.04385	,	0
13,49	,	46084	,	-18587	,	-15507	,	-22.43832	,	0
13,49	,	46100	,	-18592	,	-15512	,	-23.842651	,	0
13,49	,	46132	,	-18602	,	-15516	,	-25.076317	,	0
13,49	,	46148	,	-18617	,	-15517	,	-26.043552	,	0
13,49	,	46180	,	-18607	,	-15519	,	-26.738562	,	0
13,49	,	46196	,	-18590	,	-15498	,	-26.91378	,	0
13,49	,	46212	,	-18500	,	-15463	,	-25.579481	,	0
13,49	,	46244	,	-18486	,	-15445	,	-21.026493	,	1
13,50	,	46260	,	-18483	,	-15453	,	-12.168333	,	5
13,50	,	46276	,	-18484	,	-15459	,	0.20779514	,	13
13,50	,	46308	,	-18472	,	-15445	,	13.985011	,	25
13,50	,	46324	,	-18466	,	-15451	,	26.994669	,	38
13,50	,	46355	,	-18466	,	-15440	,	37.64014	,	51
13,50	,	46372	,	-18469	,	-15449	,	44.91362	,	61
13,50	,	46388	,	-18475	,	-15450	,	48.297295	,	68
13,50	,	46420	,	-18476	,	-15461	,	47.76313	,	71
13,50	,	46436	,	-18487	,	-15441	,	43.7519	,	70
13,50	,	46452	,	-18492	,	-15454	,	37.019806	,	66
13,50	,	46483	,	-18483	,	-15456	,	28.53871	,	58
13,50	,	46499	,	-18490	,	-15454	,	19.453081	,	46
13,50	,	46532	,	-18491	,	-15456	,	10.819763	,	33
13,50	,	46548	,	-18494	,	-15456	,	3.3567343	,	20
13,50	,	46564	,	-18502	,	-15464	,	-2.5846653	,	10
13,50	,	46596	,	-18516	,	-15456	,	-7.0316277	,	3
13,50	,	46612	,	-18524	,	-15468	,	-10.3404	,	0
13,50	,	46628	,	-18519	,	-15474	,	-12.89518	,	0
13,50	,	46660	,	-18539	,	-15487	,	-14.886974	,	0
13,50	,	46675	,	-18536	,	-15467	,	-16.440195	,	0
13,50	,	46691	,	-18550	,	-15483	,	-17.68541	,	0
13,50	,	46724	,	-18561	,	-15489	,	-18.749851	,	0
13,50	,	46740	,	-18573	,	-15498	,	-19.82793	,	0
13,50	,	46772	,	-18576	,	-15500	,	-21.076962	,	0
13,50	,	46788	,	-18580	,	-15504	,	-22.43515	,	0
13,50	,	46804	,	-18595	,	-15505	,	-23.702576	,	0
13,50	,	46835	,	-18599	,	-15515	,	-24.767708	,	0
13,50	,	46851	,	-18593	,	-15514	,	-25.545097	,	0
13,50	,	46867	,	-18566	,	-15483	,	-25.649332	,	0
13,50	,	46899	,	-18521	,	-15462	,	-24.186367	,	0
13,50	,	46915	,	-18487	,	-15441	,	-19.944824	,	1
13,50	,	46948	,	-18480	,	-15449	,	-12.151296	,	5
13,50	,	46964	,	-18460	,	-15437	,	-1.1639147	,	12
13,50	,	46980	,	-18455	,	-15441	,	11.68505	,	22
13,50	,	47012	,	-18457	,	-15434	,	24.637077	,	34
13,50	,	47027	,	-18446	,	-15434	,	35.9481	,	46
13,50	,	47043	,	-18440	,	-15425	,	44.371162	,	57
13,50	,	47076	,	-18445	,	-15426	,	49.345245	,	65
13,50	,	47092	,	-18443	,	-15435	,	50.777916	,	69
13,50	,	47107	,	-18458	,	-15427	,	48.86091	,	69
13,50	,	47139	,	-18462	,	-15437	,	43.98337	,	65
13,50	,	47155	,	-18458	,	-15444	,	36.77958	,	58
13,50	,	47187	,	-18460	,	-15434	,	28.215	,	48
13,50	,	47203	,	-18463	,	-15439	,	19.364729	,	36
13,50	,	47220	,	-18464	,	-15442	,	11.101223	,	24
13,51	,	47251	,	-18469	,	-15445	,	3.9982357	,	13
13,51	,	47268	,	-18476	,	-15444	,	-1.6864557	,	5
13,51	,	47284	,	-18482	,	-15455	,	-5.9908915	,	1
13,51	,	47315	,	-18494	,	-15453	,	-9.161441	,	0
13,51	,	47332	,	-18498	,	-15457	,	-11.545121	,	0
13,51	,	47363	,	-18501	,	-15465	,	-13.422358	,	0
13,51	,	47379	,	-18521	,	-15454	,	-14.968996	,	0
13,51	,	47395	,	-18527	,	-15487	,	-16.410988	,	0
13,51	,	47427	,	-18527	,	-15459	,	-17.932207	,	0
13,51	,	47443	,	-18542	,	-15480	,	-19.49028	,	0
13,51	,	47459	,	-18554	,	-15483	,	-21.004313	,	0
13,51	,	47491	,	-18565	,	-15485	,	-22.534328	,	0
13,51	,	47507	,	-18559	,	-15478	,	-24.085314	,	0
13,51	,	47523	,	-18538	,	-15481	,	-25.281586	,	0
13,51	,	47555	,	-18486	,	-15451	,	-25.144176	,	0
13,51	,	47571	,	-18453	,	-15443	,	-22.238884	,	0
13,51	,	47603	,	-18437	,	-15435	,	-15.482548	,	2
13,51	,	47619	,	-18428	,	-15427	,	-5.002722	,	8
13,51	,	47635	,	-18425	,	-15427	,	7.833352	,	18
13,51	,	47667	,	-18418	,	-15410	,	21.057926	,	30
13,51	,	47683	,	-18410	,	-15420	,	32.823765	,	43
13,51	,	47699	,	-18405	,	-15402	,	41.861668	,	54
13,51	,	47731	,	-18398	,	-15408	,	47.577396	,	63
13,51	,	47747	,	-18399	,	-15412	,	49.925926	,	68
13,51	,	47779	,	-18409	,	-15408	,	49.1504	,	70
13,51	,	47795	,	-18409	,	-15420	,	45.590004	,	68
13,51	,	47811	,	-18406	,	-15410	,	39.778313	,	62
13,51	,	47843	,	-18408	,	-15415	,	32.529133	,	52
13,51	,	47859	,	-18411	,	-15411	,	24.72937	,	40
13,51	,	47875	,	-18418	,	-15413	,	17.089775	,	27
13,51	,	47907	,	-18408	,	-15416	,	10.123828	,	16
13,51	,	47923	,	-18422	,	-15421	,	4.2100086	,	7
13,51	,	47939	,	-18431	,	-15434	,	-0.53500843	,	2
13,51	,	47971	,	-18438	,	-15430	,	-4.3153925	,	0
13,51	,	47987	,	-18461	,	-15430	,	-7.5106277	,	0
13,51	,	48019	,	-18456	,	-15438	,	-10.515651	,	0
13,51	,	48035	,	-18465	,	-15434	,	-13.488096	,	0
13,51	,	48051	,	-18471	,	-15428	,	-16.290401	,	0
13,51	,	48083	,	-18476	,	-15446	,	-18.724514	,	0
13,51	,	48099	,	-18488	,	-15442	,	-20.67184	,	0
13,51	,	48115	,	-18493	,	-15458	,	-22.128563	,	0
13,51	,	48147	,	-18502	,	-15466	,	-23.168844	,	0
13,51	,	48163	,	-18514	,	-15449	,	-23.89663	,	0
13,51	,	48195	,	-18471	,	-15439	,	-24.215853	,	0
13,51	,	48211	,	-18439	,	-15430	,	-23.360518	,	0
13,51	,	48227	,	-18407	,	-15414	,	-20.062069	,	0
13,52	,	48259	,	-18393	,	-15411	,	-13.46113	,	3
13,52	,	48275	,	-18383	,	-15401	,	-3.7479982	,	9
13,52	,	48291	,	-18381	,	-15400	,	7.8820915	,	18
13,52	,	48323	,	-18367	,	-15400	,	19.762527	,	29
13,52	,	48339	,	-18368	,	-15394	,	30.35817	,	40
13,52	,	48355	,	-18365	,	-15394	,	38.535297	,	50
13,52	,	48387	,	-18349	,	-15411	,	43.683468	,	58
13,52	,	48403	,	-18352	,	-15374	,	45.804203	,	63
13,52	,	48435	,	-18365	,	-15394	,	45.20508	,	65
13,52	,	48451	,	-18372	,	-15401	,	42.114113	,	62
13,52	,	48467	,	-18376	,	-15394	,	36.779877	,	56
13,52	,	48499	,	-18373	,	-15395	,	29.744108	,	47
13,52	,	48515	,	-18374	,	-15403	,	21.848581	,	36
13,52	,	48531	,	-18376	,	-15399	,	13.999559	,	25
13,52	,	48563	,	-18381	,	-15398	,	6.906625	,	15
13,52	,	48579	,	-18383	,	-15408	,	0.9781618	,	7
13,52	,	48611	,	-18388	,	-15407	,	-3.6412392	,	2
13,52	,	48627	,	-18396	,	-15412	,	-7.025522	,	0
13,52	,	48643	,	-18411	,	-15406	,	-9.465681	,	0
13,52	,	48675	,	-18419	,	-15416	,	-11.404294	,	0
13,52	,	48691	,	-18431	,	-15428	,	-13.2563305	,	0
13,52	,	48707	,	-18443	,	-15428	,	-15.295243	,	0
13,52	,	48739	,	-18446	,	-15430	,	-17.618736	,	0
13,52	,	48755	,	-18455	,	-15437	,	-20.10459	,	0
13,52	,	48771	,	-18471	,	-15444	,	-22.538849	,	0
13,52	,	48803	,	-18477	,	-15451	,	-24.809216	,	0
13,52	,	48819	,	-18482	,	-15448	,	-26.834856	,	0
13,52	,	48851	,	-18479	,	-15441	,	-28.401943	,	0
13,52	,	48867	,	-18466	,	-15434	,	-29.11333	,	0
13,52	,	48883	,	-18433	,	-15429	,	-28.336994	,	0
13,52	,	48915	,	-18399	,	-15404	,	-25.205843	,	0
13,52	,	48931	,	-18370	,	-15395	,	-18.921944	,	3
13,52	,	48947	,	-18365	,	-15395	,	-9.341237	,	9
13,52	,	48979	,	-18353	,	-15399	,	2.6700869	,	18
13,52	,	48995	,	-18345	,	-15383	,	15.545164	,	30
13,52	,	49027	,	-18338	,	-15391	,	27.642433	,	42
13,52	,	49043	,	-18327	,	-15381	,	37.668507	,	54
13,52	,	49059	,	-18324	,	-15380	,	44.852135	,	64
13,52	,	49091	,	-18322	,	-15378	,	48.899376	,	71
13,52	,	49107	,	-18331	,	-15390	,	49.806953	,	75
13,52	,	49123	,	-18336	,	-15392	,	47.72281	,	72
13,52	,	49155	,	-18337	,	-15378	,	42.986332	,	66
13,52	,	49171	,	-18339	,	-15390	,	36.232693	,	57
13,52	,	49203	,	-18346	,	-15385	,	28.28848	,	45
13,52	,	49219	,	-18352	,	-15396	,	19.923607	,	33
13,52	,	49235	,	-18355	,	-15395	,	11.749287	,	21
13,53	,	49267	,	-18361	,	-15392	,	4.25144	,	11
13,53	,	49283	,	-18369	,	-15399	,	-2.2367563	,	4
13,53	,	49299	,	-18378	,	-15403	,	-7.5948634	,	0
13,53	,	49331	,	-18381	,	-15411	,	-11.866613	,	0
13,53	,	49347	,	-18397	,	-15417	,	-15.182621	,	0
13,53	,	49363	,	-18398	,	-15425	,	-17.735971	,	0
13,53	,	49395	,	-18408	,	-15405	,	-19.700388	,	0
13,53	,	49411	,	-18421	,	-15436	,	-21.208305	,	0
13,53	,	49443	,	-18425	,	-15433	,	-22.4178	,	0
13,53	,	49459	,	-18440	,	-15442	,	-23.473019	,	0
13,53	,	49475	,	-18450	,	-15439	,	-24.48656	,	0
13,53	,	49506	,	-18458	,	-15441	,	-25.551453	,	0
13,53	,	49522	,	-18465	,	-15444	,	-26.666443	,	0
13,53	,	49539	,	-18472	,	-15455	,	-27.717545	,	0
13,53	,	49570	,	-18475	,	-15450	,	-28.532148	,	0
13,53	,	49586	,	-18439	,	-15432	,	-28.72979	,	0
13,53	,	49619	,	-18401	,	-15419	,	-27.40546	,	0
13,53	,	49635	,	-18374	,	-15404	,	-23.334427	,	1
13,53	,	49651	,	-18359	,	-15401	,	-15.8003025	,	5
13,53	,	49682	,	-18340	,	-15392	,	-5.1194468	,	12
13,53	,	49698	,	-18336	,	-15383	,	7.5297728	,	22
13,53	,	49715	,	-18326	,	-15383	,	20.535856	,	34
13,53	,	49747	,	-18320	,	-15382	,	32.2994	,	47
13,53	,	49762	,	-18317	,	-15374	,	41.59019	,	58
13,53	,	49779	,	-18310	,	-15377	,	47.695663	,	67
13,53	,	49811	,	-18321	,	-15374	,	50.370605	,	73
13,53	,	49826	,	-18324	,	-15382	,	49.65882	,	74
13,53	,	49859	,	-18323	,	-15378	,	45.865353	,	70
13,53	,	49875	,	-18323	,	-15392	,	39.665016	,	63
13,53	,	49890	,	-18327	,	-15386	,	31.99047	,	53
13,53	,	49922	,	-18335	,	-15391	,	23.744972	,	41
13,53	,	49938	,	-18340	,	-15388	,	15.610323	,	28
13,53	,	49954	,	-18351	,	-15391	,	8.013456	,	17
13,53	,	49986	,	-18352	,	-15402	,	1.1934767	,	8
13,53	,	50002	,	-18356	,	-15397	,	-4.670978	,	2
13,53	,	50034	,	-18370	,	-15394	,	-9.4556875	,	0
13,53	,	50051	,	-18383	,	-15407	,	-13.248732	,	0
13,53	,	50067	,	-18374	,	-15408	,	-16.25402	,	0
13,53	,	50098	,	-18383	,	-15413	,	-18.495195	,	0
13,53	,	50114	,	-18391	,	-15428	,	-19.907455	,	0
13,53	,	50130	,	-18402	,	-15421	,	-20.62246	,	0
13,53	,	50162	,	-18416	,	-15424	,	-20.972343	,	0
13,53	,	50179	,	-18428	,	-15407	,	-21.351246	,	0
13,53	,	50210	,	-18439	,	-15439	,	-22.076809	,	0
13,53	,	50226	,	-18438	,	-15444	,	-23.22665	,	0
13,53	,	50242	,	-18451	,	-15439	,	-24.602865	,	0
13,54	,	50274	,	-18468	,	-15452	,	-25.986588	,	0
13,54	,	50290	,	-18476	,	-15447	,	-27.35439	,	0
13,54	,	50306	,	-18481	,	-15451	,	-28.722492	,	0
13,54	,	50338	,	-18478	,	-15462	,	-29.912851	,	0
13,54	,	50354	,	-18462	,	-15454	,	-30.475378	,	0
13,54	,	50370	,	-18413	,	-15410	,	-29.579056	,	0
13,54	,	50402	,	-18368	,	-15411	,	-25.957666	,	0
13,54	,	50418	,	-18366	,	-15399	,	-18.545908	,	3
13,54	,	50450	,	-18360	,	-15395	,	-7.5318727	,	10
13,54	,	50467	,	-18348	,	-15391	,	5.576891	,	21
13,54	,	50482	,	-18348	,	-15392	,	18.835295	,	34
13,54	,	50514	,	-18338	,	-15398	,	30.524868	,	47
13,54	,	50530	,	-18325	,	-15378	,	39.498253	,	58
13,54	,	50546	,	-18328	,	-15386	,	45.28941	,	66
13,54	,	50578	,	-18329	,	-15379	,	47.847355	,	71
13,54	,	50594	,	-18330	,	-15397	,	47.318947	,	73
13,54	,	50626	,	-18337	,	-15386	,	44.057693	,	70
13,54	,	50642	,	-18350	,	-15388	,	38.549328	,	63
13,54	,	50658	,	-18352	,	-15392	,	31.316065	,	52
13,54	,	50690	,	-18347	,	-15399	,	23.030855	,	39
13,54	,	50706	,	-18351	,	-15403	,	14.579437	,	26
13,54	,	50722	,	-18348	,	-15400	,	6.8328133	,	15
13,54	,	50754	,	-18365	,	-15407	,	0.3564396	,	7
13,54	,	50770	,	-18381	,	-15405	,	-4.792177	,	2
13,54	,	50786	,	-18375	,	-15409	,	-8.919821	,	0
13,54	,	50818	,	-18390	,	-15415	,	-12.269688	,	0
13,54	,	50834	,	-18395	,	-15418	,	-14.954527	,	0
13,54	,	50866	,	-18401	,	-15431	,	-17.09685	,	0
13,54	,	50882	,	-18415	,	-15420	,	-18.818686	,	0
13,54	,	50898	,	-18425	,	-15433	,	-20.282822	,	0
13,54	,	50930	,	-18442	,	-15439	,	-21.71859	,	0
13,54	,	50946	,	-18449	,	-15448	,	-23.327038	,	0
13,54	,	50962	,	-18461	,	-15445	,	-25.167383	,	0
13,54	,	50994	,	-18461	,	-15448	,	-27.098335	,	0
13,54	,	51010	,	-18462	,	-15449	,	-28.782524	,	0
13,54	,	51042	,	-18480	,	-15464	,	-29.866524	,	0
13,54	,	51058	,	-18477	,	-15456	,	-30.227188	,	0
13,54	,	51074	,	-18489	,	-15470	,	-29.928284	,	0
13,54	,	51106	,	-18505	,	-15480	,	-29.154385	,	0
13,54	,	51122	,	-18514	,	-15458	,	-28.259033	,	0
13,54	,	51138	,	-18458	,	-15437	,	-27.2854	,	0
13,54	,	51170	,	-18421	,	-15428	,	-25.26981	,	0
13,54	,	51186	,	-18397	,	-15424	,	-20.676126	,	2
13,54	,	51202	,	-18394	,	-15420	,	-12.721811	,	6
13,54	,	51234	,	-18393	,	-15415	,	-2.043151	,	13
13,55	,	51250	,	-18381	,	-15413	,	9.755465	,	23
13,55	,	51282	,	-18382	,	-15405	,	20.947435	,	34
13,55	,	51298	,	-18374	,	-15406	,	30.188517	,	45
13,55	,	51314	,	-18380	,	-15405	,	36.629887	,	54
13,55	,	51346	,	-18361	,	-15408	,	39.96708	,	60
13,55	,	51362	,	-18366	,	-15392	,	40.461075	,	63
13,55	,	51378	,	-18380	,	-15413	,	38.61696	,	61
13,55	,	51410	,	-18388	,	-15411	,	34.767365	,	57
13,55	,	51426	,	-18393	,	-15406	,	29.160538	,	50
13,55	,	51458	,	-18390	,	-15414	,	22.27524	,	40
13,55	,	51474	,	-18391	,	-15411	,	14.870401	,	29
13,55	,	51490	,	-18392	,	-15419	,	7.77174	,	18
13,55	,	51522	,	-18395	,	-15419	,	1.6188164	,	9
13,55	,	51538	,	-18407	,	-15419	,	-3.287776	,	3
13,55	,	51554	,	-18417	,	-15421	,	-7.0362077	,	0
13,55	,	51586	,	-18421	,	-15427	,	-9.948528	,	0
13,55	,	51602	,	-18429	,	-15427	,	-12.316053	,	0
13,55	,	51618	,	-18440	,	-15429	,	-14.326613	,	0
13,55	,	51650	,	-18466	,	-15443	,	-16.223494	,	0
13,55	,	51666	,	-18470	,	-15447	,	-18.359526	,	0
13,55	,	51698	,	-18478	,	-15452	,	-20.913979	,	0
13,55	,	51714	,	-18482	,	-15457	,	-23.689133	,	0
13,55	,	51730	,	-18497	,	-15454	,	-26.31837	,	0
13,55	,	51762	,	-18500	,	-15462	,	-28.527489	,	0
13,55	,	51778	,	-18512	,	-15469	,	-30.170235	,	0
13,55	,	51794	,	-18511	,	-15462	,	-31.16045	,	0
13,55	,	51826	,	-18526	,	-15469	,	-31.461548	,	0
13,55	,	51842	,	-18535	,	-15499	,	-31.174036	,	0
13,55	,	51874	,	-18537	,	-15480	,	-30.509066	,	0
13,55	,	51890	,	-18561	,	-15499	,	-29.683514	,	0
13,55	,	51906	,	-18559	,	-15488	,	-28.935047	,	0
13,55	,	51938	,	-18534	,	-15475	,	-28.250011	,	0
13,55	,	51954	,	-18490	,	-15456	,	-26.873123	,	0
13,55	,	51970	,	-18462	,	-15446	,	-23.449377	,	1
13,55	,	52001	,	-18441	,	-15442	,	-16.883965	,	4
13,55	,	52018	,	-18435	,	-15435	,	-7.111807	,	10
13,55	,	52034	,	-18432	,	-15430	,	4.7958765	,	19
13,55	,	52066	,	-18428	,	-15428	,	17.104317	,	30
13,55	,	52082	,	-18433	,	-15446	,	28.040783	,	42
13,55	,	52114	,	-18432	,	-15413	,	36.21055	,	52
13,55	,	52130	,	-18424	,	-15431	,	40.86247	,	60
13,55	,	52146	,	-18427	,	-15435	,	41.991528	,	64
13,55	,	52178	,	-18435	,	-15428	,	40.0677	,	64
13,55	,	52194	,	-18441	,	-15430	,	35.681602	,	61
13,55	,	52210	,	-18436	,	-15423	,	29.500898	,	55
13,55	,	52242	,	-18442	,	-15429	,	22.338808	,	46
13,56	,	52258	,	-18445	,	-15430	,	15.005869	,	35
13,56	,	52290	,	-18448	,	-15432	,	8.119795	,	23
13,56	,	52306	,	-18453	,	-15441	,	2.0840063	,	13
13,56	,	52322	,	-18449	,	-15459	,	-2.8505359	,	5
13,56	,	52354	,	-18468	,	-15440	,	-6.596939	,	1
13,56	,	52370	,	-18469	,	-15450	,	-9.324351	,	0
13,56	,	52386	,	-18491	,	-15450	,	-11.416364	,	0
13,56	,	52417	,	-18500	,	-15457	,	-13.340816	,	0
13,56	,	52434	,	-18507	,	-15459	,	-15.473761	,	0
13,56	,	52450	,	-18507	,	-15466	,	-17.858685	,	0
13,56	,	52482	,	-18521	,	-15475	,	-20.241917	,	0
13,56	,	52498	,	-18531	,	-15473	,	-22.390505	,	0
13,56	,	52530	,	-18535	,	-15480	,	-24.21749	,	0
13,56	,	52546	,	-18531	,	-15477	,	-25.59908	,	0
13,56	,	52562	,	-18543	,	-15486	,	-26.319462	,	0
13,56	,	52594	,	-18555	,	-15497	,	-26.331242	,	0
13,56	,	52610	,	-18565	,	-15476	,	-25.891674	,	0
13,56	,	52625	,	-18579	,	-15497	,	-25.386566	,	0
13,56	,	52657	,	-18592	,	-15502	,	-25.166096	,	0
13,56	,	52674	,	-18592	,	-15502	,	-25.417736	,	0
13,56	,	52705	,	-18551	,	-15482	,	-25.809147	,	0
13,56	,	52722	,	-18519	,	-15464	,	-25.200027	,	0
13,56	,	52737	,	-18490	,	-15459	,	-22.09592	,	0
13,56	,	52769	,	-18477	,	-15450	,	-15.595724	,	3
13,56	,	52785	,	-18471	,	-15447	,	-5.950038	,	9
13,56	,	52801	,	-18464	,	-15440	,	5.5857306	,	18
13,56	,	52833	,	-18476	,	-15461	,	17.25762	,	29
13,56	,	52849	,	-18469	,	-15434	,	27.30399	,	40
13,56	,	52881	,	-18469	,	-15444	,	34.44362	,	50
13,56	,	52897	,	-18471	,	-15447	,	38.142097	,	57
13,56	,	52913	,	-18486	,	-15452	,	38.40422	,	60
13,56	,	52945	,	-18489	,	-15457	,	35.502895	,	60
13,56	,	52962	,	-18480	,	-15463	,	30.041433	,	57
13,56	,	52977	,	-18489	,	-15456	,	23.013346	,	51
13,56	,	53009	,	-18484	,	-15462	,	15.509758	,	42
13,56	,	53025	,	-18488	,	-15449	,	8.431772	,	31
13,56	,	53042	,	-18490	,	-15454	,	2.398141	,	20
13,56	,	53074	,	-18498	,	-15465	,	-2.3174877	,	10
13,56	,	53089	,	-18505	,	-15457	,	-5.7837753	,	3
13,56	,	53121	,	-18514	,	-15459	,	-8.302787	,	0
13,56	,	53137	,	-18528	,	-15471	,	-10.277357	,	0
13,56	,	53153	,	-18530	,	-15467	,	-12.081208	,	0
13,56	,	53185	,	-18538	,	-15476	,	-13.904171	,	0
13,56	,	53201	,	-18556	,	-15483	,	-15.786926	,	0
13,56	,	53217	,	-18564	,	-15490	,	-17.808903	,	0
13,57	,	53249	,	-18570	,	-15475	,	-20.024477	,	0
13,57	,	53265	,	-18577	,	-15489	,	-22.302235	,	0
13,57	,	53297	,	-18581	,	-15493	,	-24.377773	,	0
13,57	,	53313	,	-18588	,	-15506	,	-25.984642	,	0
13,57	,	53329	,	-18596	,	-15508	,	-26.96426	,	0
13,57	,	53361	,	-18602	,	-15506	,	-27.317966	,	0
13,57	,	53377	,	-18617	,	-15511	,	-27.184135	,	0
13,57	,	53393	,	-18620	,	-15517	,	-26.787104	,	0
13,57	,	53425	,	-18580	,	-15487	,	-26.092648	,	0
13,57	,	53441	,	-18536	,	-15462	,	-24.281925	,	0
13,57	,	53457	,	-18507	,	-15461	,	-19.972933	,	1
13,57	,	53489	,	-18497	,	-15454	,	-12.278006	,	5
13,57	,	53505	,	-18496	,	-15453	,	-1.588006	,	12
13,57	,	53537	,	-18500	,	-15444	,	10.538891	,	22
13,57	,	53553	,	-18491	,	-15453	,	22.123838	,	34
13,57	,	53569	,	-18488	,	-15447	,	31.577473	,	45
13,57	,	53601	,	-18487	,	-15449	,	38.02702	,	54
13,57	,	53617	,	-18497	,	-15452	,	41.140312	,	60
13,57	,	53633	,	-18492	,	-15449	,	40.944386	,	63
13,57	,	53665	,	-18505	,	-15458	,	37.816666	,	62
13,57	,	53681	,	-18503	,	-15449	,	32.399567	,	58
13,57	,	53713	,	-18503	,	-15455	,	25.502932	,	51
13,57	,	53729	,	-18504	,	-15455	,	18.048492	,	41
13,57	,	53745	,	-18504	,	-15450	,	10.889979	,	29
13,57	,	53777	,	-18504	,	-15451	,	4.6602936	,	18
13,57	,	53793	,	-18508	,	-15454	,	-0.27022362	,	9
13,57	,	53809	,	-18520	,	-15473	,	-3.860992	,	3
13,57	,	53841	,	-18529	,	-15452	,	-6.412581	,	0
13,57	,	53857	,	-18547	,	-15465	,	-8.433047	,	0
13,57	,	53889	,	-18546	,	-15478	,	-10.408045	,	0
13,57	,	53905	,	-18554	,	-15483	,	-12.550747	,	0
13,57	,	53921	,	-18566	,	-15484	,	-14.807041	,	0
13,57	,	53953	,	-18568	,	-15478	,	-17.063877	,	0
13,57	,	53969	,	-18576	,	-15487	,	-19.182552	,	0
13,57	,	53985	,	-18589	,	-15493	,	-21.028605	,	0
13,57	,	54017	,	-18600	,	-15498	,	-22.608438	,	0
13,57	,	54033	,	-18599	,	-15497	,	-23.988995	,	0
13,57	,	54049	,	-18613	,	-15500	,	-25.133068	,	0
13,57	,	54081	,	-18618	,	-15492	,	-25.974678	,	0
13,57	,	54097	,	-18584	,	-15476	,	-26.317848	,	0
13,57	,	54129	,	-18537	,	-15467	,	-25.35038	,	0
13,57	,	54145	,	-18509	,	-15451	,	-21.715563	,	0
13,57	,	54161	,	-18499	,	-15436	,	-14.504428	,	3
13,57	,	54193	,	-18484	,	-15441	,	-4.022584	,	10
13,57	,	54209	,	-18483	,	-15439	,	8.389262	,	20
13,57	,	54225	,	-18476	,	-15437	,	20.954422	,	32
13,58	,	54257	,	-18473	,	-15436	,	31.996965	,	44
13,58	,	54273	,	-18471	,	-15438	,	40.30011	,	55
13,58	,	54305	,	-18471	,	-15437	,	45.214363	,	63
13,58	,	54321	,	-18464	,	-15427	,	46.6496	,	67
13,58	,	54337	,	-18468	,	-15446	,	45.006798	,	68
13,58	,	54369	,	-18489	,	-15441	,	40.861023	,	65
13,58	,	54385	,	-18486	,	-15444	,	34.68535	,	58
13,58	,	54401	,	-18488	,	-15440	,	27.044085	,	48
13,58	,	54433	,	-18490	,	-15430	,	18.759962	,	36
13,58	,	54449	,	-18493	,	-15438	,	10.682507	,	24
13,58	,	54465	,	-18491	,	-15442	,	3.4889545	,	13
13,58	,	54497	,	-18495	,	-15445	,	-2.3466673	,	5
13,58	,	54512	,	-18504	,	-15443	,	-6.6351175	,	1
13,58	,	54545	,	-18513	,	-15458	,	-9.546613	,	0
13,58	,	54561	,	-18523	,	-15466	,	-11.503557	,	0
13,58	,	54576	,	-18526	,	-15454	,	-12.949308	,	0
13,58	,	54609	,	-18537	,	-15456	,	-14.190968	,	0
13,58	,	54625	,	-18548	,	-15468	,	-15.428946	,	0
13,58	,	54641	,	-18557	,	-15473	,	-16.825014	,	0
13,58	,	54673	,	-18560	,	-15471	,	-18.430595	,	0
13,58	,	54689	,	-18571	,	-15479	,	-20.137903	,	0
13,58	,	54721	,	-18577	,	-15485	,	-21.78455	,	0
13,58	,	54737	,	-18592	,	-15490	,	-23.271551	,	0
13,58	,	54753	,	-18596	,	-15488	,	-24.586712	,	0
13,58	,	54784	,	-18582	,	-15487	,	-25.61391	,	0
13,58	,	54800	,	-18548	,	-15479	,	-25.786423	,	0
13,58	,	54817	,	-18507	,	-15434	,	-24.003109	,	0
13,58	,	54848	,	-18468	,	-15433	,	-19.023117	,	1
13,58	,	54864	,	-18452	,	-15430	,	-10.167033	,	5
13,58	,	54880	,	-18446	,	-15415	,	2.082405	,	13
13,58	,	54913	,	-18451	,	-15423	,	16.055069	,	25
13,58	,	54929	,	-18438	,	-15416	,	29.55035	,	38
13,58	,	54960	,	-18433	,	-15409	,	40.71931	,	51
13,58	,	54977	,	-18432	,	-15411	,	48.489677	,	62
13,58	,	54992	,	-18425	,	-15412	,	52.48586	,	69
13,58	,	55025	,	-18432	,	-15414	,	52.849815	,	72
13,58	,	55041	,	-18428	,	-15433	,	50.054916	,	71
13,58	,	55057	,	-18448	,	-15411	,	44.706776	,	67
13,58	,	55089	,	-18442	,	-15410	,	37.43282	,	59
13,58	,	55105	,	-18439	,	-15415	,	28.993124	,	47
13,58	,	55136	,	-18445	,	-15413	,	20.31641	,	34
13,58	,	55152	,	-18450	,	-15420	,	12.200718	,	21
13,58	,	55168	,	-18450	,	-15428	,	5.131872	,	10
13,58	,	55200	,	-18460	,	-15422	,	-0.6593399	,	3
13,58	,	55216	,	-18476	,	-15436	,	-5.2280045	,	0
13,58	,	55233	,	-18485	,	-15439	,	-8.918312	,	0
13,59	,	55264	,	-18484	,	-15441	,	-12.090595	,	0
13,59	,	55280	,	-18493	,	-15437	,	-14.853498	,	0
13,59	,	55296	,	-18494	,	-15436	,	-17.126478	,	0
13,59	,	55328	,	-18515	,	-15439	,	-18.878727	,	0
13,59	,	55344	,	-18522	,	-15461	,	-20.280369	,	0
13,59	,	55376	,	-18537	,	-15463	,	-21.611689	,	0
13,59	,	55392	,	-18547	,	-15458	,	-23.085728	,	0
13,59	,	55408	,	-18551	,	-15472	,	-24.758322	,	0
13,59	,	55441	,	-18553	,	-15477	,	-26.451382	,	0
13,59	,	55456	,	-18542	,	-15461	,	-27.731682	,	0
13,59	,	55472	,	-18485	,	-15432	,	-27.771671	,	0
13,59	,	55505	,	-18447	,	-15419	,	-25.208395	,	0
13,59	,	55520	,	-18437	,	-15422	,	-18.816391	,	2
13,59	,	55552	,	-18429	,	-15416	,	-8.590809	,	8
13,59	,	55568	,	-18417	,	-15400	,	4.148741	,	18
13,59	,	55584	,	-18406	,	-15400	,	17.55586	,	30
13,59	,	55616	,	-18400	,	-15398	,	29.935322	,	43
13,59	,	55632	,	-18391	,	-15385	,	40.02191	,	55
13,59	,	55648	,	-18389	,	-15387	,	47.06191	,	65
13,59	,	55680	,	-18386	,	-15391	,	50.768925	,	72
13,59	,	55696	,	-18400	,	-15391	,	51.16278	,	75
13,59	,	55712	,	-18405	,	-15394	,	48.41012	,	73
13,59	,	55744	,	-18401	,	-15388	,	42.903084	,	67
13,59	,	55760	,	-18400	,	-15399	,	35.43492	,	57
13,59	,	55792	,	-18416	,	-15403	,	26.989796	,	45
13,59	,	55808	,	-18410	,	-15389	,	18.383057	,	32
13,59	,	55824	,	-18420	,	-15412	,	10.23801	,	20
13,59	,	55856	,	-18429	,	-15415	,	2.991166	,	10
13,59	,	55872	,	-18437	,	-15413	,	-3.201334	,	3
13,59	,	55888	,	-18444	,	-15416	,	-8.369145	,	0
13,59	,	55920	,	-18441	,	-15410	,	-12.538127	,	0
13,59	,	55936	,	-18446	,	-15421	,	-15.641956	,	0
13,59	,	55968	,	-18461	,	-15422	,	-17.66677	,	0
13,59	,	55984	,	-18463	,	-15426	,	-18.82797	,	0
13,59	,	56000	,	-18465	,	-15428	,	-19.409325	,	0
13,59	,	56032	,	-18475	,	-15436	,	-19.574223	,	0
13,59	,	56048	,	-18483	,	-15438	,	-19.467857	,	0
13,59	,	56064	,	-18497	,	-15442	,	-19.325645	,	0
13,59	,	56096	,	-18509	,	-15458	,	-19.4368	,	0
13,59	,	56112	,	-18514	,	-15455	,	-20.015476	,	0
13,59	,	56128	,	-18498	,	-15439	,	-20.945526	,	0
13,59	,	56160	,	-18464	,	-15422	,	-21.510399	,	0
13,59	,	56176	,	-18420	,	-15403	,	-20.397472	,	0
13,59	,	56208	,	-18409	,	-15405	,	-16.277975	,	1
13,59	,	56224	,	-18396	,	-15406	,	-8.712175	,	5
13,59	,	56240	,	-18391	,	-15397	,	1.5266333	,	12
14,0	,	56272	,	-18384	,	-15392	,	12.919065	,	22
14,0	,	56288	,	-18374	,	-15390	,	23.845695	,	33
14,0	,	56304	,	-18371	,	-15377	,	33.025578	,	43
14,0	,	56336	,	-18352	,	-15388	,	39.72007	,	52
14,0	,	56352	,	-18348	,	-15377	,	43.77644	,	58
14,0	,	56384	,	-18362	,	-15376	,	45.338512	,	62
14,0	,	56400	,	-18362	,	-15383	,	44.46365	,	62
14,0	,	56416	,	-18384	,	-15379	,	41.144802	,	58
14,0	,	56448	,	-18375	,	-15376	,	35.549286	,	51
14,0	,	56464	,	-18381	,	-15388	,	28.230341	,	41
14,0	,	56480	,	-18375	,	-15384	,	20.106735	,	30
14,0	,	56512	,	-18374	,	-15386	,	12.177326	,	20
14,0	,	56528	,	-18382	,	-15409	,	5.2330008	,	11
14,0	,	56560	,	-18390	,	-15385	,	-0.35999775	,	5
14,0	,	56576	,	-18410	,	-15400	,	-4.7238317	,	1
14,0	,	56592	,	-18409	,	-15404	,	-8.271579	,	0
14,0	,	56624	,	-18419	,	-15412	,	-11.342728	,	0
14,0	,	56640	,	-18435	,	-15413	,	-14.09964	,	0
14,0	,	56656	,	-18437	,	-15417	,	-16.669712	,	0
14,0	,	56688	,	-18440	,	-15422	,	-19.06291	,	0
14,0	,	56704	,	-18462	,	-15423	,	-21.173231	,	0
14,0	,	56720	,	-18463	,	-15426	,	-23.007019	,	0
14,0	,	56752	,	-18470	,	-15431	,	-24.609188	,	0
14,0	,	56768	,	-18473	,	-15447	,	-25.877129	,	0
14,0	,	56800	,	-18481	,	-15425	,	-26.650633	,	0
14,0	,	56816	,	-18508	,	-15451	,	-26.96268	,	0
14,0	,	56832	,	-18506	,	-15447	,	-27.118614	,	0
14,0	,	56864	,	-18466	,	-15423	,	-27.13913	,	0
14,0	,	56880	,	-18424	,	-15404	,	-26.094147	,	0
14,0	,	56896	,	-18401	,	-15399	,	-22.492117	,	1
14,0	,	56928	,	-18381	,	-15389	,	-15.401203	,	4
14,0	,	56944	,	-18377	,	-15387	,	-5.082282	,	11
14,0	,	56976	,	-18378	,	-15388	,	7.12527	,	21
14,0	,	56992	,	-18356	,	-15375	,	19.423409	,	33
14,0	,	57008	,	-18354	,	-15377	,	30.313951	,	45
14,0	,	57040	,	-18346	,	-15366	,	38.853508	,	55
14,0	,	57056	,	-18345	,	-15369	,	44.51843	,	63
14,0	,	57072	,	-18338	,	-15370	,	47.165634	,	68
14,0	,	57104	,	-18340	,	-15376	,	47.00412	,	69
14,0	,	57120	,	-18356	,	-15376	,	44.380924	,	66
14,0	,	57136	,	-18348	,	-15377	,	39.63034	,	59
14,0	,	57168	,	-18349	,	-15378	,	33.262703	,	49
14,0	,	57184	,	-18343	,	-15375	,	26.083263	,	37
14,0	,	57216	,	-18352	,	-15372	,	18.935827	,	25
14,0	,	57232	,	-18368	,	-15387	,	12.333081	,	15
14,1	,	57248	,	-18364	,	-15383	,	6.38237	,	7
14,1	,	57280	,	-18369	,	-15395	,	1.108695	,	2
14,1	,	57296	,	-18381	,	-15384	,	-3.4033375	,	0
14,1	,	57312	,	-18388	,	-15403	,	-7.184498	,	0
14,1	,	57344	,	-18396	,	-15403	,	-10.385115	,	0
14,1	,	57360	,	-18413	,	-15408	,	-13.187878	,	0
14,1	,	57392	,	-18421	,	-15408	,	-15.815126	,	0
14,1	,	57408	,	-18431	,	-15411	,	-18.441074	,	0
14,1	,	57424	,	-18437	,	-15412	,	-21.067055	,	0
14,1	,	57456	,	-18439	,	-15423	,	-23.512596	,	0
14,1	,	57472	,	-18449	,	-15425	,	-25.508972	,	0
14,1	,	57488	,	-18453	,	-15428	,	-26.858915	,	0
14,1	,	57520	,	-18467	,	-15439	,	-27.540031	,	0
14,1	,	57536	,	-18471	,	-15427	,	-27.688875	,	0
14,1	,	57552	,	-18496	,	-15436	,	-27.569752	,	0
14,1	,	57584	,	-18502	,	-15450	,	-27.549952	,	0
14,1	,	57600	,	-18470	,	-15434	,	-27.716034	,	0
14,1	,	57632	,	-18429	,	-15421	,	-27.267227	,	0
14,1	,	57648	,	-18400	,	-15399	,	-24.692482	,	0
14,1	,	57664	,	-18380	,	-15392	,	-18.78651	,	2
14,1	,	57696	,	-18369	,	-15387	,	-9.4319935	,	7
14,1	,	57712	,	-18367	,	-15385	,	2.3538113	,	16
14,1	,	57728	,	-18362	,	-15379	,	14.86514	,	27
14,1	,	57759	,	-18348	,	-15388	,	26.377518	,	39
14,1	,	57775	,	-18347	,	-15371	,	35.667812	,	50
14,1	,	57808	,	-18334	,	-15373	,	42.11522	,	59
14,1	,	57824	,	-18331	,	-15375	,	45.610394	,	65
14,1	,	57840	,	-18338	,	-15376	,	46.352715	,	68
14,1	,	57872	,	-18343	,	-15377	,	44.5744	,	66
14,1	,	57888	,	-18352	,	-15381	,	40.5003	,	61
14,1	,	57904	,	-18344	,	-15383	,	34.53232	,	52
14,1	,	57935	,	-18357	,	-15375	,	27.330729	,	41
14,1	,	57951	,	-18345	,	-15386	,	19.681795	,	29
14,1	,	57983	,	-18361	,	-15384	,	12.32	,	18
14,1	,	57999	,	-18365	,	-15393	,	5.726307	,	9
14,1	,	58016	,	-18372	,	-15382	,	0.047800064	,	3
14,1	,	58048	,	-18380	,	-15390	,	-4.744175	,	0
14,1	,	58064	,	-18387	,	-15401	,	-8.7360935	,	0
14,1	,	58079	,	-18408	,	-15411	,	-12.104529	,	0
14,1	,	58111	,	-18414	,	-15409	,	-15.135723	,	0
14,1	,	58127	,	-18407	,	-15411	,	-17.980307	,	0
14,1	,	58143	,	-18422	,	-15420	,	-20.45885	,	0
14,1	,	58175	,	-18431	,	-15416	,	-22.368408	,	0
14,1	,	58191	,	-18442	,	-15434	,	-23.753105	,	0
14,1	,	58223	,	-18454	,	-15426	,	-24.799969	,	0
14,1	,	58240	,	-18458	,	-15432	,	-25.679476	,	0
14,2	,	58255	,	-18467	,	-15440	,	-26.444502	,	0
14,2	,	58287	,	-18472	,	-15441	,	-27.039864	,	0
14,2	,	58303	,	-18489	,	-15448	,	-27.43827	,	0
14,2	,	58319	,	-18504	,	-15457	,	-27.771393	,	0
14,2	,	58351	,	-18499	,	-15459	,	-28.209	,	0
14,2	,	58367	,	-18512	,	-15453	,	-28.700336	,	0
14,2	,	58399	,	-18514	,	-15460	,	-29.035877	,	0
14,2	,	58415	,	-18487	,	-15438	,	-28.88813	,	0
14,2	,	58431	,	-18437	,	-15423	,	-27.441936	,	0
14,2	,	58463	,	-18410	,	-15409	,	-23.397985	,	1
14,2	,	58479	,	-18399	,	-15406	,	-15.858401	,	5
14,2	,	58495	,	-18381	,	-15412	,	-5.093525	,	12
14,2	,	58527	,	-18378	,	-15383	,	7.627077	,	22
14,2	,	58543	,	-18368	,	-15387	,	20.610464	,	34
14,2	,	58559	,	-18370	,	-15389	,	32.19851	,	46
14,2	,	58591	,	-18357	,	-15381	,	41.125206	,	57
14,2	,	58607	,	-18355	,	-15381	,	46.75654	,	65
14,2	,	58639	,	-18356	,	-15380	,	49.036427	,	70
14,2	,	58655	,	-18376	,	-15397	,	48.14071	,	71
14,2	,	58671	,	-18376	,	-15394	,	44.276413	,	67
14,2	,	58703	,	-18368	,	-15386	,	37.921967	,	60
14,2	,	58719	,	-18367	,	-15394	,	30.038519	,	50
14,2	,	58735	,	-18373	,	-15398	,	21.760775	,	38
14,2	,	58767	,	-18383	,	-15389	,	13.919918	,	26
14,2	,	58783	,	-18377	,	-15393	,	6.957923	,	15
14,2	,	58815	,	-18392	,	-15404	,	1.1062489	,	7
14,2	,	58831	,	-18403	,	-15413	,	-3.633627	,	2
14,2	,	58847	,	-18411	,	-15411	,	-7.524043	,	0
14,2	,	58879	,	-18424	,	-15418	,	-10.88919	,	0
14,2	,	58895	,	-18424	,	-15416	,	-13.933363	,	0
14,2	,	58911	,	-18441	,	-15427	,	-16.709097	,	0
14,2	,	58943	,	-18455	,	-15432	,	-19.265287	,	0
14,2	,	58959	,	-18453	,	-15438	,	-21.690456	,	0
14,2	,	58991	,	-18460	,	-15433	,	-23.895916	,	0
14,2	,	59007	,	-18476	,	-15437	,	-25.677216	,	0
14,2	,	59023	,	-18472	,	-15444	,	-26.946453	,	0
14,2	,	59055	,	-18493	,	-15450	,	-27.711807	,	0
14,2	,	59071	,	-18507	,	-15452	,	-28.125023	,	0
14,2	,	59087	,	-18512	,	-15449	,	-28.48062	,	0
14,2	,	59119	,	-18522	,	-15465	,	-28.952087	,	0
14,2	,	59135	,	-18536	,	-15455	,	-29.543972	,	0
14,2	,	59151	,	-18544	,	-15466	,	-30.242523	,	0
14,2	,	59183	,	-18529	,	-15464	,	-30.89463	,	0
14,2	,	59199	,	-18507	,	-15445	,	-30.91578	,	0
14,2	,	59231	,	-18462	,	-15433	,	-29.238037	,	0
14,2	,	59247	,	-18440	,	-15433	,	-24.671993	,	1
14,3	,	59263	,	-18426	,	-15403	,	-16.619923	,	5
14,3	,	59295	,	-18408	,	-15411	,	-5.5392685	,	13
14,3	,	59311	,	-18408	,	-15416	,	7.274131	,	24
14,3	,	59327	,	-18400	,	-15404	,	20.142282	,	36
14,3	,	59359	,	-18400	,	-15401	,	31.432224	,	48
14,3	,	59375	,	-18391	,	-15400	,	39.94332	,	59
14,3	,	59407	,	-18397	,	-15405	,	45.06124	,	67
14,3	,	59423	,	-18404	,	-15407	,	46.623756	,	72
14,3	,	59439	,	-18415	,	-15415	,	44.73551	,	72
14,3	,	59471	,	-18419	,	-15415	,	39.766785	,	68
14,3	,	59487	,	-18416	,	-15426	,	32.45359	,	60
14,3	,	59503	,	-18419	,	-15402	,	23.854876	,	49
14,3	,	59535	,	-18424	,	-15419	,	15.062956	,	37
14,3	,	59551	,	-18425	,	-15418	,	6.925167	,	25
14,3	,	59567	,	-18432	,	-15425	,	-0.018218994	,	14
14,3	,	59599	,	-18442	,	-15425	,	-5.5516753	,	6
14,3	,	59615	,	-18447	,	-15431	,	-9.765768	,	1
14,3	,	59647	,	-18454	,	-15440	,	-12.8951235	,	0
14,3	,	59663	,	-18472	,	-15437	,	-15.22687	,	0
14,3	,	59679	,	-18480	,	-15442	,	-17.131693	,	0
14,3	,	59711	,	-18481	,	-15443	,	-18.91143	,	0
14,3	,	59727	,	-18490	,	-15461	,	-20.600845	,	0
14,3	,	59743	,	-18508	,	-15447	,	-22.130491	,	0
14,3	,	59775	,	-18521	,	-15462	,	-23.595615	,	0
14,3	,	59791	,	-18535	,	-15474	,	-25.206673	,	0
14,3	,	59823	,	-18542	,	-15469	,	-27.075	,	0
14,3	,	59839	,	-18546	,	-15472	,	-29.082783	,	0
14,3	,	59855	,	-18551	,	-15475	,	-30.901815	,	0
14,3	,	59887	,	-18558	,	-15484	,	-32.171497	,	0
14,3	,	59903	,	-18569	,	-15489	,	-32.702103	,	0
14,3	,	59919	,	-18573	,	-15488	,	-32.522305	,	0
14,3	,	59950	,	-18566	,	-15480	,	-31.694078	,	0
14,3	,	59966	,	-18519	,	-15458	,	-29.907063	,	0
14,3	,	59983	,	-18476	,	-15444	,	-26.182894	,	1
14,3	,	60015	,	-18458	,	-15430	,	-19.362003	,	4
14,3	,	60030	,	-18442	,	-15427	,	-9.116486	,	10
14,3	,	60063	,	-18436	,	-15426	,	3.6727715	,	20
14,3	,	60079	,	-18439	,	-15426	,	17.30017	,	32
14,3	,	60095	,	-18440	,	-15425	,	29.782808	,	45
14,3	,	60126	,	-18427	,	-15429	,	39.480537	,	57
14,3	,	60142	,	-18439	,	-15415	,	45.5142	,	66
14,3	,	60158	,	-18439	,	-15423	,	47.640465	,	72
14,3	,	60191	,	-18448	,	-15433	,	46.025406	,	73
14,3	,	60207	,	-18450	,	-15434	,	41.209946	,	70
14,3	,	60239	,	-18450	,	-15444	,	34.064102	,	64
14,4	,	60254	,	-18451	,	-15422	,	25.667383	,	54
14,4	,	60270	,	-18463	,	-15435	,	17.045609	,	42
14,4	,	60303	,	-18470	,	-15430	,	8.885249	,	29
14,4	,	60319	,	-18469	,	-15448	,	1.5633287	,	17
14,4	,	60335	,	-18477	,	-15447	,	-4.6455474	,	8
14,4	,	60366	,	-18488	,	-15446	,	-9.596814	,	2
14,4	,	60382	,	-18488	,	-15450	,	-13.356144	,	0
14,4	,	60398	,	-18498	,	-15466	,	-16.069424	,	0
14,4	,	60430	,	-18509	,	-15455	,	-17.919369	,	0
14,4	,	60446	,	-18513	,	-15468	,	-19.167017	,	0
14,4	,	60479	,	-18519	,	-15483	,	-20.034035	,	0
14,4	,	60494	,	-18534	,	-15449	,	-20.66507	,	0
14,4	,	60510	,	-18540	,	-15476	,	-21.227207	,	0
14,4	,	60543	,	-18552	,	-15475	,	-21.880447	,	0
14,4	,	60559	,	-18560	,	-15479	,	-22.706379	,	0
14,4	,	60575	,	-18572	,	-15477	,	-23.723606	,	0
14,4	,	60607	,	-18569	,	-15494	,	-24.853111	,	0
14,4	,	60622	,	-18580	,	-15493	,	-25.87094	,	0
14,4	,	60654	,	-18572	,	-15476	,	-26.481655	,	0
14,4	,	60670	,	-18535	,	-15470	,	-26.204466	,	0
14,4	,	60686	,	-18493	,	-15443	,	-24.078148	,	0
14,4	,	60718	,	-18470	,	-15448	,	-18.945774	,	2
14,4	,	60734	,	-18471	,	-15433	,	-10.386775	,	7
14,4	,	60751	,	-18457	,	-15431	,	0.7683773	,	15
14,4	,	60782	,	-18455	,	-15429	,	12.900352	,	26
14,4	,	60798	,	-18449	,	-15433	,	24.322176	,	38
14,4	,	60815	,	-18454	,	-15425	,	33.64178	,	49
14,4	,	60846	,	-18450	,	-15421	,	39.912125	,	58
14,4	,	60862	,	-18450	,	-15423	,	42.743217	,	64
14,4	,	60894	,	-18459	,	-15432	,	42.258797	,	66
14,4	,	60910	,	-18468	,	-15441	,	38.85588	,	64
14,4	,	60927	,	-18470	,	-15445	,	33.07041	,	59
14,4	,	60958	,	-18468	,	-15442	,	25.659355	,	51
14,4	,	60974	,	-18476	,	-15440	,	17.56075	,	40
14,4	,	60990	,	-18468	,	-15438	,	9.67452	,	28
14,4	,	61022	,	-18482	,	-15461	,	2.7023134	,	17
14,4	,	61038	,	-18492	,	-15447	,	-3.018052	,	8
14,4	,	61070	,	-18499	,	-15449	,	-7.5602846	,	2
14,4	,	61086	,	-18511	,	-15446	,	-11.189896	,	0
14,4	,	61103	,	-18517	,	-15459	,	-14.177053	,	0
14,4	,	61135	,	-18519	,	-15473	,	-16.688536	,	0
14,4	,	61150	,	-18531	,	-15469	,	-18.750225	,	0
14,4	,	61166	,	-18533	,	-15465	,	-20.352852	,	0
14,4	,	61198	,	-18537	,	-15461	,	-21.480291	,	0
14,4	,	61215	,	-18547	,	-15486	,	-22.106182	,	0
14,5	,	61246	,	-18557	,	-15464	,	-22.313276	,	0
14,5	,	61262	,	-18569	,	-15478	,	-22.336723	,	0
14,5	,	61278	,	-18583	,	-15490	,	-22.481243	,	0
14,5	,	61311	,	-18585	,	-15497	,	-22.976429	,	0
14,5	,	61326	,	-18570	,	-15475	,	-23.704197	,	0
14,5	,	61343	,	-18531	,	-15467	,	-23.918877	,	0
14,5	,	61374	,	-18485	,	-15454	,	-22.25777	,	0
14,5	,	61390	,	-18470	,	-15447	,	-17.344065	,	1
14,5	,	61406	,	-18462	,	-15425	,	-8.761539	,	5
14,5	,	61438	,	-18452	,	-15432	,	2.5792627	,	13
14,5	,	61454	,	-18453	,	-15436	,	14.965741	,	24
14,5	,	61486	,	-18452	,	-15418	,	26.535666	,	36
14,5	,	61502	,	-18449	,	-15427	,	35.73324	,	47
14,5	,	61518	,	-18440	,	-15428	,	41.664375	,	56
14,5	,	61550	,	-18446	,	-15426	,	44.1537	,	61
14,5	,	61566	,	-18465	,	-15426	,	43.38171	,	63
14,5	,	61582	,	-18460	,	-15428	,	39.621353	,	62
14,5	,	61614	,	-18461	,	-15435	,	33.447845	,	58
14,5	,	61630	,	-18460	,	-15439	,	25.837505	,	50
14,5	,	61662	,	-18456	,	-15426	,	17.88665	,	39
14,5	,	61678	,	-18459	,	-15432	,	10.543582	,	27
14,5	,	61694	,	-18459	,	-15432	,	4.4458036	,	16
14,5	,	61726	,	-18461	,	-15441	,	-0.13412666	,	7
14,5	,	61742	,	-18478	,	-15431	,	-3.287848	,	2
14,5	,	61758	,	-18497	,	-15454	,	-5.5200367	,	0
14,5	,	61790	,	-18495	,	-15443	,	-7.529269	,	0
14,5	,	61806	,	-18500	,	-15466	,	-9.707115	,	0
14,5	,	61822	,	-18503	,	-15460	,	-11.990703	,	0
14,5	,	61854	,	-18519	,	-15455	,	-14.182758	,	0
14,5	,	61870	,	-18517	,	-15458	,	-16.185692	,	0
14,5	,	61902	,	-18527	,	-15464	,	-17.93567	,	0
14,5	,	61918	,	-18542	,	-15473	,	-19.401588	,	0
14,5	,	61934	,	-18540	,	-15469	,	-20.649462	,	0
14,5	,	61966	,	-18554	,	-15488	,	-21.721579	,	0
14,5	,	61982	,	-18556	,	-15469	,	-22.59537	,	0
14,5	,	61998	,	-18482	,	-15445	,	-22.854603	,	0
14,5	,	62030	,	-18456	,	-15439	,	-21.175446	,	0
14,5	,	62046	,	-18428	,	-15415	,	-16.025457	,	1
14,5	,	62078	,	-18430	,	-15415	,	-7.0153418	,	6
14,5	,	62094	,	-18425	,	-15415	,	4.7465324	,	15
14,5	,	62110	,	-18424	,	-15410	,	17.283394	,	26
14,5	,	62142	,	-18412	,	-15411	,	28.647568	,	38
14,5	,	62158	,	-18411	,	-15401	,	37.50084	,	49
14,5	,	62174	,	-18399	,	-15406	,	43.21796	,	57
14,5	,	62206	,	-18404	,	-15410	,	45.748817	,	62
14,5	,	62222	,	-18408	,	-15397	,	45.347122	,	64
14,5	,	62238	,	-18425	,	-15407	,	42.298397	,	63
14,6	,	62270	,	-18420	,	-15410	,	36.923912	,	58
14,6	,	62286	,	-18417	,	-15403	,	29.83994	,	49
14,6	,	62318	,	-18419	,	-15413	,	21.992727	,	38
14,6	,	62334	,	-18422	,	-15416	,	14.318529	,	26
14,6	,	62350	,	-18415	,	-15410	,	7.51184	,	15
14,6	,	62382	,	-18423	,	-15413	,	2.0237198	,	7
14,6	,	62398	,	-18433	,	-15423	,	-2.0307565	,	2
14,6	,	62414	,	-18437	,	-15412	,	-4.9066725	,	0
14,6	,	62446	,	-18450	,	-15441	,	-7.0273747	,	0
14,6	,	62462	,	-18448	,	-15416	,	-8.770519	,	0
14,6	,	62494	,	-18459	,	-15433	,	-10.348358	,	0
14,6	,	62510	,	-18467	,	-15435	,	-11.854319	,	0
14,6	,	62526	,	-18477	,	-15439	,	-13.387781	,	0
14,6	,	62558	,	-18480	,	-15439	,	-15.013155	,	0
14,6	,	62574	,	-18487	,	-15448	,	-16.668076	,	0
14,6	,	62590	,	-18503	,	-15448	,	-18.260326	,	0
14,6	,	62622	,	-18493	,	-15452	,	-19.73481	,	0
14,6	,	62638	,	-18478	,	-15448	,	-20.811115	,	0
14,6	,	62670	,	-18439	,	-15426	,	-20.73008	,	0
14,6	,	62686	,	-18421	,	-15409	,	-18.455618	,	0
14,6	,	62702	,	-18392	,	-15399	,	-13.230019	,	2
14,6	,	62734	,	-18390	,	-15401	,	-5.046813	,	7
14,6	,	62750	,	-18369	,	-15389	,	5.2821064	,	15
14,6	,	62766	,	-18371	,	-15385	,	16.439972	,	25
14,6	,	62798	,	-18361	,	-15383	,	26.993065	,	36
14,6	,	62813	,	-18352	,	-15397	,	35.73504	,	46
14,6	,	62829	,	-18343	,	-15385	,	41.975334	,	54
14,6	,	62862	,	-18354	,	-15387	,	45.470024	,	60
14,6	,	62878	,	-18360	,	-15379	,	46.104233	,	63
14,6	,	62910	,	-18369	,	-15387	,	43.83853	,	61
14,6	,	62926	,	-18371	,	-15385	,	38.90492	,	56
14,6	,	62942	,	-18373	,	-15386	,	31.908377	,	48
14,6	,	62974	,	-18367	,	-15389	,	23.765028	,	38
14,6	,	62990	,	-18381	,	-15386	,	15.467186	,	27
14,6	,	63006	,	-18377	,	-15390	,	7.775316	,	17
14,6	,	63038	,	-18381	,	-15384	,	1.1716356	,	9
14,6	,	63054	,	-18390	,	-15400	,	-4.078185	,	3
14,6	,	63085	,	-18400	,	-15406	,	-8.013303	,	0
14,6	,	63101	,	-18409	,	-15408	,	-10.949329	,	0
14,6	,	63118	,	-18415	,	-15408	,	-13.260035	,	0
14,6	,	63149	,	-18413	,	-15413	,	-15.159533	,	0
14,6	,	63166	,	-18425	,	-15408	,	-16.65981	,	0
14,6	,	63182	,	-18424	,	-15434	,	-17.728708	,	0
14,6	,	63214	,	-18439	,	-15414	,	-18.407387	,	0
14,6	,	63230	,	-18453	,	-15429	,	-18.874546	,	0
14,6	,	63245	,	-18455	,	-15434	,	-19.405336	,	0
14,7	,	63277	,	-18445	,	-15424	,	-20.049068	,	0
14,7	,	63293	,	-18421	,	-15415	,	-20.340126	,	0
14,7	,	63326	,	-18388	,	-15397	,	-19.344353	,	0
14,7	,	63342	,	-18368	,	-15388	,	-16.040007	,	0
14,7	,	63357	,	-18355	,	-15390	,	-9.912679	,	3
14,7	,	63390	,	-18350	,	-15376	,	-1.3385115	,	9
14,7	,	63406	,	-18338	,	-15376	,	8.58251	,	17
14,7	,	63422	,	-18333	,	-15382	,	18.524559	,	26
14,7	,	63453	,	-18327	,	-15367	,	27.322664	,	35
14,7	,	63469	,	-18315	,	-15365	,	34.174477	,	43
14,7	,	63501	,	-18318	,	-15368	,	38.698616	,	49
14,7	,	63517	,	-18320	,	-15362	,	40.768208	,	53
14,7	,	63533	,	-18320	,	-15378	,	40.3872	,	55
14,7	,	63565	,	-18327	,	-15375	,	37.75062	,	52
14,7	,	63582	,	-18329	,	-15369	,	33.241653	,	46
14,7	,	63598	,	-18315	,	-15368	,	27.45348	,	38
14,7	,	63629	,	-18330	,	-15372	,	21.16115	,	29
14,7	,	63645	,	-18342	,	-15373	,	14.947576	,	20
14,7	,	63661	,	-18332	,	-15374	,	9.055959	,	12
14,7	,	63693	,	-18347	,	-15381	,	3.683958	,	6
14,7	,	63710	,	-18343	,	-15380	,	-0.9701624	,	2
14,7	,	63741	,	-18371	,	-15394	,	-4.90466	,	0
14,7	,	63757	,	-18376	,	-15388	,	-8.389985	,	0
14,7	,	63773	,	-18381	,	-15393	,	-11.739186	,	0
14,7	,	63805	,	-18389	,	-15398	,	-14.997023	,	0
14,7	,	63821	,	-18399	,	-15401	,	-18.019823	,	0
14,7	,	63837	,	-18407	,	-15411	,	-20.691492	,	0
14,7	,	63869	,	-18410	,	-15411	,	-22.92881	,	0
14,7	,	63885	,	-18416	,	-15414	,	-24.619358	,	0
14,7	,	63917	,	-18436	,	-15423	,	-25.726177	,	0
14,7	,	63933	,	-18446	,	-15429	,	-26.452188	,	0
14,7	,	63949	,	-18440	,	-15423	,	-27.037752	,	0
14,7	,	63981	,	-18441	,	-15419	,	-27.398586	,	0
14,7	,	63997	,	-18414	,	-15405	,	-27.072905	,	0
14,7	,	64013	,	-18371	,	-15390	,	-25.220846	,	0
14,7	,	64045	,	-18354	,	-15386	,	-20.79813	,	1
14,7	,	64061	,	-18342	,	-15375	,	-13.283619	,	5
14,7	,	64093	,	-18341	,	-15370	,	-3.2322578	,	12
14,7	,	64109	,	-18320	,	-15375	,	8.03328	,	22
14,7	,	64125	,	-18322	,	-15367	,	19.088703	,	33
14,7	,	64157	,	-18306	,	-15363	,	28.765368	,	44
14,7	,	64173	,	-18310	,	-15373	,	36.24404	,	53
14,7	,	64189	,	-18307	,	-15343	,	41.042557	,	60
14,7	,	64221	,	-18305	,	-15360	,	42.978443	,	64
14,7	,	64237	,	-18309	,	-15370	,	42.18373	,	64
14,8	,	64253	,	-18314	,	-15361	,	39.022903	,	60
14,8	,	64285	,	-18315	,	-15366	,	33.98893	,	53
14,8	,	64301	,	-18320	,	-15366	,	27.683804	,	43
14,8	,	64333	,	-18309	,	-15369	,	20.810596	,	32
14,8	,	64349	,	-18320	,	-15362	,	14.099805	,	21
14,8	,	64365	,	-18321	,	-15372	,	8.090564	,	12
14,8	,	64397	,	-18339	,	-15375	,	2.9559832	,	5
14,8	,	64413	,	-18331	,	-15389	,	-1.3902698	,	1
14,8	,	64429	,	-18343	,	-15381	,	-5.0373235	,	0
14,8	,	64461	,	-18366	,	-15395	,	-8.115524	,	0
14,8	,	64477	,	-18370	,	-15393	,	-10.961549	,	0
14,8	,	64509	,	-18383	,	-15398	,	-13.891251	,	0
14,8	,	64525	,	-18371	,	-15401	,	-16.87834	,	0
14,8	,	64541	,	-18380	,	-15409	,	-19.538752	,	0
14,8	,	64573	,	-18401	,	-15410	,	-21.517597	,	0
14,8	,	64589	,	-18413	,	-15417	,	-22.905409	,	0
14,8	,	64605	,	-18415	,	-15413	,	-24.041351	,	0
14,8	,	64637	,	-18424	,	-15414	,	-25.082275	,	0
14,8	,	64653	,	-18429	,	-15425	,	-25.9743	,	0
14,8	,	64669	,	-18437	,	-15419	,	-26.618126	,	0
14,8	,	64701	,	-18442	,	-15421	,	-26.939812	,	0
14,8	,	64717	,	-18460	,	-15434	,	-26.960358	,	0
14,8	,	64749	,	-18438	,	-15415	,	-26.718184	,	0
14,8	,	64765	,	-18395	,	-15406	,	-25.776325	,	0
14,8	,	64781	,	-18370	,	-15390	,	-23.024225	,	0
14,8	,	64813	,	-18351	,	-15385	,	-17.418098	,	2
14,8	,	64829	,	-18342	,	-15378	,	-8.809266	,	7
14,8	,	64845	,	-18337	,	-15372	,	1.9370737	,	15
14,8	,	64877	,	-18324	,	-15373	,	13.384009	,	25
14,8	,	64893	,	-18311	,	-15370	,	24.144602	,	36
14,8	,	64925	,	-18308	,	-15375	,	33.221523	,	46
14,8	,	64941	,	-18305	,	-15362	,	39.9535	,	55
14,8	,	64957	,	-18293	,	-15361	,	43.992798	,	61
14,8	,	64989	,	-18301	,	-15364	,	45.350105	,	65
14,8	,	65005	,	-18305	,	-15369	,	44.20904	,	64
14,8	,	65021	,	-18307	,	-15363	,	40.79647	,	59
14,8	,	65053	,	-18307	,	-15363	,	35.518738	,	51
14,8	,	65069	,	-18310	,	-15375	,	29.00708	,	41
14,8	,	65101	,	-18314	,	-15363	,	21.955208	,	30
14,8	,	65117	,	-18310	,	-15368	,	14.991499	,	20
14,8	,	65133	,	-18323	,	-15378	,	8.61556	,	11
14,8	,	65165	,	-18330	,	-15392	,	3.0640259	,	5
14,8	,	65181	,	-18336	,	-15366	,	-1.6994858	,	1
14,8	,	65197	,	-18348	,	-15392	,	-5.815702	,	0
14,8	,	65229	,	-18357	,	-15394	,	-9.449151	,	0
14,9	,	65245	,	-18370	,	-15388	,	-12.773805	,	0
14,9	,	65261	,	-18375	,	-15399	,	-15.910141	,	0
14,9	,	65293	,	-18378	,	-15407	,	-18.824434	,	0
14,9	,	65309	,	-18386	,	-15406	,	-21.325562	,	0
14,9	,	65341	,	-18386	,	-15413	,	-23.202925	,	0
14,9	,	65357	,	-18401	,	-15417	,	-24.351467	,	0
14,9	,	65373	,	-18400	,	-15414	,	-24.818975	,	0
14,9	,	65405	,	-18415	,	-15426	,	-24.761486	,	0
14,9	,	65421	,	-18423	,	-15410	,	-24.41116	,	0
14,9	,	65437	,	-18435	,	-15435	,	-24.057	,	0
14,9	,	65469	,	-18453	,	-15430	,	-23.982595	,	0
14,9	,	65485	,	-18461	,	-15441	,	-24.425571	,	0
14,9	,	65517	,	-18474	,	-15444	,	-25.487438	,	0
14,9	,	65533	,	-18479	,	-15453	,	-27.059155	,	0
14,9	,	65549	,	-18487	,	-15454	,	-28.856857	,	0
14,9	,	65581	,	-18478	,	-15448	,	-30.452175	,	0
14,9	,	65597	,	-18458	,	-15438	,	-31.204659	,	0
14,9	,	65613	,	-18413	,	-15409	,	-30.14497	,	0
14,9	,	65645	,	-18385	,	-15414	,	-26.112484	,	1
14,9	,	65661	,	-18366	,	-15395	,	-18.374815	,	5
14,9	,	65677	,	-18361	,	-15389	,	-7.2589912	,	12
14,9	,	65708	,	-18353	,	-15384	,	5.8601923	,	23
14,9	,	65724	,	-18349	,	-15380	,	19.131084	,	36
14,9	,	65757	,	-18340	,	-15377	,	30.849325	,	49
14,9	,	65773	,	-18325	,	-15371	,	39.889156	,	60
14,9	,	65789	,	-18319	,	-15380	,	45.84772	,	69
14,9	,	65821	,	-18321	,	-15374	,	48.797974	,	74
14,9	,	65837	,	-18333	,	-15378	,	48.88907	,	75
14,9	,	65853	,	-18337	,	-15383	,	46.225616	,	71
14,9	,	65885	,	-18336	,	-15383	,	41.091583	,	64
14,9	,	65900	,	-18337	,	-15382	,	34.14044	,	53
14,9	,	65932	,	-18337	,	-15377	,	26.269703	,	40
14,9	,	65949	,	-18343	,	-15384	,	18.345274	,	27
14,9	,	65965	,	-18357	,	-15387	,	10.949563	,	16
14,9	,	65997	,	-18354	,	-15392	,	4.3268766	,	7
14,9	,	66013	,	-18364	,	-15391	,	-1.4156151	,	2
14,9	,	66029	,	-18370	,	-15400	,	-6.2114215	,	0
14,9	,	66061	,	-18382	,	-15401	,	-10.113056	,	0
14,9	,	66077	,	-18390	,	-15401	,	-13.296479	,	0
14,9	,	66092	,	-18397	,	-15405	,	-15.962144	,	0
14,9	,	66124	,	-18404	,	-15414	,	-18.229528	,	0
14,9	,	66140	,	-18410	,	-15426	,	-20.121092	,	0
14,9	,	66173	,	-18413	,	-15407	,	-21.595396	,	0
14,9	,	66189	,	-18430	,	-15420	,	-22.6335	,	0
14,9	,	66205	,	-18440	,	-15426	,	-23.37529	,	0
14,9	,	66236	,	-18438	,	-15432	,	-24.011082	,	0
14,10	,	66252	,	-18448	,	-15438	,	-24.53964	,	0
14,10	,	66268	,	-18455	,	-15442	,	-24.850025	,	0
14,10	,	66300	,	-18462	,	-15436	,	-24.917404	,	0
14,10	,	66316	,	-18471	,	-15448	,	-24.800179	,	0
14,10	,	66349	,	-18487	,	-15446	,	-24.63042	,	0
14,10	,	66365	,	-18495	,	-15459	,	-24.619293	,	0
14,10	,	66381	,	-18497	,	-15466	,	-24.89932	,	0
14,10	,	66412	,	-18508	,	-15450	,	-25.393562	,	0
14,10	,	66428	,	-18514	,	-15460	,	-25.932201	,	0
14,10	,	66444	,	-18481	,	-15442	,	-26.195942	,	0
14,10	,	66476	,	-18448	,	-15418	,	-25.354174	,	0
14,10	,	66492	,	-18404	,	-15407	,	-22.118324	,	0
14,10	,	66508	,	-18406	,	-15416	,	-15.51883	,	3
14,10	,	66541	,	-18393	,	-15408	,	-5.733654	,	9
14,10	,	66556	,	-18384	,	-15405	,	5.956167	,	18
14,10	,	66588	,	-18383	,	-15404	,	17.876095	,	29
14,10	,	66604	,	-18378	,	-15395	,	28.461317	,	40
14,10	,	66620	,	-18371	,	-15392	,	36.554905	,	50
14,10	,	66652	,	-18365	,	-15390	,	41.617813	,	58
14,10	,	66668	,	-18368	,	-15400	,	43.64124	,	63
14,10	,	66684	,	-18372	,	-15394	,	42.877083	,	65
14,10	,	66717	,	-18379	,	-15397	,	39.669273	,	62
14,10	,	66732	,	-18383	,	-15408	,	34.449913	,	56
14,10	,	66764	,	-18376	,	-15400	,	27.824875	,	47
14,10	,	66780	,	-18386	,	-15402	,	20.568043	,	36
14,10	,	66796	,	-18376	,	-15399	,	13.446035	,	25
14,10	,	66828	,	-18395	,	-15395	,	7.040003	,	15
14,10	,	66844	,	-18391	,	-15401	,	1.6268072	,	7
14,10	,	66860	,	-18399	,	-15408	,	-2.765603	,	2
14,10	,	66892	,	-18412	,	-15411	,	-6.2469745	,	0
14,10	,	66908	,	-18418	,	-15408	,	-9.0718775	,	0
14,10	,	66924	,	-18425	,	-15422	,	-11.518476	,	0
14,10	,	66956	,	-18439	,	-15425	,	-13.7690325	,	0
14,10	,	66972	,	-18450	,	-15423	,	-15.977907	,	0
14,10	,	67004	,	-18456	,	-15431	,	-18.260061	,	0
14,10	,	67020	,	-18467	,	-15433	,	-20.598305	,	0
14,10	,	67036	,	-18465	,	-15432	,	-22.828127	,	0
14,10	,	67068	,	-18471	,	-15441	,	-24.664188	,	0
14,10	,	67084	,	-18482	,	-15453	,	-25.850353	,	0
14,10	,	67100	,	-18489	,	-15441	,	-26.357412	,	0
14,10	,	67132	,	-18498	,	-15458	,	-26.355892	,	0
14,10	,	67149	,	-18503	,	-15436	,	-26.055553	,	0
14,10	,	67180	,	-18522	,	-15467	,	-25.663185	,	0
14,10	,	67196	,	-18529	,	-15462	,	-25.426224	,	0
14,10	,	67212	,	-18537	,	-15466	,	-25.536743	,	0
14,10	,	67244	,	-18542	,	-15474	,	-25.984776	,	0
14,11	,	67260	,	-18552	,	-15480	,	-26.606709	,	0
14,11	,	67276	,	-18549	,	-15477	,	-27.17995	,	0
14,11	,	67308	,	-18516	,	-15457	,	-27.247452	,	0
14,11	,	67324	,	-18465	,	-15437	,	-25.781448	,	0
14,11	,	67356	,	-18446	,	-15424	,	-21.416779	,	1
14,11	,	67372	,	-18434	,	-15423	,	-13.43394	,	5
14,11	,	67388	,	-18426	,	-15404	,	-2.3977308	,	12
14,11	,	67420	,	-18425	,	-15415	,	10.147459	,	23
14,11	,	67436	,	-18407	,	-15407	,	22.400856	,	35
14,11	,	67452	,	-18408	,	-15400	,	32.909912	,	47
14,11	,	67484	,	-18408	,	-15405	,	40.717983	,	57
14,11	,	67500	,	-18405	,	-15406	,	45.276478	,	64
14,11	,	67516	,	-18409	,	-15407	,	46.468338	,	68
14,11	,	67548	,	-18416	,	-15410	,	44.53743	,	68
14,11	,	67564	,	-18422	,	-15409	,	39.93345	,	64
14,11	,	67596	,	-18419	,	-15420	,	33.30423	,	57
14,11	,	67612	,	-18417	,	-15427	,	25.536413	,	46
14,11	,	67628	,	-18423	,	-15411	,	17.592867	,	34
14,11	,	67660	,	-18424	,	-15409	,	10.234422	,	22
14,11	,	67676	,	-18428	,	-15422	,	3.9247618	,	12
14,11	,	67692	,	-18438	,	-15428	,	-1.1591921	,	5
14,11	,	67724	,	-18446	,	-15438	,	-5.1291695	,	1
14,11	,	67740	,	-18458	,	-15429	,	-8.292672	,	0
14,11	,	67772	,	-18462	,	-15438	,	-10.981017	,	0
14,11	,	67788	,	-18478	,	-15425	,	-13.438126	,	0
14,11	,	67804	,	-18484	,	-15454	,	-15.826726	,	0
14,11	,	67836	,	-18486	,	-15444	,	-18.182398	,	0
14,11	,	67852	,	-18499	,	-15448	,	-20.372028	,	0
14,11	,	67868	,	-18510	,	-15466	,	-22.27519	,	0
14,11	,	67900	,	-18512	,	-15447	,	-23.881088	,	0
14,11	,	67916	,	-18525	,	-15458	,	-25.177608	,	0
14,11	,	67932	,	-18536	,	-15466	,	-26.175262	,	0
14,11	,	67964	,	-18539	,	-15471	,	-26.946918	,	0
14,11	,	67980	,	-18549	,	-15464	,	-27.5193	,	0
14,11	,	68012	,	-18566	,	-15476	,	-27.914686	,	0
14,11	,	68028	,	-18566	,	-15486	,	-28.236076	,	0
14,11	,	68044	,	-18580	,	-15483	,	-28.542627	,	0
14,11	,	68076	,	-18580	,	-15489	,	-28.781567	,	0
14,11	,	68092	,	-18561	,	-15472	,	-28.715584	,	0
14,11	,	68108	,	-18514	,	-15458	,	-27.6128	,	0
14,11	,	68140	,	-18482	,	-15436	,	-24.21912	,	1
14,11	,	68156	,	-18452	,	-15428	,	-17.420122	,	4
14,11	,	68188	,	-18449	,	-15433	,	-7.055026	,	10
14,11	,	68204	,	-18455	,	-15426	,	5.7431755	,	20
14,11	,	68220	,	-18444	,	-15424	,	18.957024	,	32
14,12	,	68252	,	-18443	,	-15425	,	30.610914	,	45
14,12	,	68268	,	-18448	,	-15418	,	39.33073	,	56
14,12	,	68284	,	-18443	,	-15415	,	44.365334	,	64
14,12	,	68316	,	-18451	,	-15421	,	45.563324	,	69
14,12	,	68332	,	-18459	,	-15430	,	43.246338	,	69
14,12	,	68348	,	-18458	,	-15431	,	38.033947	,	66
14,12	,	68380	,	-18452	,	-15425	,	30.850115	,	60
14,12	,	68396	,	-18457	,	-15419	,	22.826876	,	50
14,12	,	68428	,	-18460	,	-15429	,	14.969608	,	38
14,12	,	68444	,	-18469	,	-15428	,	7.9080963	,	25
14,12	,	68460	,	-18460	,	-15438	,	1.9528131	,	14
14,12	,	68492	,	-18476	,	-15427	,	-2.7482877	,	6
14,12	,	68508	,	-18484	,	-15440	,	-6.273781	,	1
14,12	,	68523	,	-18484	,	-15442	,	-8.923638	,	0
14,12	,	68555	,	-18494	,	-15441	,	-10.967633	,	0
14,12	,	68572	,	-18501	,	-15450	,	-12.5876045	,	0
14,12	,	68604	,	-18513	,	-15462	,	-13.983656	,	0
14,12	,	68620	,	-18517	,	-15465	,	-15.346497	,	0
14,12	,	68636	,	-18521	,	-15454	,	-16.738632	,	0
14,12	,	68668	,	-18536	,	-15461	,	-18.103054	,	0
14,12	,	68684	,	-18540	,	-15473	,	-19.413612	,	0
14,12	,	68699	,	-18546	,	-15468	,	-20.665464	,	0
14,12	,	68731	,	-18557	,	-15481	,	-21.80075	,	0
14,12	,	68747	,	-18570	,	-15474	,	-22.81314	,	0
14,12	,	68763	,	-18578	,	-15482	,	-23.79764	,	0
14,12	,	68796	,	-18586	,	-15487	,	-24.828459	,	0
14,12	,	68812	,	-18566	,	-15470	,	-25.744232	,	0
14,12	,	68844	,	-18511	,	-15455	,	-25.762325	,	0
14,12	,	68860	,	-18483	,	-15449	,	-23.428001	,	0
14,12	,	68876	,	-18465	,	-15421	,	-17.49922	,	2
14,12	,	68907	,	-18456	,	-15424	,	-7.913149	,	7
14,12	,	68923	,	-18447	,	-15420	,	4.183921	,	16
14,12	,	68939	,	-18442	,	-15422	,	17.03281	,	28
14,12	,	68972	,	-18443	,	-15414	,	28.837255	,	40
14,12	,	68988	,	-18442	,	-15411	,	38.12341	,	51
14,12	,	69020	,	-18437	,	-15416	,	43.98709	,	60
14,12	,	69036	,	-18446	,	-15416	,	46.169083	,	65
14,12	,	69052	,	-18449	,	-15418	,	44.86602	,	67
14,12	,	69083	,	-18456	,	-15421	,	40.556507	,	65
14,12	,	69099	,	-18448	,	-15437	,	33.99839	,	60
14,12	,	69115	,	-18449	,	-15415	,	26.210373	,	51
14,12	,	69147	,	-18459	,	-15426	,	18.219896	,	39
14,12	,	69164	,	-18464	,	-15411	,	10.724532	,	27
14,12	,	69195	,	-18463	,	-15423	,	4.08936	,	16
14,12	,	69211	,	-18466	,	-15432	,	-1.4369221	,	7
14,12	,	69227	,	-18474	,	-15429	,	-5.7088723	,	2
14,13	,	69259	,	-18485	,	-15430	,	-8.822276	,	0
14,13	,	69275	,	-18489	,	-15445	,	-11.088749	,	0
14,13	,	69291	,	-18511	,	-15448	,	-12.897811	,	0
14,13	,	69324	,	-18510	,	-15444	,	-14.626556	,	0
14,13	,	69339	,	-18509	,	-15456	,	-16.423859	,	0
14,13	,	69356	,	-18520	,	-15451	,	-18.112684	,	0
14,13	,	69387	,	-18522	,	-15458	,	-19.4649	,	0
14,13	,	69403	,	-18538	,	-15462	,	-20.425943	,	0
14,13	,	69435	,	-18543	,	-15471	,	-21.113937	,	0
14,13	,	69451	,	-18546	,	-15474	,	-21.668957	,	0
14,13	,	69467	,	-18563	,	-15475	,	-22.150667	,	0
14,13	,	69500	,	-18554	,	-15468	,	-22.571613	,	0
14,13	,	69515	,	-18516	,	-15458	,	-22.602226	,	0
14,13	,	69531	,	-18474	,	-15430	,	-21.19374	,	0
14,13	,	69563	,	-18454	,	-15419	,	-17.013668	,	1
14,13	,	69579	,	-18453	,	-15415	,	-9.499689	,	5
14,13	,	69612	,	-18442	,	-15421	,	0.6261282	,	12
14,13	,	69628	,	-18434	,	-15403	,	11.855503	,	22
14,13	,	69643	,	-18424	,	-15404	,	22.66043	,	33
14,13	,	69675	,	-18415	,	-15405	,	31.881443	,	43
14,13	,	69691	,	-18413	,	-15403	,	38.795784	,	52
14,13	,	69707	,	-18415	,	-15396	,	43.0173	,	58
14,13	,	69739	,	-18420	,	-15408	,	44.37499	,	62
14,13	,	69755	,	-18429	,	-15405	,	42.880836	,	62
14,13	,	69771	,	-18421	,	-15414	,	38.815544	,	58
14,13	,	69803	,	-18423	,	-15412	,	32.837357	,	51
14,13	,	69819	,	-18422	,	-15406	,	25.849903	,	41
14,13	,	69851	,	-18429	,	-15415	,	18.69045	,	30
14,13	,	69867	,	-18424	,	-15396	,	11.982745	,	20
14,13	,	69883	,	-18447	,	-15417	,	6.081975	,	11
14,13	,	69915	,	-18442	,	-15415	,	1.0189953	,	5
14,13	,	69931	,	-18446	,	-15414	,	-3.2836199	,	1
14,13	,	69947	,	-18454	,	-15416	,	-6.8079467	,	0
14,13	,	69979	,	-18460	,	-15427	,	-9.575415	,	0
14,13	,	69995	,	-18468	,	-15421	,	-11.732281	,	0
14,13	,	70027	,	-18479	,	-15423	,	-13.489807	,	0
14,13	,	70043	,	-18478	,	-15433	,	-15.032906	,	0
14,13	,	70059	,	-18486	,	-15440	,	-16.399769	,	0
14,13	,	70091	,	-18495	,	-15447	,	-17.540703	,	0
14,13	,	70107	,	-18503	,	-15432	,	-18.477188	,	0
14,13	,	70123	,	-18524	,	-15456	,	-19.35934	,	0
14,13	,	70155	,	-18513	,	-15452	,	-20.357027	,	0
14,13	,	70171	,	-18495	,	-15434	,	-21.275864	,	0
14,13	,	70187	,	-18454	,	-15420	,	-21.254917	,	0
14,13	,	70219	,	-18429	,	-15413	,	-19.030457	,	0
14,13	,	70235	,	-18413	,	-15401	,	-13.676477	,	2
14,14	,	70267	,	-18403	,	-15395	,	-5.2301254	,	7
14,14	,	70283	,	-18401	,	-15393	,	5.2889957	,	15
14,14	,	70299	,	-18388	,	-15399	,	16.348969	,	25
14,14	,	70331	,	-18393	,	-15396	,	26.44215	,	36
14,14	,	70347	,	-18380	,	-15381	,	34.40989	,	46
14,14	,	70363	,	-18375	,	-15392	,	39.63722	,	53
14,14	,	70395	,	-18378	,	-15386	,	42.044624	,	58
14,14	,	70411	,	-18388	,	-15386	,	41.77775	,	60
14,14	,	70443	,	-18397	,	-15389	,	38.99604	,	58
14,14	,	70459	,	-18396	,	-15392	,	33.984856	,	53
14,14	,	70475	,	-18386	,	-15397	,	27.3841	,	45
14,14	,	70507	,	-18394	,	-15400	,	20.149302	,	35
14,14	,	70523	,	-18395	,	-15395	,	13.160119	,	24
14,14	,	70539	,	-18399	,	-15386	,	6.959524	,	14
14,14	,	70571	,	-18398	,	-15396	,	1.8236094	,	7
14,14	,	70587	,	-18407	,	-15404	,	-2.1534214	,	2
14,14	,	70619	,	-18412	,	-15396	,	-5.0806556	,	0
14,14	,	70635	,	-18430	,	-15408	,	-7.282917	,	0
14,14	,	70651	,	-18422	,	-15406	,	-9.144876	,	0
14,14	,	70683	,	-18444	,	-15413	,	-10.895138	,	0
14,14	,	70699	,	-18443	,	-15413	,	-12.642179	,	0
14,14	,	70715	,	-18451	,	-15418	,	-14.4276905	,	0
14,14	,	70747	,	-18460	,	-15424	,	-16.187618	,	0
14,14	,	70763	,	-18469	,	-15420	,	-17.862797	,	0
14,14	,	70779	,	-18473	,	-15427	,	-19.439034	,	0
14,14	,	70811	,	-18475	,	-15435	,	-20.829416	,	0
14,14	,	70827	,	-18488	,	-15443	,	-21.893196	,	0
14,14	,	70859	,	-18472	,	-15413	,	-22.491392	,	0
14,14	,	70875	,	-18397	,	-15395	,	-22.012087	,	0
14,14	,	70891	,	-18388	,	-15387	,	-19.0805	,	0
14,14	,	70923	,	-18376	,	-15384	,	-12.64742	,	2
14,14	,	70939	,	-18376	,	-15383	,	-3.09023	,	8
14,14	,	70955	,	-18372	,	-15375	,	8.0728035	,	17
14,14	,	70987	,	-18360	,	-15372	,	19.059505	,	28
14,14	,	71003	,	-18360	,	-15368	,	28.453262	,	38
14,14	,	71035	,	-18352	,	-15364	,	35.38706	,	47
14,14	,	71051	,	-18345	,	-15368	,	39.52037	,	53
14,14	,	71067	,	-18342	,	-15372	,	40.98362	,	57
14,14	,	71099	,	-18352	,	-15361	,	40.11992	,	58
14,14	,	71114	,	-18359	,	-15373	,	37.20819	,	56
14,14	,	71130	,	-18353	,	-15371	,	32.53945	,	50
14,14	,	71163	,	-18356	,	-15376	,	26.652813	,	41
14,14	,	71179	,	-18361	,	-15375	,	20.243494	,	30
14,14	,	71195	,	-18373	,	-15378	,	13.84601	,	20
14,14	,	71227	,	-18371	,	-15389	,	7.751546	,	11
14,14	,	71243	,	-18378	,	-15380	,	2.17305	,	5
14,15	,	71275	,	-18380	,	-15393	,	-2.6805487	,	1
14,15	,	71290	,	-18379	,	-15388	,	-6.633398	,	0
14,15	,	71306	,	-18393	,	-15398	,	-9.591953	,	0
14,15	,	71339	,	-18395	,	-15388	,	-11.655254	,	0
14,15	,	71355	,	-18401	,	-15404	,	-13.062099	,	0
14,15	,	71371	,	-18423	,	-15406	,	-14.099753	,	0
14,15	,	71403	,	-18429	,	-15411	,	-15.153636	,	0
14,15	,	71418	,	-18440	,	-15411	,	-16.561571	,	0
14,15	,	71450	,	-18441	,	-15424	,	-18.379059	,	0
14,15	,	71466	,	-18455	,	-15418	,	-20.417824	,	0
14,15	,	71482	,	-18464	,	-15418	,	-22.467648	,	0
14,15	,	71515	,	-18475	,	-15432	,	-24.421501	,	0
14,15	,	71530	,	-18450	,	-15419	,	-26.071308	,	0
14,15	,	71546	,	-18422	,	-15403	,	-26.724522	,	0
14,15	,	71578	,	-18384	,	-15392	,	-25.209686	,	0
14,15	,	71594	,	-18377	,	-15379	,	-20.510456	,	1
14,15	,	71611	,	-18360	,	-15370	,	-12.492373	,	5
14,15	,	71643	,	-18351	,	-15367	,	-1.999218	,	13
14,15	,	71659	,	-18337	,	-15370	,	9.628717	,	23
14,15	,	71691	,	-18334	,	-15367	,	21.002724	,	34
14,15	,	71707	,	-18331	,	-15367	,	30.880617	,	45
14,15	,	71722	,	-18318	,	-15368	,	38.346317	,	54
14,15	,	71754	,	-18322	,	-15354	,	42.9732	,	61
14,15	,	71770	,	-18328	,	-15356	,	44.677322	,	65
14,15	,	71786	,	-18338	,	-15360	,	43.480682	,	65
14,15	,	71818	,	-18338	,	-15372	,	39.575287	,	61
14,15	,	71835	,	-18340	,	-15353	,	33.49647	,	53
14,15	,	71866	,	-18344	,	-15369	,	26.064678	,	43
14,15	,	71882	,	-18339	,	-15366	,	18.176334	,	32
14,15	,	71899	,	-18345	,	-15370	,	10.656865	,	21
14,15	,	71931	,	-18346	,	-15379	,	4.116787	,	12
14,15	,	71946	,	-18355	,	-15379	,	-1.1574593	,	5
14,15	,	71962	,	-18361	,	-15373	,	-5.183613	,	1
14,15	,	71994	,	-18373	,	-15376	,	-8.204194	,	0
14,15	,	72010	,	-18381	,	-15383	,	-10.580597	,	0
14,15	,	72042	,	-18385	,	-15390	,	-12.631739	,	0
14,15	,	72058	,	-18397	,	-15403	,	-14.5262375	,	0
14,15	,	72074	,	-18396	,	-15380	,	-16.303793	,	0
14,15	,	72106	,	-18414	,	-15398	,	-17.941622	,	0
14,15	,	72122	,	-18417	,	-15404	,	-19.449198	,	0
14,15	,	72138	,	-18421	,	-15403	,	-20.834839	,	0
14,15	,	72171	,	-18425	,	-15417	,	-21.98156	,	0
14,15	,	72186	,	-18436	,	-15416	,	-22.748253	,	0
14,15	,	72202	,	-18446	,	-15414	,	-23.155785	,	0
14,15	,	72234	,	-18458	,	-15416	,	-23.387161	,	0
14,15	,	72251	,	-18443	,	-15415	,	-23.550438	,	0
14,16	,	72282	,	-18418	,	-15398	,	-23.301079	,	0
14,16	,	72298	,	-18391	,	-15393	,	-21.764975	,	0
14,16	,	72314	,	-18362	,	-15380	,	-17.958923	,	1
14,16	,	72346	,	-18366	,	-15380	,	-11.423065	,	4
14,16	,	72362	,	-18346	,	-15368	,	-2.6098223	,	10
14,16	,	72378	,	-18343	,	-15369	,	7.376046	,	18
14,16	,	72410	,	-18329	,	-15359	,	17.316208	,	27
14,16	,	72427	,	-18321	,	-15358	,	26.194527	,	36
14,16	,	72458	,	-18324	,	-15361	,	33.273914	,	44
14,16	,	72474	,	-18310	,	-15358	,	38.078842	,	51
14,16	,	72490	,	-18317	,	-15360	,	40.44639	,	55
14,16	,	72522	,	-18319	,	-15364	,	40.443916	,	56
14,16	,	72538	,	-18328	,	-15360	,	38.205933	,	53
14,16	,	72554	,	-18324	,	-15365	,	33.996906	,	47
14,16	,	72586	,	-18324	,	-15356	,	28.336424	,	39
14,16	,	72602	,	-18331	,	-15362	,	21.910557	,	30
14,16	,	72618	,	-18328	,	-15370	,	15.365797	,	21
14,16	,	72650	,	-18339	,	-15366	,	9.203122	,	13
14,16	,	72666	,	-18345	,	-15376	,	3.6982737	,	6
14,16	,	72698	,	-18350	,	-15379	,	-1.095675	,	2
14,16	,	72714	,	-18356	,	-15377	,	-5.200304	,	0
14,16	,	72730	,	-18368	,	-15380	,	-8.665758	,	0
14,16	,	72762	,	-18375	,	-15394	,	-11.618213	,	0
14,16	,	72778	,	-18378	,	-15388	,	-14.182705	,	0
14,16	,	72794	,	-18394	,	-15414	,	-16.414648	,	0
14,16	,	72826	,	-18390	,	-15387	,	-18.338503	,	0
14,16	,	72842	,	-18397	,	-15401	,	-19.895634	,	0
14,16	,	72874	,	-18411	,	-15407	,	-20.999395	,	0
14,16	,	72890	,	-18413	,	-15407	,	-21.710266	,	0
14,16	,	72906	,	-18424	,	-15412	,	-22.162554	,	0
14,16	,	72938	,	-18426	,	-15421	,	-22.434366	,	0
14,16	,	72954	,	-18444	,	-15414	,	-22.594175	,	0
14,16	,	72970	,	-18448	,	-15420	,	-22.773956	,	0
14,16	,	73002	,	-18458	,	-15431	,	-23.105978	,	0
14,16	,	73018	,	-18456	,	-15427	,	-23.574036	,	0
14,16	,	73034	,	-18438	,	-15425	,	-23.869938	,	0
14,16	,	73066	,	-18413	,	-15398	,	-23.296436	,	0
14,16	,	73082	,	-18373	,	-15382	,	-20.855572	,	0
14,16	,	73114	,	-18361	,	-15381	,	-15.645951	,	2
14,16	,	73130	,	-18352	,	-15385	,	-7.4985466	,	7
14,16	,	73146	,	-18343	,	-15372	,	2.7562056	,	15
14,16	,	73178	,	-18344	,	-15373	,	13.682886	,	25
14,16	,	73194	,	-18330	,	-15366	,	23.801193	,	35
14,16	,	73210	,	-18327	,	-15366	,	32.007072	,	45
14,16	,	73242	,	-18326	,	-15358	,	37.69169	,	53
14,17	,	73258	,	-18317	,	-15357	,	40.646446	,	58
14,17	,	73290	,	-18329	,	-15359	,	40.9713	,	60
14,17	,	73306	,	-18336	,	-15355	,	38.87861	,	58
14,17	,	73322	,	-18331	,	-15361	,	34.65439	,	53
14,17	,	73355	,	-18329	,	-15361	,	28.87651	,	45
14,17	,	73370	,	-18329	,	-15364	,	22.376822	,	35
14,17	,	73386	,	-18345	,	-15362	,	15.87393	,	25
14,17	,	73418	,	-18346	,	-15364	,	9.72815	,	15
14,17	,	73434	,	-18352	,	-15367	,	4.0771074	,	7
14,17	,	73450	,	-18362	,	-15366	,	-0.980463	,	2
14,17	,	73482	,	-18366	,	-15376	,	-5.403478	,	0
14,17	,	73498	,	-18372	,	-15374	,	-9.190571	,	0
14,17	,	73530	,	-18379	,	-15385	,	-12.331084	,	0
14,17	,	73546	,	-18383	,	-15397	,	-14.826603	,	0
14,17	,	73562	,	-18390	,	-15383	,	-16.699371	,	0
14,17	,	73594	,	-18398	,	-15391	,	-18.015253	,	0
14,17	,	73610	,	-18400	,	-15392	,	-18.883839	,	0
14,17	,	73626	,	-18412	,	-15393	,	-19.418652	,	0
14,17	,	73658	,	-18412	,	-15399	,	-19.726772	,	0
14,17	,	73674	,	-18421	,	-15400	,	-19.87319	,	0
14,17	,	73706	,	-18436	,	-15403	,	-19.931515	,	0
14,17	,	73722	,	-18445	,	-15411	,	-20.097378	,	0
14,17	,	73738	,	-18454	,	-15420	,	-20.584606	,	0
14,17	,	73770	,	-18461	,	-15415	,	-21.450518	,	0
14,17	,	73786	,	-18467	,	-15430	,	-22.582611	,	0
14,17	,	73802	,	-18479	,	-15416	,	-23.79921	,	0
14,17	,	73834	,	-18479	,	-15426	,	-24.929577	,	0
14,17	,	73850	,	-18463	,	-15419	,	-25.684446	,	0
14,17	,	73866	,	-18430	,	-15399	,	-25.403929	,	0
14,17	,	73898	,	-18404	,	-15391	,	-23.09834	,	0
14,17	,	73914	,	-18389	,	-15384	,	-17.969536	,	2
14,17	,	73946	,	-18385	,	-15377	,	-10.017788	,	7
14,17	,	73962	,	-18377	,	-15376	,	-0.14898205	,	14
14,17	,	73978	,	-18369	,	-15378	,	10.277585	,	23
14,17	,	74010	,	-18364	,	-15380	,	19.966036	,	33
14,17	,	74026	,	-18359	,	-15382	,	27.931156	,	42
14,17	,	74042	,	-18355	,	-15369	,	33.57624	,	49
14,17	,	74074	,	-18347	,	-15377	,	36.72041	,	54
14,17	,	74090	,	-18354	,	-15374	,	37.499943	,	57
14,17	,	74122	,	-18361	,	-15376	,	36.136444	,	55
14,17	,	74138	,	-18364	,	-15376	,	32.847473	,	50
14,17	,	74153	,	-18351	,	-15379	,	28.044771	,	43
14,17	,	74186	,	-18365	,	-15379	,	22.404234	,	34
14,17	,	74202	,	-18361	,	-15380	,	16.579205	,	24
14,17	,	74218	,	-18365	,	-15376	,	11.030438	,	15
14,18	,	74250	,	-18367	,	-15382	,	6.0817757	,	8
14,18	,	74266	,	-18374	,	-15387	,	1.8980837	,	3
14,18	,	74298	,	-18373	,	-15393	,	-1.5080981	,	0
14,18	,	74314	,	-18392	,	-15393	,	-4.2422695	,	0
14,18	,	74330	,	-18400	,	-15406	,	-6.585734	,	0
14,18	,	74362	,	-18408	,	-15407	,	-8.894579	,	0
14,18	,	74378	,	-18422	,	-15408	,	-11.393064	,	0
14,18	,	74394	,	-18418	,	-15405	,	-14.09959	,	0
14,18	,	74426	,	-18428	,	-15419	,	-16.806341	,	0
14,18	,	74442	,	-18435	,	-15418	,	-19.213196	,	0
14,18	,	74458	,	-18446	,	-15423	,	-21.16099	,	0
14,18	,	74490	,	-18456	,	-15414	,	-22.679398	,	0
14,18	,	74506	,	-18452	,	-15431	,	-23.830185	,	0
14,18	,	74537	,	-18455	,	-15435	,	-24.521893	,	0
14,18	,	74554	,	-18463	,	-15417	,	-24.591934	,	0
14,18	,	74569	,	-18483	,	-15436	,	-24.111732	,	0
14,18	,	74601	,	-18496	,	-15437	,	-23.494337	,	0
14,18	,	74618	,	-18496	,	-15453	,	-23.195663	,	0
14,18	,	74634	,	-18498	,	-15453	,	-23.321428	,	0
14,18	,	74666	,	-18517	,	-15446	,	-23.687881	,	0
14,18	,	74682	,	-18498	,	-15438	,	-24.064571	,	0
14,18	,	74714	,	-18452	,	-15424	,	-23.849018	,	0
14,18	,	74730	,	-18417	,	-15406	,	-21.758297	,	0
14,18	,	74746	,	-18407	,	-15406	,	-16.545368	,	2
14,18	,	74777	,	-18396	,	-15410	,	-8.023354	,	7
14,18	,	74794	,	-18397	,	-15381	,	2.7751255	,	15
14,18	,	74809	,	-18381	,	-15395	,	14.2121315	,	25
14,18	,	74842	,	-18377	,	-15397	,	24.76075	,	36
14,18	,	74858	,	-18377	,	-15394	,	33.316566	,	46
14,18	,	74874	,	-18379	,	-15391	,	39.13886	,	54
14,18	,	74905	,	-18381	,	-15388	,	41.827488	,	59
14,18	,	74921	,	-18385	,	-15392	,	41.371086	,	61
14,18	,	74953	,	-18391	,	-15390	,	38.104805	,	59
14,18	,	74970	,	-18389	,	-15392	,	32.634857	,	54
14,18	,	74985	,	-18399	,	-15397	,	25.744694	,	46
14,18	,	75017	,	-18393	,	-15404	,	18.252348	,	36
14,18	,	75033	,	-18398	,	-15388	,	10.929331	,	25
14,18	,	75049	,	-18402	,	-15402	,	4.3986053	,	15
14,18	,	75082	,	-18420	,	-15406	,	-1.0667992	,	7
14,18	,	75098	,	-18424	,	-15422	,	-5.576009	,	2
14,18	,	75129	,	-18428	,	-15413	,	-9.352684	,	0
14,18	,	75146	,	-18437	,	-15422	,	-12.504954	,	0
14,18	,	75162	,	-18442	,	-15419	,	-15.071288	,	0
14,18	,	75193	,	-18448	,	-15423	,	-17.096764	,	0
14,18	,	75209	,	-18453	,	-15426	,	-18.618286	,	0
14,18	,	75225	,	-18459	,	-15425	,	-19.667034	,	0
14,19	,	75257	,	-18462	,	-15436	,	-20.274252	,	0
14,19	,	75273	,	-18479	,	-15453	,	-20.520958	,	0
14,19	,	75290	,	-18480	,	-15433	,	-20.595783	,	0
14,19	,	75322	,	-18493	,	-15448	,	-20.701094	,	0
14,19	,	75338	,	-18505	,	-15446	,	-20.984661	,	0
14,19	,	75369	,	-18513	,	-15452	,	-21.572586	,	0
14,19	,	75385	,	-18522	,	-15452	,	-22.504137	,	0
14,19	,	75401	,	-18535	,	-15465	,	-23.710182	,	0
14,19	,	75433	,	-18539	,	-15467	,	-25.081856	,	0
14,19	,	75449	,	-18541	,	-15465	,	-26.428802	,	0
14,19	,	75465	,	-18551	,	-15473	,	-27.481953	,	0
14,19	,	75498	,	-18557	,	-15470	,	-28.061226	,	0
14,19	,	75513	,	-18561	,	-15482	,	-28.131065	,	0
14,19	,	75545	,	-18522	,	-15438	,	-27.500471	,	0
14,19	,	75561	,	-18458	,	-15422	,	-25.274872	,	0
14,19	,	75577	,	-18446	,	-15415	,	-20.01104	,	2
14,19	,	75609	,	-18440	,	-15416	,	-11.007427	,	7
14,19	,	75625	,	-18433	,	-15407	,	0.88795567	,	16
14,19	,	75641	,	-18431	,	-15418	,	13.846464	,	27
14,19	,	75674	,	-18432	,	-15408	,	25.907444	,	39
14,19	,	75689	,	-18414	,	-15407	,	35.546337	,	51
14,19	,	75706	,	-18415	,	-15408	,	42.013775	,	60
14,19	,	75738	,	-18420	,	-15400	,	45.17416	,	66
14,19	,	75753	,	-18415	,	-15420	,	45.17333	,	69
14,19	,	75785	,	-18434	,	-15404	,	42.347855	,	67
14,19	,	75801	,	-18435	,	-15409	,	37.137733	,	62
14,19	,	75817	,	-18429	,	-15405	,	30.138718	,	53
14,19	,	75849	,	-18427	,	-15416	,	22.26511	,	42
14,19	,	75865	,	-18445	,	-15409	,	14.468079	,	30
14,19	,	75881	,	-18439	,	-15421	,	7.337946	,	18
14,19	,	75913	,	-18437	,	-15414	,	1.2306299	,	9
14,19	,	75929	,	-18448	,	-15424	,	-3.5641265	,	3
14,19	,	75961	,	-18456	,	-15426	,	-7.031459	,	0
14,19	,	75977	,	-18460	,	-15417	,	-9.462349	,	0
14,19	,	75993	,	-18468	,	-15430	,	-11.197557	,	0
14,19	,	76025	,	-18478	,	-15422	,	-12.527886	,	0
14,19	,	76041	,	-18489	,	-15447	,	-13.7407255	,	0
14,19	,	76057	,	-18501	,	-15443	,	-15.108044	,	0
14,19	,	76089	,	-18501	,	-15441	,	-16.767805	,	0
14,19	,	76105	,	-18508	,	-15455	,	-18.607052	,	0
14,19	,	76137	,	-18520	,	-15456	,	-20.385147	,	0
14,19	,	76153	,	-18520	,	-15460	,	-21.932255	,	0
14,19	,	76169	,	-18528	,	-15459	,	-23.123177	,	0
14,19	,	76201	,	-18541	,	-15463	,	-23.890007	,	0
14,19	,	76217	,	-18540	,	-15458	,	-24.290527	,	0
14,19	,	76233	,	-18548	,	-15483	,	-24.38369	,	0
14,20	,	76265	,	-18563	,	-15479	,	-24.220844	,	0
14,20	,	76281	,	-18571	,	-15477	,	-23.982864	,	0
14,20	,	76297	,	-18563	,	-15470	,	-23.81473	,	0
14,20	,	76329	,	-18522	,	-15447	,	-23.362236	,	0
14,20	,	76345	,	-18478	,	-15423	,	-21.50195	,	0
14,20	,	76377	,	-18464	,	-15424	,	-16.86874	,	1
14,20	,	76393	,	-18451	,	-15415	,	-8.911468	,	5
14,20	,	76409	,	-18445	,	-15420	,	1.6796999	,	12
14,20	,	76441	,	-18446	,	-15416	,	13.379662	,	22
14,20	,	76457	,	-18444	,	-15415	,	24.414711	,	33
14,20	,	76473	,	-18433	,	-15422	,	33.320805	,	44
14,20	,	76505	,	-18439	,	-15420	,	39.280235	,	52
14,20	,	76521	,	-18439	,	-15401	,	42.018803	,	57
14,20	,	76553	,	-18445	,	-15417	,	41.603027	,	59
14,20	,	76569	,	-18452	,	-15425	,	38.36638	,	58
14,20	,	76585	,	-18446	,	-15418	,	32.896233	,	54
14,20	,	76617	,	-18447	,	-15417	,	26.044298	,	47
14,20	,	76633	,	-18445	,	-15417	,	18.780605	,	37
14,20	,	76649	,	-18454	,	-15426	,	11.90484	,	26
14,20	,	76681	,	-18455	,	-15429	,	5.8827715	,	15
14,20	,	76697	,	-18466	,	-15429	,	0.86901855	,	7
14,20	,	76713	,	-18469	,	-15428	,	-3.1983843	,	2
14,20	,	76745	,	-18474	,	-15430	,	-6.464526	,	0
14,20	,	76761	,	-18484	,	-15428	,	-9.075327	,	0
14,20	,	76793	,	-18488	,	-15438	,	-11.198903	,	0
14,20	,	76809	,	-18505	,	-15444	,	-13.035884	,	0
14,20	,	76825	,	-18514	,	-15445	,	-14.819563	,	0
14,20	,	76857	,	-18519	,	-15449	,	-16.729517	,	0
14,20	,	76873	,	-18530	,	-15463	,	-18.76931	,	0
14,20	,	76889	,	-18534	,	-15453	,	-20.8157	,	0
14,20	,	76921	,	-18536	,	-15456	,	-22.674524	,	0
14,20	,	76937	,	-18538	,	-15472	,	-24.075016	,	0
14,20	,	76968	,	-18554	,	-15466	,	-24.81985	,	0
14,20	,	76984	,	-18553	,	-15474	,	-24.93937	,	0
14,20	,	77001	,	-18572	,	-15476	,	-24.632519	,	0
14,20	,	77033	,	-18583	,	-15487	,	-24.210058	,	0
14,20	,	77049	,	-18584	,	-15469	,	-23.987297	,	0
14,20	,	77065	,	-18532	,	-15453	,	-23.76828	,	0
14,20	,	77097	,	-18492	,	-15432	,	-22.376385	,	0
14,20	,	77113	,	-18476	,	-15426	,	-18.242449	,	1
14,20	,	77129	,	-18451	,	-15420	,	-10.599035	,	5
14,20	,	77161	,	-18455	,	-15431	,	0.057289124	,	12
14,20	,	77177	,	-18450	,	-15416	,	12.235913	,	22
14,20	,	77208	,	-18449	,	-15423	,	24.024876	,	34
14,20	,	77224	,	-18446	,	-15422	,	33.75924	,	45
14,20	,	77241	,	-18433	,	-15424	,	40.44985	,	54
14,21	,	77273	,	-18436	,	-15398	,	43.855522	,	60
14,21	,	77289	,	-18453	,	-15411	,	44.134342	,	63
14,21	,	77305	,	-18456	,	-15418	,	41.479607	,	62
14,21	,	77336	,	-18444	,	-15420	,	36.30635	,	58
