Data recorded on Mon Jul 24 09-12-50 CAT 2017
Time: 9:13:5
Time		Millis		IR PPG		Red PPG		Filtered		SSF
13,14	,	26344	,	-17446	,	-14017	,	-23.098627	,	0
13,14	,	26360	,	-17458	,	-14016	,	-21.968422	,	0
13,14	,	26376	,	-17452	,	-14019	,	-20.188	,	1
13,14	,	26407	,	-17467	,	-14026	,	-18.110468	,	2
13,14	,	26424	,	-17465	,	-14015	,	-16.071873	,	4
13,14	,	26440	,	-17475	,	-14022	,	-14.352335	,	6
13,14	,	26472	,	-17472	,	-14017	,	-13.095779	,	7
13,14	,	26488	,	-17469	,	-14025	,	-12.238131	,	8
13,14	,	26504	,	-17473	,	-14028	,	-11.543589	,	8
13,14	,	26536	,	-17476	,	-14033	,	-10.817429	,	8
13,14	,	26552	,	-17481	,	-14035	,	-10.044554	,	8
13,14	,	26584	,	-17482	,	-14026	,	-9.317682	,	7
13,14	,	26600	,	-17489	,	-14036	,	-8.737864	,	6
13,14	,	26616	,	-17488	,	-14039	,	-8.366953	,	4
13,14	,	26648	,	-17497	,	-14033	,	-8.220066	,	2
13,14	,	26663	,	-17494	,	-14031	,	-8.283696	,	1
13,14	,	26679	,	-17495	,	-14036	,	-8.482363	,	0
13,14	,	26712	,	-17503	,	-14023	,	-8.696836	,	0
13,14	,	26727	,	-17505	,	-14040	,	-8.888584	,	0
13,14	,	26759	,	-17507	,	-14039	,	-9.083969	,	0
13,14	,	26776	,	-17515	,	-14039	,	-9.297157	,	0
13,14	,	26792	,	-17517	,	-14048	,	-9.561474	,	0
13,14	,	26824	,	-17510	,	-14039	,	-9.858566	,	0
13,14	,	26840	,	-17501	,	-14045	,	-9.962345	,	0
13,14	,	26855	,	-17499	,	-14042	,	-9.516523	,	0
13,14	,	26888	,	-17484	,	-14037	,	-8.24063	,	0
13,14	,	26904	,	-17473	,	-14042	,	-5.953086	,	1
13,14	,	26920	,	-17480	,	-14032	,	-2.6526828	,	3
13,14	,	26952	,	-17474	,	-14031	,	1.2870119	,	6
13,14	,	26968	,	-17468	,	-14030	,	5.288147	,	9
13,14	,	26999	,	-17469	,	-14030	,	8.8877	,	13
13,14	,	27015	,	-17463	,	-14031	,	11.776019	,	16
13,14	,	27031	,	-17460	,	-14025	,	13.788403	,	18
13,14	,	27064	,	-17462	,	-14027	,	14.904894	,	20
13,14	,	27079	,	-17461	,	-14023	,	15.158957	,	21
13,14	,	27095	,	-17461	,	-14028	,	14.611818	,	20
13,14	,	27127	,	-17458	,	-14015	,	13.400021	,	18
13,14	,	27143	,	-17456	,	-14013	,	11.748526	,	15
13,14	,	27175	,	-17453	,	-14023	,	9.933275	,	12
13,14	,	27191	,	-17457	,	-14021	,	8.191381	,	8
13,14	,	27207	,	-17450	,	-14017	,	6.6584587	,	5
13,14	,	27240	,	-17448	,	-14021	,	5.428207	,	3
13,14	,	27255	,	-17443	,	-14019	,	4.608115	,	1
13,14	,	27271	,	-17447	,	-14020	,	4.2438726	,	0
13,14	,	27303	,	-17445	,	-14022	,	4.2361727	,	0
13,14	,	27319	,	-17448	,	-14025	,	4.383954	,	0
13,14	,	27335	,	-17450	,	-14026	,	4.4733267	,	0
13,15	,	27367	,	-17452	,	-14015	,	4.3254547	,	0
13,15	,	27383	,	-17459	,	-14017	,	3.8140597	,	0
13,15	,	27415	,	-17459	,	-14022	,	2.8696454	,	0
13,15	,	27431	,	-17455	,	-14029	,	1.5546846	,	0
13,15	,	27448	,	-17455	,	-14028	,	0.11507487	,	0
13,15	,	27479	,	-17472	,	-14029	,	-1.2382631	,	0
13,15	,	27495	,	-17469	,	-14032	,	-2.5465744	,	0
13,15	,	27511	,	-17469	,	-14034	,	-3.901872	,	0
13,15	,	27543	,	-17467	,	-14030	,	-5.192378	,	0
13,15	,	27559	,	-17470	,	-14034	,	-6.1994824	,	0
13,15	,	27591	,	-17480	,	-14041	,	-6.833809	,	0
13,15	,	27607	,	-17480	,	-14034	,	-7.215473	,	0
13,15	,	27623	,	-17495	,	-14045	,	-7.5704513	,	0
13,15	,	27655	,	-17496	,	-14045	,	-8.129486	,	0
13,15	,	27671	,	-17492	,	-14040	,	-8.980322	,	0
13,15	,	27687	,	-17489	,	-14037	,	-9.912535	,	0
13,15	,	27719	,	-17491	,	-14041	,	-10.558095	,	0
13,15	,	27735	,	-17496	,	-14048	,	-10.690578	,	0
13,15	,	27751	,	-17500	,	-14053	,	-10.348473	,	0
13,15	,	27783	,	-17507	,	-14059	,	-9.758121	,	0
13,15	,	27799	,	-17507	,	-14058	,	-9.178485	,	0
13,15	,	27831	,	-17519	,	-14077	,	-8.803736	,	0
13,15	,	27847	,	-17530	,	-14068	,	-8.821622	,	0
13,15	,	27863	,	-17517	,	-14069	,	-9.343134	,	0
13,15	,	27895	,	-17512	,	-14068	,	-10.114378	,	0
13,15	,	27911	,	-17508	,	-14066	,	-10.584744	,	0
13,15	,	27927	,	-17506	,	-14065	,	-10.31753	,	0
13,15	,	27959	,	-17517	,	-14067	,	-9.23719	,	0
13,15	,	27975	,	-17512	,	-14067	,	-7.6100264	,	1
13,15	,	28007	,	-17509	,	-14085	,	-5.7782173	,	2
13,15	,	28023	,	-17504	,	-14078	,	-3.913392	,	3
13,15	,	28039	,	-17495	,	-14076	,	-2.0102372	,	4
13,15	,	28071	,	-17500	,	-14085	,	-0.021791935	,	5
13,15	,	28087	,	-17512	,	-14063	,	1.9017048	,	6
13,15	,	28103	,	-17499	,	-14083	,	3.414707	,	7
13,15	,	28135	,	-17503	,	-14090	,	4.3236723	,	8
13,15	,	28151	,	-17518	,	-14095	,	4.601872	,	8
13,15	,	28183	,	-17518	,	-14093	,	4.1402802	,	7
13,15	,	28199	,	-17513	,	-14097	,	2.9052918	,	6
13,15	,	28215	,	-17523	,	-14098	,	1.1286647	,	5
13,15	,	28247	,	-17525	,	-14098	,	-0.9062524	,	4
13,15	,	28263	,	-17527	,	-14102	,	-3.0140972	,	3
13,15	,	28279	,	-17532	,	-14103	,	-5.0390244	,	2
13,15	,	28311	,	-17541	,	-14117	,	-6.879546	,	1
13,15	,	28327	,	-17540	,	-14098	,	-8.517925	,	0
13,16	,	28343	,	-17548	,	-14112	,	-9.939323	,	0
13,16	,	28375	,	-17547	,	-14116	,	-11.102779	,	0
13,16	,	28391	,	-17552	,	-14121	,	-11.95788	,	0
13,16	,	28423	,	-17559	,	-14122	,	-12.490089	,	0
13,16	,	28439	,	-17561	,	-14119	,	-12.773161	,	0
13,16	,	28455	,	-17569	,	-14122	,	-12.91887	,	0
13,16	,	28487	,	-17579	,	-14124	,	-13.056278	,	0
13,16	,	28503	,	-17572	,	-14127	,	-13.293998	,	0
13,16	,	28519	,	-17580	,	-14129	,	-13.584583	,	0
13,16	,	28551	,	-17576	,	-14147	,	-13.756449	,	0
13,16	,	28567	,	-17585	,	-14125	,	-13.6724	,	0
13,16	,	28599	,	-17598	,	-14143	,	-13.3752	,	0
13,16	,	28615	,	-17610	,	-14135	,	-13.163278	,	0
13,16	,	28631	,	-17613	,	-14138	,	-13.393174	,	0
13,16	,	28663	,	-17607	,	-14138	,	-14.129108	,	0
13,16	,	28679	,	-17604	,	-14140	,	-15.019799	,	0
13,16	,	28695	,	-17609	,	-14139	,	-15.562504	,	0
13,16	,	28727	,	-17616	,	-14143	,	-15.496876	,	0
13,16	,	28742	,	-17624	,	-14138	,	-14.932207	,	0
13,16	,	28759	,	-17614	,	-14148	,	-14.106967	,	0
13,16	,	28791	,	-17620	,	-14155	,	-13.106644	,	0
13,16	,	28807	,	-17625	,	-14134	,	-11.945733	,	1
13,16	,	28839	,	-17634	,	-14143	,	-10.789576	,	2
13,16	,	28855	,	-17623	,	-14143	,	-9.839377	,	3
13,16	,	28871	,	-17632	,	-14145	,	-9.102959	,	3
13,16	,	28903	,	-17634	,	-14147	,	-8.497342	,	3
13,16	,	28919	,	-17637	,	-14155	,	-8.020713	,	3
13,16	,	28935	,	-17638	,	-14148	,	-7.691189	,	3
13,16	,	28967	,	-17637	,	-14141	,	-7.4697685	,	3
13,16	,	28983	,	-17622	,	-14147	,	-7.193121	,	3
13,16	,	29015	,	-17620	,	-14135	,	-6.5383224	,	2
13,16	,	29031	,	-17607	,	-14145	,	-5.184573	,	1
13,16	,	29047	,	-17598	,	-14127	,	-2.9534366	,	1
13,16	,	29078	,	-17589	,	-14135	,	0.18165994	,	3
13,16	,	29094	,	-17579	,	-14128	,	4.0802336	,	6
13,16	,	29110	,	-17577	,	-14130	,	8.43357	,	9
13,16	,	29143	,	-17567	,	-14121	,	12.816525	,	13
13,16	,	29159	,	-17559	,	-14115	,	16.829615	,	17
13,16	,	29175	,	-17542	,	-14107	,	20.271507	,	21
13,16	,	29207	,	-17541	,	-14107	,	23.134258	,	24
13,16	,	29223	,	-17523	,	-14101	,	25.462528	,	26
13,16	,	29254	,	-17512	,	-14097	,	27.347368	,	27
13,16	,	29270	,	-17513	,	-14096	,	28.896198	,	26
13,16	,	29287	,	-17514	,	-14089	,	30.008518	,	24
13,16	,	29319	,	-17492	,	-14083	,	30.464558	,	22
13,16	,	29334	,	-17496	,	-14085	,	30.266228	,	18
13,17	,	29350	,	-17497	,	-14078	,	29.520275	,	14
13,17	,	29383	,	-17497	,	-14086	,	28.170616	,	10
13,17	,	29399	,	-17502	,	-14086	,	26.092964	,	7
13,17	,	29431	,	-17500	,	-14087	,	23.25315	,	5
13,17	,	29447	,	-17500	,	-14087	,	19.77063	,	3
13,17	,	29463	,	-17508	,	-14095	,	15.882296	,	2
13,17	,	29494	,	-17514	,	-14086	,	11.791165	,	1
13,17	,	29510	,	-17507	,	-14087	,	7.6702204	,	0
13,17	,	29527	,	-17509	,	-14094	,	3.8050385	,	0
13,17	,	29559	,	-17512	,	-14093	,	0.5157442	,	0
13,17	,	29575	,	-17525	,	-14091	,	-2.093329	,	0
13,17	,	29591	,	-17516	,	-14087	,	-4.1393533	,	0
13,17	,	29622	,	-17498	,	-14092	,	-5.5955114	,	0
13,17	,	29638	,	-17518	,	-14096	,	-6.215406	,	0
13,17	,	29670	,	-17520	,	-14092	,	-6.0245867	,	0
13,17	,	29686	,	-17520	,	-14089	,	-5.4212613	,	0
13,17	,	29702	,	-17522	,	-14087	,	-4.761471	,	0
13,17	,	29735	,	-17524	,	-14087	,	-4.2185965	,	0
13,17	,	29751	,	-17518	,	-14080	,	-3.8444932	,	0
13,17	,	29766	,	-17525	,	-14085	,	-3.590248	,	0
13,17	,	29798	,	-17518	,	-14086	,	-3.3779178	,	0
13,17	,	29815	,	-17520	,	-14083	,	-3.1332166	,	0
13,17	,	29846	,	-17517	,	-14083	,	-2.7793887	,	0
13,17	,	29862	,	-17536	,	-14078	,	-2.3568995	,	0
13,17	,	29878	,	-17533	,	-14079	,	-2.1131265	,	0
13,17	,	29910	,	-17545	,	-14083	,	-2.3318748	,	0
13,17	,	29927	,	-17537	,	-14083	,	-3.1069922	,	0
13,17	,	29942	,	-17535	,	-14079	,	-4.2427154	,	0
13,17	,	29974	,	-17539	,	-14095	,	-5.3585296	,	0
13,17	,	29990	,	-17544	,	-14080	,	-6.1894264	,	0
13,17	,	30022	,	-17527	,	-14081	,	-6.62557	,	0
13,17	,	30039	,	-17529	,	-14082	,	-6.498785	,	0
13,17	,	30054	,	-17510	,	-14080	,	-5.5834727	,	0
13,17	,	30086	,	-17512	,	-14077	,	-3.73126	,	0
13,17	,	30102	,	-17512	,	-14073	,	-1.0359778	,	1
13,17	,	30118	,	-17509	,	-14077	,	2.090291	,	3
13,17	,	30150	,	-17508	,	-14075	,	5.1338058	,	6
13,17	,	30166	,	-17492	,	-14069	,	7.7678404	,	9
13,17	,	30182	,	-17496	,	-14068	,	9.936685	,	11
13,17	,	30214	,	-17489	,	-14080	,	11.67766	,	13
13,17	,	30230	,	-17493	,	-14057	,	12.947889	,	14
13,17	,	30262	,	-17487	,	-14064	,	13.663553	,	15
13,17	,	30278	,	-17488	,	-14061	,	13.796137	,	15
13,17	,	30294	,	-17488	,	-14060	,	13.384318	,	14
13,17	,	30326	,	-17487	,	-14067	,	12.493359	,	12
13,17	,	30342	,	-17492	,	-14065	,	11.19742	,	9
13,18	,	30358	,	-17486	,	-14066	,	9.586856	,	6
13,18	,	30390	,	-17495	,	-14062	,	7.7786736	,	4
13,18	,	30406	,	-17494	,	-14065	,	5.8698907	,	2
13,18	,	30438	,	-17482	,	-14061	,	3.9829025	,	1
13,18	,	30454	,	-17486	,	-14070	,	2.3662055	,	0
13,18	,	30470	,	-17488	,	-14054	,	1.2203984	,	0
13,18	,	30502	,	-17500	,	-14067	,	0.47420883	,	0
13,18	,	30518	,	-17495	,	-14064	,	-0.13049638	,	0
13,18	,	30534	,	-17494	,	-14066	,	-0.76001775	,	0
13,18	,	30566	,	-17504	,	-14065	,	-1.4168401	,	0
13,18	,	30582	,	-17493	,	-14068	,	-2.071548	,	0
13,18	,	30598	,	-17506	,	-14070	,	-2.6814687	,	0
13,18	,	30630	,	-17512	,	-14070	,	-3.2691123	,	0
13,18	,	30646	,	-17511	,	-14067	,	-3.9691036	,	0
13,18	,	30678	,	-17515	,	-14072	,	-4.8362427	,	0
13,18	,	30694	,	-17512	,	-14083	,	-5.761521	,	0
13,18	,	30710	,	-17520	,	-14060	,	-6.5863533	,	0
13,18	,	30742	,	-17520	,	-14065	,	-7.22793	,	0
13,18	,	30758	,	-17529	,	-14071	,	-7.718114	,	0
13,18	,	30774	,	-17520	,	-14074	,	-8.104082	,	0
13,18	,	30806	,	-17529	,	-14072	,	-8.34074	,	0
13,18	,	30822	,	-17528	,	-14075	,	-8.367781	,	0
13,18	,	30854	,	-17528	,	-14073	,	-8.193209	,	0
13,18	,	30870	,	-17539	,	-14077	,	-7.8786364	,	0
13,18	,	30886	,	-17539	,	-14077	,	-7.566099	,	0
13,18	,	30918	,	-17545	,	-14075	,	-7.4147215	,	0
13,18	,	30934	,	-17555	,	-14088	,	-7.533434	,	0
13,18	,	30950	,	-17551	,	-14074	,	-7.9863663	,	0
13,18	,	30982	,	-17543	,	-14079	,	-8.649612	,	0
13,18	,	30998	,	-17534	,	-14082	,	-9.115945	,	0
13,18	,	31014	,	-17539	,	-14085	,	-8.935925	,	0
13,18	,	31046	,	-17532	,	-14086	,	-7.9312916	,	0
13,18	,	31062	,	-17537	,	-14089	,	-6.2291384	,	1
13,18	,	31094	,	-17531	,	-14085	,	-4.117558	,	2
13,18	,	31110	,	-17537	,	-14080	,	-1.9188814	,	4
13,18	,	31126	,	-17537	,	-14087	,	0.068798065	,	6
13,18	,	31158	,	-17535	,	-14087	,	1.6161733	,	7
13,18	,	31174	,	-17537	,	-14092	,	2.621802	,	8
13,18	,	31190	,	-17550	,	-14080	,	3.0304885	,	9
13,18	,	31222	,	-17543	,	-14089	,	2.765823	,	9
13,18	,	31238	,	-17540	,	-14093	,	1.9139177	,	9
13,18	,	31270	,	-17540	,	-14084	,	0.79109263	,	8
13,18	,	31286	,	-17536	,	-14085	,	-0.26243258	,	7
13,18	,	31302	,	-17540	,	-14090	,	-1.021687	,	5
13,18	,	31333	,	-17535	,	-14083	,	-1.3910927	,	3
13,19	,	31350	,	-17549	,	-14085	,	-1.4301035	,	2
13,19	,	31366	,	-17552	,	-14091	,	-1.3868167	,	1
13,19	,	31398	,	-17543	,	-14090	,	-1.5220912	,	0
13,19	,	31414	,	-17548	,	-14093	,	-1.84987	,	0
13,19	,	31430	,	-17550	,	-14080	,	-2.2342374	,	0
13,19	,	31462	,	-17557	,	-14084	,	-2.634241	,	0
13,19	,	31478	,	-17557	,	-14080	,	-3.1175852	,	0
13,19	,	31510	,	-17554	,	-14089	,	-3.7062907	,	0
13,19	,	31526	,	-17565	,	-14079	,	-4.3317127	,	0
13,19	,	31542	,	-17561	,	-14086	,	-4.9500227	,	0
13,19	,	31574	,	-17570	,	-14087	,	-5.5614815	,	0
13,19	,	31590	,	-17572	,	-14078	,	-6.182611	,	0
13,19	,	31606	,	-17567	,	-14079	,	-6.8048024	,	0
13,19	,	31638	,	-17575	,	-14085	,	-7.3291893	,	0
13,19	,	31654	,	-17583	,	-14078	,	-7.7072687	,	0
13,19	,	31685	,	-17577	,	-14080	,	-8.013527	,	0
13,19	,	31701	,	-17579	,	-14085	,	-8.25105	,	0
13,19	,	31717	,	-17580	,	-14081	,	-8.315142	,	0
13,19	,	31750	,	-17583	,	-14082	,	-8.14719	,	0
13,19	,	31766	,	-17588	,	-14086	,	-7.801443	,	0
13,19	,	31782	,	-17585	,	-14081	,	-7.386382	,	0
13,19	,	31814	,	-17585	,	-14085	,	-6.942972	,	0
13,19	,	31830	,	-17583	,	-14084	,	-6.417056	,	0
13,19	,	31845	,	-17588	,	-14081	,	-5.765623	,	0
13,19	,	31878	,	-17583	,	-14081	,	-5.015705	,	0
13,19	,	31894	,	-17574	,	-14076	,	-4.159104	,	0
13,19	,	31926	,	-17568	,	-14078	,	-3.0483565	,	0
13,19	,	31942	,	-17560	,	-14074	,	-1.4876115	,	1
13,19	,	31957	,	-17560	,	-14078	,	0.5937507	,	2
13,19	,	31989	,	-17558	,	-14070	,	3.0463939	,	4
13,19	,	32005	,	-17559	,	-14076	,	5.5401783	,	6
13,19	,	32021	,	-17557	,	-14072	,	7.708522	,	8
13,19	,	32054	,	-17556	,	-14075	,	9.284402	,	10
13,19	,	32070	,	-17550	,	-14078	,	10.175348	,	11
13,19	,	32101	,	-17536	,	-14078	,	10.523329	,	11
13,19	,	32117	,	-17543	,	-14084	,	10.626745	,	11
13,19	,	32133	,	-17551	,	-14077	,	10.612879	,	10
13,19	,	32165	,	-17545	,	-14069	,	10.329997	,	9
13,19	,	32181	,	-17538	,	-14070	,	9.684969	,	7
13,19	,	32197	,	-17536	,	-14067	,	8.833254	,	5
13,19	,	32230	,	-17534	,	-14071	,	8.003262	,	3
13,19	,	32246	,	-17534	,	-14074	,	7.3248825	,	1
13,19	,	32261	,	-17537	,	-14065	,	6.7905016	,	0
13,19	,	32293	,	-17536	,	-14074	,	6.2908115	,	0
13,19	,	32309	,	-17542	,	-14068	,	5.691759	,	0
13,20	,	32341	,	-17547	,	-14073	,	4.8613377	,	0
13,20	,	32357	,	-17541	,	-14075	,	3.7206779	,	0
13,20	,	32373	,	-17549	,	-14065	,	2.3316944	,	0
13,20	,	32405	,	-17549	,	-14078	,	0.8256116	,	0
13,20	,	32422	,	-17555	,	-14086	,	-0.71008587	,	0
13,20	,	32438	,	-17557	,	-14083	,	-2.2281358	,	0
13,20	,	32469	,	-17556	,	-14083	,	-3.6707997	,	0
13,20	,	32485	,	-17558	,	-14081	,	-4.9318023	,	0
13,20	,	32517	,	-17557	,	-14082	,	-5.8840914	,	0
13,20	,	32533	,	-17564	,	-14081	,	-6.4639125	,	0
13,20	,	32549	,	-17570	,	-14084	,	-6.7580943	,	0
13,20	,	32581	,	-17568	,	-14085	,	-6.9473915	,	0
13,20	,	32597	,	-17561	,	-14088	,	-7.0804586	,	0
13,20	,	32614	,	-17578	,	-14071	,	-7.0809574	,	0
13,20	,	32645	,	-17571	,	-14083	,	-6.979307	,	0
13,20	,	32661	,	-17575	,	-14086	,	-6.859524	,	0
13,20	,	32693	,	-17581	,	-14087	,	-6.7408714	,	0
13,20	,	32709	,	-17591	,	-14089	,	-6.712776	,	0
13,20	,	32725	,	-17585	,	-14092	,	-6.9207654	,	0
13,20	,	32757	,	-17595	,	-14091	,	-7.3829436	,	0
13,20	,	32773	,	-17596	,	-14091	,	-8.020721	,	0
13,20	,	32789	,	-17597	,	-14088	,	-8.745716	,	0
13,20	,	32821	,	-17596	,	-14090	,	-9.411473	,	0
13,20	,	32837	,	-17601	,	-14099	,	-9.848984	,	0
13,20	,	32853	,	-17597	,	-14087	,	-9.960405	,	0
13,20	,	32885	,	-17585	,	-14090	,	-9.639544	,	0
13,20	,	32901	,	-17585	,	-14094	,	-8.69816	,	0
13,20	,	32933	,	-17571	,	-14088	,	-6.980593	,	0
13,20	,	32949	,	-17577	,	-14089	,	-4.490382	,	1
13,20	,	32965	,	-17563	,	-14088	,	-1.4198432	,	3
13,20	,	32997	,	-17551	,	-14091	,	2.006106	,	6
13,20	,	33013	,	-17558	,	-14083	,	5.6157055	,	9
13,20	,	33029	,	-17553	,	-14090	,	9.096762	,	12
13,20	,	33061	,	-17542	,	-14080	,	12.070457	,	15
13,20	,	33077	,	-17536	,	-14088	,	14.394518	,	17
13,20	,	33109	,	-17552	,	-14079	,	16.039965	,	19
13,20	,	33125	,	-17545	,	-14088	,	16.819885	,	20
13,20	,	33141	,	-17552	,	-14088	,	16.534481	,	19
13,20	,	33173	,	-17545	,	-14087	,	15.211505	,	17
13,20	,	33189	,	-17543	,	-14084	,	13.125298	,	14
13,20	,	33205	,	-17546	,	-14087	,	10.67314	,	11
13,20	,	33237	,	-17548	,	-14083	,	8.171806	,	8
13,20	,	33253	,	-17547	,	-14088	,	5.7973566	,	5
13,20	,	33269	,	-17543	,	-14082	,	3.690003	,	3
13,20	,	33301	,	-17540	,	-14092	,	2.009356	,	1
13,20	,	33317	,	-17554	,	-14104	,	0.8262327	,	0
13,21	,	33349	,	-17547	,	-14088	,	0.015101552	,	0
13,21	,	33365	,	-17561	,	-14092	,	-0.6433336	,	0
13,21	,	33381	,	-17542	,	-14089	,	-1.2730644	,	0
13,21	,	33413	,	-17561	,	-14094	,	-1.8422987	,	0
13,21	,	33429	,	-17557	,	-14091	,	-2.3351188	,	0
13,21	,	33445	,	-17561	,	-14087	,	-2.8338134	,	0
13,21	,	33477	,	-17569	,	-14098	,	-3.415009	,	0
13,21	,	33493	,	-17562	,	-14094	,	-4.115138	,	0
13,21	,	33525	,	-17553	,	-14091	,	-4.8029256	,	0
13,21	,	33541	,	-17563	,	-14101	,	-5.188583	,	0
13,21	,	33557	,	-17552	,	-14108	,	-5.0991898	,	0
13,21	,	33589	,	-17555	,	-14088	,	-4.52357	,	0
13,21	,	33605	,	-17557	,	-14099	,	-3.5425816	,	0
13,21	,	33621	,	-17564	,	-14097	,	-2.3853142	,	0
13,21	,	33653	,	-17562	,	-14095	,	-1.3682926	,	1
13,21	,	33669	,	-17566	,	-14099	,	-0.7200202	,	2
13,21	,	33685	,	-17567	,	-14098	,	-0.52019095	,	2
13,21	,	33717	,	-17571	,	-14096	,	-0.75190955	,	2
13,21	,	33733	,	-17575	,	-14095	,	-1.3589938	,	2
13,21	,	33765	,	-17581	,	-14097	,	-2.2912233	,	2
13,21	,	33781	,	-17576	,	-14101	,	-3.4689639	,	2
13,21	,	33797	,	-17576	,	-14107	,	-4.6849275	,	2
13,21	,	33829	,	-17581	,	-14094	,	-5.6795464	,	2
13,21	,	33845	,	-17584	,	-14101	,	-6.3378563	,	1
13,21	,	33861	,	-17583	,	-14109	,	-6.693906	,	0
13,21	,	33893	,	-17580	,	-14105	,	-6.775977	,	0
13,21	,	33909	,	-17581	,	-14107	,	-6.553068	,	0
13,21	,	33941	,	-17578	,	-14104	,	-6.002388	,	0
13,21	,	33957	,	-17568	,	-14100	,	-5.102255	,	0
13,21	,	33973	,	-17566	,	-14095	,	-3.777691	,	0
13,21	,	34005	,	-17567	,	-14100	,	-2.0108	,	1
13,21	,	34021	,	-17551	,	-14096	,	0.098849535	,	2
13,21	,	34036	,	-17546	,	-14095	,	2.4960976	,	4
13,21	,	34069	,	-17547	,	-14093	,	5.1452923	,	6
13,21	,	34085	,	-17544	,	-14100	,	7.831667	,	8
13,21	,	34101	,	-17534	,	-14096	,	10.260263	,	10
13,21	,	34133	,	-17536	,	-14089	,	12.260919	,	12
13,21	,	34149	,	-17541	,	-14097	,	13.697535	,	14
13,21	,	34180	,	-17530	,	-14095	,	14.406225	,	15
13,21	,	34196	,	-17533	,	-14091	,	14.371088	,	14
13,21	,	34212	,	-17527	,	-14092	,	13.748548	,	13
13,21	,	34245	,	-17528	,	-14094	,	12.741562	,	11
13,21	,	34261	,	-17539	,	-14090	,	11.475819	,	9
13,21	,	34277	,	-17527	,	-14099	,	9.962504	,	7
13,21	,	34309	,	-17539	,	-14091	,	8.241674	,	5
13,21	,	34325	,	-17531	,	-14096	,	6.4204745	,	3
13,22	,	34356	,	-17535	,	-14098	,	4.622373	,	1
13,22	,	34372	,	-17534	,	-14097	,	2.9832563	,	0
13,22	,	34389	,	-17533	,	-14098	,	1.6006968	,	0
13,22	,	34421	,	-17538	,	-14093	,	0.50259376	,	0
13,22	,	34436	,	-17542	,	-14090	,	-0.37431872	,	0
13,22	,	34452	,	-17551	,	-14100	,	-1.1951039	,	0
13,22	,	34484	,	-17551	,	-14092	,	-2.144685	,	0
13,22	,	34500	,	-17547	,	-14104	,	-3.2597685	,	0
13,22	,	34516	,	-17551	,	-14096	,	-4.371247	,	0
13,22	,	34549	,	-17556	,	-14102	,	-5.3011403	,	0
13,22	,	34565	,	-17546	,	-14095	,	-5.9723864	,	0
13,22	,	34597	,	-17554	,	-14099	,	-6.3083982	,	0
13,22	,	34612	,	-17558	,	-14100	,	-6.292551	,	0
13,22	,	34628	,	-17565	,	-14099	,	-6.0904665	,	0
13,22	,	34661	,	-17562	,	-14107	,	-5.925844	,	0
13,22	,	34676	,	-17563	,	-14108	,	-5.883948	,	0
13,22	,	34692	,	-17568	,	-14106	,	-5.9224834	,	0
13,22	,	34725	,	-17566	,	-14101	,	-5.990987	,	0
13,22	,	34741	,	-17576	,	-14107	,	-6.072422	,	0
13,22	,	34772	,	-17578	,	-14098	,	-6.215386	,	0
13,22	,	34788	,	-17579	,	-14106	,	-6.4926167	,	0
13,22	,	34804	,	-17588	,	-14101	,	-6.923048	,	0
13,22	,	34837	,	-17585	,	-14105	,	-7.495083	,	0
13,22	,	34852	,	-17592	,	-14108	,	-8.156137	,	0
13,22	,	34868	,	-17595	,	-14112	,	-8.826323	,	0
13,22	,	34900	,	-17599	,	-14110	,	-9.464714	,	0
13,22	,	34916	,	-17614	,	-14109	,	-10.110419	,	0
13,22	,	34932	,	-17605	,	-14112	,	-10.845898	,	0
13,22	,	34964	,	-17605	,	-14111	,	-11.589338	,	0
13,22	,	34980	,	-17615	,	-14123	,	-12.1065445	,	0
13,22	,	35012	,	-17605	,	-14108	,	-12.255554	,	0
13,22	,	35028	,	-17594	,	-14111	,	-11.896674	,	0
13,22	,	35044	,	-17579	,	-14105	,	-10.712044	,	0
13,22	,	35076	,	-17577	,	-14102	,	-8.388826	,	1
13,22	,	35092	,	-17579	,	-14104	,	-4.9594765	,	3
13,22	,	35108	,	-17576	,	-14104	,	-0.8876338	,	6
13,22	,	35140	,	-17571	,	-14102	,	3.215072	,	10
13,22	,	35156	,	-17562	,	-14098	,	6.9149494	,	14
13,22	,	35188	,	-17570	,	-14103	,	9.978597	,	17
13,22	,	35204	,	-17565	,	-14104	,	12.209339	,	20
13,22	,	35220	,	-17554	,	-14107	,	13.514096	,	22
13,22	,	35252	,	-17549	,	-14087	,	14.07576	,	23
13,22	,	35268	,	-17541	,	-14093	,	14.24054	,	22
13,22	,	35284	,	-17543	,	-14094	,	14.278725	,	20
13,22	,	35316	,	-17550	,	-14094	,	14.218752	,	17
13,22	,	35332	,	-17541	,	-14088	,	13.889307	,	13
13,23	,	35364	,	-17545	,	-14088	,	13.170641	,	9
13,23	,	35380	,	-17550	,	-14092	,	12.051222	,	6
13,23	,	35396	,	-17548	,	-14098	,	10.531101	,	3
13,23	,	35428	,	-17546	,	-14095	,	8.682876	,	1
13,23	,	35445	,	-17541	,	-14092	,	6.7176003	,	0
13,23	,	35460	,	-17542	,	-14093	,	4.910884	,	0
13,23	,	35492	,	-17542	,	-14081	,	3.4604769	,	0
13,23	,	35508	,	-17542	,	-14088	,	2.411894	,	0
13,23	,	35524	,	-17540	,	-14084	,	1.7204881	,	0
13,23	,	35556	,	-17551	,	-14084	,	1.2839603	,	0
13,23	,	35572	,	-17552	,	-14088	,	0.89636385	,	0
13,23	,	35604	,	-17543	,	-14085	,	0.38656485	,	0
13,23	,	35620	,	-17541	,	-14085	,	-0.1653853	,	0
13,23	,	35636	,	-17545	,	-14080	,	-0.5505288	,	0
13,23	,	35668	,	-17559	,	-14085	,	-0.7580338	,	0
13,23	,	35684	,	-17541	,	-14081	,	-0.9635529	,	0
13,23	,	35700	,	-17544	,	-14089	,	-1.1849923	,	0
13,23	,	35732	,	-17559	,	-14075	,	-1.3298541	,	0
13,23	,	35748	,	-17554	,	-14083	,	-1.5051159	,	0
13,23	,	35780	,	-17557	,	-14089	,	-1.863337	,	0
13,23	,	35796	,	-17559	,	-14083	,	-2.3917801	,	0
13,23	,	35812	,	-17556	,	-14075	,	-2.9951253	,	0
13,23	,	35844	,	-17563	,	-14088	,	-3.5687096	,	0
13,23	,	35860	,	-17561	,	-14084	,	-4.0469856	,	0
13,23	,	35876	,	-17559	,	-14083	,	-4.3884583	,	0
13,23	,	35908	,	-17553	,	-14079	,	-4.4900703	,	0
13,23	,	35924	,	-17561	,	-14080	,	-4.252522	,	0
13,23	,	35940	,	-17562	,	-14094	,	-3.7374551	,	0
13,23	,	35972	,	-17558	,	-14079	,	-3.114517	,	0
13,23	,	35988	,	-17577	,	-14081	,	-2.5691643	,	0
13,23	,	36020	,	-17566	,	-14084	,	-2.3230891	,	0
13,23	,	36036	,	-17567	,	-14079	,	-2.4497309	,	0
13,23	,	36052	,	-17563	,	-14082	,	-2.7547054	,	0
13,23	,	36084	,	-17559	,	-14078	,	-2.9643579	,	0
13,23	,	36100	,	-17553	,	-14075	,	-2.8404455	,	0
13,23	,	36116	,	-17547	,	-14077	,	-2.1882167	,	0
13,23	,	36148	,	-17542	,	-14075	,	-0.90285635	,	0
13,23	,	36164	,	-17538	,	-14073	,	0.97818613	,	1
13,23	,	36196	,	-17537	,	-14078	,	3.2585514	,	2
13,23	,	36212	,	-17530	,	-14067	,	5.6544724	,	4
13,23	,	36228	,	-17531	,	-14077	,	7.9066925	,	6
13,23	,	36260	,	-17528	,	-14067	,	9.805412	,	8
13,23	,	36276	,	-17533	,	-14070	,	11.153232	,	9
13,23	,	36292	,	-17550	,	-14076	,	11.690566	,	10
13,23	,	36324	,	-17531	,	-14078	,	11.18388	,	10
13,23	,	36340	,	-17544	,	-14076	,	9.711395	,	10
13,24	,	36356	,	-17534	,	-14078	,	7.6301374	,	9
13,24	,	36388	,	-17540	,	-14074	,	5.329988	,	8
13,24	,	36404	,	-17537	,	-14074	,	3.1390786	,	6
13,24	,	36436	,	-17533	,	-14080	,	1.2989426	,	4
13,24	,	36452	,	-17532	,	-14065	,	-0.013593912	,	2
13,24	,	36468	,	-17538	,	-14074	,	-0.7324197	,	1
13,24	,	36499	,	-17538	,	-14074	,	-0.97764635	,	0
13,24	,	36516	,	-17537	,	-14078	,	-0.957746	,	0
13,24	,	36532	,	-17545	,	-14072	,	-0.8574785	,	0
13,24	,	36563	,	-17546	,	-14068	,	-0.85785884	,	0
13,24	,	36580	,	-17539	,	-14070	,	-1.0633051	,	0
13,24	,	36612	,	-17542	,	-14074	,	-1.3877568	,	0
13,24	,	36628	,	-17542	,	-14073	,	-1.6760377	,	0
13,24	,	36644	,	-17550	,	-14079	,	-1.8891418	,	0
13,24	,	36676	,	-17550	,	-14078	,	-2.1191518	,	0
13,24	,	36692	,	-17551	,	-14072	,	-2.4641035	,	0
13,24	,	36708	,	-17557	,	-14070	,	-2.9459858	,	0
13,24	,	36740	,	-17546	,	-14073	,	-3.5030093	,	0
13,24	,	36756	,	-17557	,	-14077	,	-3.9956312	,	0
13,24	,	36772	,	-17570	,	-14078	,	-4.404289	,	0
13,24	,	36803	,	-17563	,	-14074	,	-4.9140224	,	0
13,24	,	36819	,	-17570	,	-14074	,	-5.626902	,	0
13,24	,	36852	,	-17570	,	-14077	,	-6.4557314	,	0
13,24	,	36868	,	-17568	,	-14077	,	-7.2447863	,	0
13,24	,	36884	,	-17573	,	-14080	,	-7.8271255	,	0
13,24	,	36916	,	-17567	,	-14071	,	-8.08689	,	0
13,24	,	36931	,	-17574	,	-14073	,	-7.9847794	,	0
13,24	,	36947	,	-17575	,	-14074	,	-7.5715804	,	0
13,24	,	36979	,	-17575	,	-14065	,	-6.9711356	,	0
13,24	,	36996	,	-17577	,	-14071	,	-6.2887	,	0
13,24	,	37028	,	-17573	,	-14073	,	-5.575972	,	0
13,24	,	37044	,	-17563	,	-14068	,	-4.7892036	,	0
13,24	,	37060	,	-17544	,	-14067	,	-3.678948	,	0
13,24	,	37092	,	-17552	,	-14062	,	-1.9146702	,	1
13,24	,	37107	,	-17539	,	-14064	,	0.56952095	,	2
13,24	,	37124	,	-17539	,	-14062	,	3.5425544	,	4
13,24	,	37156	,	-17548	,	-14055	,	6.6083546	,	6
13,24	,	37171	,	-17531	,	-14060	,	9.291822	,	9
13,24	,	37187	,	-17534	,	-14055	,	11.313093	,	11
13,24	,	37219	,	-17522	,	-14056	,	12.688326	,	13
13,24	,	37235	,	-17516	,	-14050	,	13.585144	,	14
13,24	,	37267	,	-17513	,	-14049	,	14.214878	,	14
13,24	,	37284	,	-17511	,	-14048	,	14.700892	,	13
13,24	,	37300	,	-17511	,	-14053	,	15.017687	,	12
13,24	,	37331	,	-17505	,	-14048	,	15.076475	,	10
13,25	,	37348	,	-17507	,	-14046	,	14.822437	,	8
13,25	,	37363	,	-17487	,	-14047	,	14.320225	,	5
13,25	,	37395	,	-17496	,	-14038	,	13.773123	,	3
13,25	,	37411	,	-17482	,	-14036	,	13.357807	,	1
13,25	,	37443	,	-17498	,	-14038	,	13.0631485	,	0
13,25	,	37459	,	-17502	,	-14032	,	12.639189	,	0
13,25	,	37475	,	-17499	,	-14039	,	11.741884	,	0
13,25	,	37508	,	-17497	,	-14040	,	10.262115	,	0
13,25	,	37524	,	-17504	,	-14043	,	8.347769	,	0
13,25	,	37539	,	-17503	,	-14043	,	6.171761	,	0
13,25	,	37572	,	-17506	,	-14047	,	3.8829074	,	0
13,25	,	37587	,	-17508	,	-14051	,	1.6389089	,	0
13,25	,	37603	,	-17527	,	-14053	,	-0.50499415	,	0
13,25	,	37635	,	-17532	,	-14048	,	-2.7074013	,	0
13,25	,	37651	,	-17530	,	-14058	,	-5.13395	,	0
13,25	,	37683	,	-17508	,	-14043	,	-7.5482106	,	0
13,25	,	37699	,	-17475	,	-14007	,	-9.119733	,	0
13,25	,	37715	,	-17426	,	-13980	,	-8.563561	,	0
13,25	,	37747	,	-17393	,	-13954	,	-4.589797	,	0
13,25	,	37763	,	-17365	,	-13933	,	3.431066	,	3
13,25	,	37795	,	-17383	,	-13943	,	14.873845	,	11
13,25	,	37811	,	-17401	,	-13957	,	27.67381	,	22
13,25	,	37827	,	-17418	,	-13975	,	38.95988	,	34
13,25	,	37859	,	-17456	,	-14004	,	46.113373	,	45
13,25	,	37875	,	-17477	,	-14005	,	47.39281	,	52
13,25	,	37891	,	-17540	,	-14068	,	42.04174	,	53
13,25	,	37923	,	-17574	,	-14079	,	30.120779	,	53
13,25	,	37939	,	-17610	,	-14095	,	12.489212	,	53
13,25	,	37955	,	-17616	,	-14101	,	-8.990513	,	50
13,25	,	37987	,	-17617	,	-14102	,	-31.535545	,	42
13,25	,	38003	,	-17621	,	-14105	,	-52.035797	,	31
13,25	,	38035	,	-17618	,	-14100	,	-67.88876	,	19
13,25	,	38051	,	-17615	,	-14109	,	-77.51372	,	8
13,25	,	38067	,	-17607	,	-14105	,	-80.39694	,	1
13,25	,	38099	,	-17606	,	-14110	,	-76.959274	,	0
13,25	,	38115	,	-17605	,	-14101	,	-68.39056	,	3
13,25	,	38131	,	-17605	,	-14107	,	-56.392918	,	11
13,25	,	38163	,	-17597	,	-14101	,	-42.77976	,	22
13,25	,	38201	,	-17555	,	-14079	,	-15.937994	,	48
13,25	,	38227	,	-17521	,	-14039	,	-3.6748486	,	61
13,25	,	38243	,	-17482	,	-14028	,	8.101018	,	73
13,25	,	38275	,	-17449	,	-14004	,	19.902042	,	84
13,25	,	38291	,	-17431	,	-13991	,	31.97802	,	95
13,25	,	38307	,	-17446	,	-13995	,	43.831993	,	104
13,25	,	38339	,	-17430	,	-13997	,	54.187195	,	107
13,26	,	38355	,	-17437	,	-14003	,	61.6635	,	106
13,26	,	38371	,	-17426	,	-13994	,	65.423874	,	100
13,26	,	38403	,	-17408	,	-13989	,	65.41755	,	90
13,26	,	38419	,	-17403	,	-13983	,	62.356037	,	77
13,26	,	38451	,	-17396	,	-13978	,	57.29193	,	65
13,26	,	38467	,	-17401	,	-13982	,	51.13307	,	54
13,26	,	38483	,	-17416	,	-13988	,	44.3871	,	43
13,26	,	38515	,	-17421	,	-14003	,	37.157997	,	31
13,26	,	38531	,	-17441	,	-14017	,	29.388023	,	20
13,26	,	38547	,	-17469	,	-14033	,	20.955364	,	10
13,26	,	38579	,	-17484	,	-14044	,	11.675432	,	3
13,26	,	38595	,	-17503	,	-14051	,	1.5469007	,	0
13,26	,	38611	,	-17498	,	-14045	,	-8.97885	,	0
13,26	,	38643	,	-17480	,	-14027	,	-18.86528	,	0
13,26	,	38659	,	-17440	,	-14002	,	-26.507301	,	0
13,26	,	38691	,	-17418	,	-13988	,	-30.146095	,	0
13,26	,	38707	,	-17399	,	-13971	,	-28.658215	,	0
13,26	,	38723	,	-17386	,	-13958	,	-22.105816	,	1
13,26	,	38755	,	-17365	,	-13946	,	-11.583722	,	7
13,26	,	38771	,	-17364	,	-13944	,	1.2702837	,	17
13,26	,	38787	,	-17352	,	-13947	,	14.637461	,	29
13,26	,	38819	,	-17370	,	-13946	,	26.735968	,	42
13,26	,	38835	,	-17376	,	-13950	,	35.95604	,	54
13,26	,	38867	,	-17401	,	-13980	,	41.034447	,	63
13,26	,	38883	,	-17419	,	-13981	,	41.254772	,	68
13,26	,	38899	,	-17432	,	-13984	,	36.590477	,	68
13,26	,	38931	,	-17428	,	-13994	,	27.852678	,	67
13,26	,	38947	,	-17433	,	-13994	,	16.620502	,	61
13,26	,	38963	,	-17433	,	-13993	,	4.7672634	,	51
13,26	,	38995	,	-17452	,	-13994	,	-6.153023	,	39
13,26	,	39011	,	-17462	,	-14009	,	-15.289657	,	26
13,26	,	39043	,	-17460	,	-14014	,	-22.365679	,	14
13,26	,	39059	,	-17470	,	-14003	,	-27.302017	,	5
13,26	,	39075	,	-17470	,	-14017	,	-30.130735	,	0
13,26	,	39107	,	-17466	,	-14026	,	-31.000252	,	0
13,26	,	39123	,	-17460	,	-14022	,	-30.056873	,	0
13,26	,	39139	,	-17476	,	-14033	,	-27.54125	,	0
13,26	,	39171	,	-17463	,	-14049	,	-23.93459	,	2
13,26	,	39187	,	-17487	,	-14058	,	-19.8489	,	5
13,26	,	39203	,	-17502	,	-14070	,	-16.022861	,	9
13,26	,	39235	,	-17515	,	-14085	,	-13.296204	,	12
13,26	,	39251	,	-17542	,	-14106	,	-12.336073	,	14
13,26	,	39283	,	-17551	,	-14137	,	-13.478149	,	14
13,26	,	39298	,	-17586	,	-14146	,	-16.725218	,	14
13,26	,	39315	,	-17638	,	-14201	,	-22.025574	,	14
13,27	,	39346	,	-17676	,	-14217	,	-29.560587	,	14
13,27	,	39363	,	-17686	,	-14231	,	-39.298176	,	12
13,27	,	39379	,	-17694	,	-14238	,	-50.328182	,	9
13,27	,	39411	,	-17705	,	-14246	,	-61.00985	,	5
13,27	,	39427	,	-17723	,	-14249	,	-69.75428	,	2
13,27	,	39458	,	-17715	,	-14260	,	-75.50388	,	0
13,27	,	39474	,	-17727	,	-14265	,	-77.693474	,	0
13,27	,	39491	,	-17735	,	-14275	,	-76.2734	,	0
13,27	,	39523	,	-17741	,	-14274	,	-71.77133	,	1
13,27	,	39539	,	-17741	,	-14274	,	-65.031906	,	5
13,27	,	39555	,	-17755	,	-14281	,	-56.962357	,	11
13,27	,	39587	,	-17759	,	-14288	,	-48.490665	,	19
13,27	,	39603	,	-17764	,	-14287	,	-40.440704	,	27
13,27	,	39618	,	-17764	,	-14294	,	-33.337696	,	35
13,27	,	39651	,	-17778	,	-14299	,	-27.431675	,	42
13,27	,	39667	,	-17778	,	-14298	,	-22.848166	,	47
13,27	,	39699	,	-17792	,	-14299	,	-19.624807	,	51
13,27	,	39715	,	-17790	,	-14307	,	-17.680412	,	53
13,27	,	39731	,	-17792	,	-14311	,	-16.758078	,	50
13,27	,	39763	,	-17803	,	-14324	,	-16.47927	,	44
13,27	,	39778	,	-17799	,	-14302	,	-16.522554	,	36
13,27	,	39794	,	-17810	,	-14313	,	-16.658817	,	28
13,27	,	39827	,	-17811	,	-14310	,	-16.739834	,	20
13,27	,	39843	,	-17813	,	-14313	,	-16.688366	,	13
13,27	,	39874	,	-17816	,	-14318	,	-16.432371	,	8
13,27	,	39891	,	-17818	,	-14318	,	-15.922495	,	4
13,27	,	39907	,	-17821	,	-14313	,	-15.162552	,	1
13,27	,	39939	,	-17816	,	-14313	,	-14.161264	,	0
13,27	,	39954	,	-17813	,	-14312	,	-12.870657	,	1
13,27	,	39970	,	-17816	,	-14309	,	-11.236043	,	2
13,27	,	40002	,	-17818	,	-14313	,	-9.327117	,	3
13,27	,	40018	,	-17827	,	-14304	,	-7.3844876	,	4
13,27	,	40050	,	-17827	,	-14304	,	-5.734125	,	5
13,27	,	40067	,	-17815	,	-14299	,	-4.5431294	,	6
13,27	,	40082	,	-17816	,	-14305	,	-3.661934	,	7
13,27	,	40114	,	-17811	,	-14300	,	-2.8167558	,	7
13,27	,	40130	,	-17801	,	-14295	,	-1.7899082	,	7
13,27	,	40146	,	-17796	,	-14295	,	-0.39400566	,	7
13,27	,	40178	,	-17790	,	-14292	,	1.477556	,	7
13,27	,	40195	,	-17786	,	-14295	,	3.7657661	,	7
13,27	,	40210	,	-17767	,	-14293	,	6.352957	,	8
13,27	,	40242	,	-17764	,	-14289	,	9.208035	,	9
13,27	,	40258	,	-17758	,	-14277	,	12.273975	,	10
13,27	,	40290	,	-17756	,	-14274	,	15.303167	,	12
13,27	,	40306	,	-17737	,	-14277	,	18.009468	,	15
13,27	,	40322	,	-17741	,	-14275	,	20.27092	,	17
13,28	,	40354	,	-17736	,	-14271	,	22.010138	,	18
13,28	,	40371	,	-17731	,	-14275	,	23.0859	,	18
13,28	,	40386	,	-17725	,	-14266	,	23.438848	,	18
13,28	,	40418	,	-17718	,	-14261	,	23.172325	,	16
13,28	,	40434	,	-17715	,	-14260	,	22.47068	,	14
13,28	,	40466	,	-17712	,	-14257	,	21.491917	,	12
13,28	,	40482	,	-17703	,	-14250	,	20.354458	,	9
13,28	,	40498	,	-17695	,	-14251	,	19.223684	,	6
13,28	,	40530	,	-17691	,	-14239	,	18.299707	,	4
13,28	,	40546	,	-17688	,	-14233	,	17.683685	,	2
13,28	,	40562	,	-17678	,	-14227	,	17.353004	,	1
13,28	,	40594	,	-17677	,	-14225	,	17.253223	,	0
13,28	,	40610	,	-17670	,	-14211	,	17.316227	,	0
13,28	,	40626	,	-17662	,	-14212	,	17.46909	,	0
13,28	,	40658	,	-17650	,	-14209	,	17.71766	,	0
13,28	,	40674	,	-17648	,	-14203	,	18.133186	,	0
13,28	,	40706	,	-17636	,	-14199	,	18.741556	,	0
13,28	,	40722	,	-17636	,	-14187	,	19.487423	,	0
13,28	,	40738	,	-17627	,	-14192	,	20.248753	,	0
13,28	,	40770	,	-17632	,	-14188	,	20.841179	,	0
13,28	,	40786	,	-17629	,	-14187	,	21.03349	,	0
13,28	,	40802	,	-17641	,	-14186	,	20.572098	,	0
13,28	,	40834	,	-17633	,	-14189	,	19.258978	,	0
13,28	,	40850	,	-17648	,	-14189	,	17.046978	,	0
13,28	,	40882	,	-17647	,	-14189	,	14.011947	,	0
13,28	,	40898	,	-17643	,	-14187	,	10.362947	,	0
13,28	,	40914	,	-17640	,	-14193	,	6.532584	,	0
13,28	,	40946	,	-17661	,	-14199	,	2.9487805	,	0
13,28	,	40962	,	-17661	,	-14195	,	-0.29611206	,	0
13,28	,	40978	,	-17664	,	-14194	,	-3.2919106	,	0
13,28	,	41010	,	-17658	,	-14199	,	-5.964423	,	0
13,28	,	41026	,	-17656	,	-14197	,	-8.039906	,	0
13,28	,	41042	,	-17654	,	-14200	,	-9.23288	,	0
13,28	,	41074	,	-17643	,	-14199	,	-9.370152	,	0
13,28	,	41090	,	-17652	,	-14191	,	-8.432038	,	0
13,28	,	41122	,	-17649	,	-14194	,	-6.648152	,	0
13,28	,	41138	,	-17640	,	-14189	,	-4.402817	,	1
13,28	,	41154	,	-17634	,	-14185	,	-1.9446867	,	3
13,28	,	41186	,	-17625	,	-14183	,	0.6689389	,	5
13,28	,	41202	,	-17613	,	-14161	,	3.4654875	,	7
13,28	,	41218	,	-17591	,	-14160	,	6.5622716	,	9
13,28	,	41250	,	-17587	,	-14158	,	10.128348	,	12
13,28	,	41266	,	-17596	,	-14157	,	14.06531	,	15
13,28	,	41298	,	-17602	,	-14159	,	17.762835	,	18
13,28	,	41314	,	-17595	,	-14165	,	20.427746	,	21
13,28	,	41330	,	-17599	,	-14160	,	21.59621	,	22
13,29	,	41362	,	-17594	,	-14162	,	21.233177	,	21
13,29	,	41378	,	-17595	,	-14163	,	19.583504	,	19
13,29	,	41394	,	-17594	,	-14159	,	17.03709	,	17
13,29	,	41426	,	-17600	,	-14166	,	13.9823885	,	15
13,29	,	41442	,	-17601	,	-14150	,	10.708781	,	12
13,29	,	41474	,	-17609	,	-14163	,	7.3962307	,	9
13,29	,	41490	,	-17598	,	-14166	,	4.195408	,	6
13,29	,	41506	,	-17604	,	-14161	,	1.3353696	,	3
13,29	,	41538	,	-17609	,	-14163	,	-0.9820447	,	1
13,29	,	41554	,	-17609	,	-14163	,	-2.7430322	,	0
13,29	,	41570	,	-17625	,	-14175	,	-4.09908	,	0
13,29	,	41602	,	-17625	,	-14173	,	-5.30457	,	0
13,29	,	41618	,	-17638	,	-14168	,	-6.607951	,	0
13,29	,	41634	,	-17628	,	-14170	,	-8.086903	,	0
13,29	,	41666	,	-17630	,	-14184	,	-9.551565	,	0
13,29	,	41682	,	-17649	,	-14167	,	-10.755944	,	0
13,29	,	41714	,	-17653	,	-14176	,	-11.7473755	,	0
13,29	,	41730	,	-17644	,	-14173	,	-12.681725	,	0
13,29	,	41746	,	-17644	,	-14177	,	-13.421364	,	0
13,29	,	41778	,	-17652	,	-14170	,	-13.684924	,	0
13,29	,	41794	,	-17649	,	-14177	,	-13.387114	,	0
13,29	,	41810	,	-17661	,	-14181	,	-12.657967	,	0
13,29	,	41842	,	-17663	,	-14179	,	-11.754514	,	0
13,29	,	41858	,	-17662	,	-14178	,	-10.924463	,	0
13,29	,	41890	,	-17660	,	-14184	,	-10.221332	,	0
13,29	,	41906	,	-17664	,	-14178	,	-9.54533	,	0
13,29	,	41922	,	-17670	,	-14177	,	-8.851425	,	0
13,29	,	41954	,	-17672	,	-14187	,	-8.224224	,	0
13,29	,	41970	,	-17676	,	-14183	,	-7.7772593	,	0
13,29	,	41985	,	-17672	,	-14176	,	-7.533807	,	0
13,29	,	42018	,	-17665	,	-14181	,	-7.3531446	,	0
13,29	,	42034	,	-17658	,	-14179	,	-6.9407225	,	0
13,29	,	42050	,	-17656	,	-14177	,	-6.001338	,	0
13,29	,	42082	,	-17658	,	-14178	,	-4.4463024	,	0
13,29	,	42098	,	-17649	,	-14180	,	-2.4227152	,	1
13,29	,	42129	,	-17646	,	-14169	,	-0.12749243	,	3
13,29	,	42145	,	-17643	,	-14178	,	2.2870831	,	5
13,29	,	42161	,	-17638	,	-14162	,	4.665335	,	7
13,29	,	42194	,	-17631	,	-14172	,	6.8744326	,	9
13,29	,	42210	,	-17633	,	-14166	,	8.827106	,	11
13,29	,	42226	,	-17630	,	-14165	,	10.416395	,	12
13,29	,	42258	,	-17634	,	-14167	,	11.492296	,	13
13,29	,	42274	,	-17636	,	-14169	,	11.897692	,	14
13,29	,	42305	,	-17639	,	-14173	,	11.521324	,	13
13,29	,	42322	,	-17640	,	-14173	,	10.361165	,	11
13,29	,	42338	,	-17627	,	-14170	,	8.611492	,	9
13,30	,	42370	,	-17631	,	-14178	,	6.6739035	,	7
13,30	,	42386	,	-17634	,	-14173	,	4.9153585	,	5
13,30	,	42402	,	-17641	,	-14179	,	3.4280658	,	3
13,30	,	42434	,	-17645	,	-14178	,	2.0766435	,	2
13,30	,	42450	,	-17637	,	-14174	,	0.72946286	,	1
13,30	,	42466	,	-17648	,	-14174	,	-0.591889	,	0
13,30	,	42497	,	-17650	,	-14180	,	-1.8365457	,	0
13,30	,	42513	,	-17657	,	-14183	,	-3.0519104	,	0
13,30	,	42545	,	-17660	,	-14177	,	-4.319676	,	0
13,30	,	42561	,	-17657	,	-14186	,	-5.6392817	,	0
13,30	,	42577	,	-17667	,	-14184	,	-6.8989787	,	0
13,30	,	42609	,	-17670	,	-14193	,	-8.014061	,	0
13,30	,	42625	,	-17676	,	-14181	,	-9.004648	,	0
13,30	,	42641	,	-17679	,	-14188	,	-9.912853	,	0
13,30	,	42674	,	-17686	,	-14190	,	-10.762631	,	0
13,30	,	42689	,	-17682	,	-14191	,	-11.538437	,	0
13,30	,	42721	,	-17683	,	-14195	,	-12.121437	,	0
13,30	,	42738	,	-17684	,	-14191	,	-12.335173	,	0
13,30	,	42754	,	-17685	,	-14186	,	-12.078829	,	0
13,30	,	42785	,	-17690	,	-14189	,	-11.385445	,	0
13,30	,	42801	,	-17692	,	-14198	,	-10.408894	,	0
13,30	,	42817	,	-17687	,	-14191	,	-9.313871	,	0
13,30	,	42849	,	-17695	,	-14194	,	-8.183666	,	1
13,30	,	42865	,	-17695	,	-14184	,	-7.1016693	,	2
13,30	,	42881	,	-17706	,	-14188	,	-6.2252603	,	3
13,30	,	42913	,	-17695	,	-14189	,	-5.690897	,	3
13,30	,	42929	,	-17703	,	-14196	,	-5.4688525	,	3
13,30	,	42961	,	-17697	,	-14188	,	-5.397363	,	3
13,30	,	42977	,	-17703	,	-14187	,	-5.328261	,	3
13,30	,	42993	,	-17690	,	-14194	,	-5.1321545	,	3
13,30	,	43025	,	-17692	,	-14189	,	-4.6404877	,	3
13,30	,	43041	,	-17689	,	-14178	,	-3.7319696	,	2
13,30	,	43057	,	-17683	,	-14177	,	-2.4159403	,	1
13,30	,	43089	,	-17687	,	-14186	,	-0.792016	,	1
13,30	,	43105	,	-17686	,	-14173	,	0.94266105	,	2
13,30	,	43137	,	-17676	,	-14180	,	2.5721936	,	3
13,30	,	43153	,	-17675	,	-14179	,	4.0332017	,	4
13,30	,	43169	,	-17659	,	-14186	,	5.4190545	,	5
13,30	,	43201	,	-17658	,	-14173	,	6.8917565	,	6
13,30	,	43217	,	-17655	,	-14174	,	8.531663	,	7
13,30	,	43233	,	-17655	,	-14177	,	10.212756	,	8
13,30	,	43265	,	-17646	,	-14172	,	11.718917	,	9
13,30	,	43281	,	-17650	,	-14170	,	12.899028	,	9
13,30	,	43297	,	-17654	,	-14163	,	13.60533	,	9
13,30	,	43329	,	-17648	,	-14177	,	13.665466	,	8
13,31	,	43345	,	-17644	,	-14154	,	13.064978	,	7
13,31	,	43377	,	-17651	,	-14163	,	11.971855	,	6
13,31	,	43393	,	-17650	,	-14164	,	10.533281	,	5
13,31	,	43409	,	-17653	,	-14164	,	8.820697	,	4
13,31	,	43441	,	-17660	,	-14165	,	6.886213	,	3
13,31	,	43457	,	-17654	,	-14174	,	4.7917314	,	2
13,31	,	43473	,	-17647	,	-14170	,	2.7224636	,	1
13,31	,	43505	,	-17649	,	-14162	,	0.9914317	,	0
13,31	,	43521	,	-17653	,	-14164	,	-0.20214677	,	0
13,31	,	43553	,	-17656	,	-14164	,	-0.9116714	,	0
13,31	,	43569	,	-17665	,	-14175	,	-1.3658137	,	0
13,31	,	43585	,	-17665	,	-14156	,	-1.843423	,	0
13,31	,	43617	,	-17663	,	-14165	,	-2.4955063	,	0
13,31	,	43633	,	-17659	,	-14166	,	-3.227061	,	0
13,31	,	43649	,	-17667	,	-14162	,	-3.8419776	,	0
13,31	,	43681	,	-17661	,	-14165	,	-4.2408695	,	0
13,31	,	43697	,	-17673	,	-14153	,	-4.4393635	,	0
13,31	,	43729	,	-17660	,	-14165	,	-4.492147	,	0
13,31	,	43745	,	-17674	,	-14162	,	-4.4254804	,	0
13,31	,	43761	,	-17678	,	-14161	,	-4.32382	,	0
13,31	,	43793	,	-17668	,	-14159	,	-4.3264856	,	0
13,31	,	43809	,	-17678	,	-14170	,	-4.42822	,	0
13,31	,	43825	,	-17684	,	-14158	,	-4.581142	,	0
13,31	,	43857	,	-17682	,	-14167	,	-4.8472958	,	0
13,31	,	43873	,	-17688	,	-14171	,	-5.263817	,	0
13,31	,	43889	,	-17693	,	-14166	,	-5.814872	,	0
13,31	,	43921	,	-17691	,	-14167	,	-6.4808636	,	0
13,31	,	43937	,	-17691	,	-14170	,	-7.158995	,	0
13,31	,	43969	,	-17692	,	-14171	,	-7.6683702	,	0
13,31	,	43985	,	-17687	,	-14168	,	-7.8491287	,	0
13,31	,	44001	,	-17677	,	-14163	,	-7.5401564	,	0
13,31	,	44033	,	-17672	,	-14164	,	-6.546692	,	0
13,31	,	44049	,	-17671	,	-14170	,	-4.7764273	,	0
13,31	,	44065	,	-17675	,	-14160	,	-2.3980846	,	1
13,31	,	44097	,	-17656	,	-14168	,	0.2718706	,	3
13,31	,	44113	,	-17655	,	-14165	,	3.0501306	,	5
13,31	,	44145	,	-17652	,	-14164	,	5.858962	,	7
13,31	,	44161	,	-17655	,	-14168	,	8.497618	,	9
13,31	,	44177	,	-17661	,	-14165	,	10.611385	,	11
13,31	,	44209	,	-17654	,	-14162	,	11.862713	,	13
13,31	,	44225	,	-17658	,	-14170	,	12.134188	,	14
13,31	,	44241	,	-17656	,	-14174	,	11.527377	,	14
13,31	,	44273	,	-17665	,	-14177	,	10.204372	,	13
13,31	,	44289	,	-17656	,	-14175	,	8.339512	,	11
13,31	,	44304	,	-17647	,	-14165	,	6.2452445	,	9
13,31	,	44337	,	-17661	,	-14171	,	4.3262143	,	7
13,32	,	44353	,	-17672	,	-14173	,	2.6988602	,	5
13,32	,	44385	,	-17666	,	-14174	,	1.1463902	,	3
13,32	,	44401	,	-17667	,	-14177	,	-0.44971895	,	1
13,32	,	44417	,	-17674	,	-14177	,	-1.9911561	,	0
13,32	,	44449	,	-17683	,	-14177	,	-3.430659	,	0
13,32	,	44465	,	-17680	,	-14178	,	-4.833462	,	0
13,32	,	44480	,	-17672	,	-14176	,	-6.1451216	,	0
13,32	,	44513	,	-17686	,	-14178	,	-7.1596212	,	0
13,32	,	44529	,	-17682	,	-14190	,	-7.7806826	,	0
13,32	,	44561	,	-17685	,	-14173	,	-8.057913	,	0
13,32	,	44577	,	-17688	,	-14178	,	-8.052169	,	0
13,32	,	44593	,	-17691	,	-14170	,	-7.852461	,	0
13,32	,	44625	,	-17692	,	-14173	,	-7.5716133	,	0
13,32	,	44641	,	-17695	,	-14176	,	-7.2830563	,	0
13,32	,	44657	,	-17701	,	-14171	,	-7.0432296	,	0
13,32	,	44689	,	-17700	,	-14178	,	-6.9167967	,	0
13,32	,	44705	,	-17703	,	-14173	,	-6.9137096	,	0
13,32	,	44720	,	-17701	,	-14174	,	-6.959321	,	0
13,32	,	44752	,	-17707	,	-14178	,	-6.9652634	,	0
13,32	,	44768	,	-17710	,	-14176	,	-6.916177	,	0
13,32	,	44801	,	-17708	,	-14162	,	-6.8497505	,	0
13,32	,	44817	,	-17715	,	-14164	,	-6.7800837	,	0
13,32	,	44833	,	-17714	,	-14167	,	-6.7121086	,	0
13,32	,	44865	,	-17720	,	-14166	,	-6.6695137	,	0
13,32	,	44881	,	-17717	,	-14165	,	-6.6699386	,	0
13,32	,	44897	,	-17723	,	-14166	,	-6.699575	,	0
13,32	,	44928	,	-17728	,	-14171	,	-6.755366	,	0
13,32	,	44944	,	-17726	,	-14173	,	-6.8715467	,	0
13,32	,	44976	,	-17712	,	-14168	,	-6.9579535	,	0
13,32	,	44992	,	-17709	,	-14169	,	-6.7028446	,	0
13,32	,	45008	,	-17696	,	-14162	,	-5.754466	,	0
13,32	,	45040	,	-17695	,	-14156	,	-3.9228575	,	0
13,32	,	45056	,	-17685	,	-14160	,	-1.247519	,	1
13,32	,	45073	,	-17679	,	-14156	,	2.061648	,	3
13,32	,	45104	,	-17673	,	-14149	,	5.728182	,	6
13,32	,	45121	,	-17662	,	-14158	,	9.47169	,	9
13,32	,	45137	,	-17668	,	-14151	,	13.009038	,	12
13,32	,	45169	,	-17657	,	-14143	,	16.020067	,	15
13,32	,	45185	,	-17661	,	-14145	,	18.225473	,	18
13,32	,	45216	,	-17654	,	-14149	,	19.479221	,	20
13,32	,	45232	,	-17654	,	-14150	,	19.770168	,	21
13,32	,	45249	,	-17656	,	-14149	,	19.183537	,	20
13,32	,	45281	,	-17665	,	-14158	,	17.786972	,	18
13,32	,	45296	,	-17658	,	-14154	,	15.625375	,	15
13,32	,	45313	,	-17652	,	-14149	,	12.915968	,	12
13,33	,	45345	,	-17658	,	-14152	,	10.066448	,	9
13,33	,	45361	,	-17657	,	-14152	,	7.4062724	,	6
13,33	,	45392	,	-17663	,	-14155	,	5.0470905	,	3
13,33	,	45408	,	-17661	,	-14148	,	2.985899	,	1
13,33	,	45424	,	-17663	,	-14143	,	1.2220187	,	0
13,33	,	45457	,	-17651	,	-14158	,	-0.16921616	,	0
13,33	,	45472	,	-17664	,	-14157	,	-1.0766104	,	0
13,33	,	45489	,	-17657	,	-14145	,	-1.5148985	,	0
13,33	,	45520	,	-17659	,	-14148	,	-1.6109583	,	0
13,33	,	45536	,	-17670	,	-14156	,	-1.5212259	,	0
13,33	,	45552	,	-17675	,	-14161	,	-1.50815	,	0
13,33	,	45584	,	-17677	,	-14160	,	-1.8529187	,	0
13,33	,	45600	,	-17669	,	-14159	,	-2.6001282	,	0
13,33	,	45632	,	-17677	,	-14153	,	-3.5365484	,	0
13,33	,	45649	,	-17688	,	-14162	,	-4.4833446	,	0
13,33	,	45664	,	-17685	,	-14158	,	-5.46132	,	0
13,33	,	45696	,	-17683	,	-14164	,	-6.461334	,	0
13,33	,	45712	,	-17681	,	-14173	,	-7.280036	,	0
13,33	,	45728	,	-17689	,	-14155	,	-7.7093563	,	0
13,33	,	45760	,	-17682	,	-14159	,	-7.7100105	,	0
13,33	,	45776	,	-17694	,	-14161	,	-7.3697214	,	0
13,33	,	45808	,	-17706	,	-14169	,	-6.9236383	,	0
13,33	,	45824	,	-17695	,	-14170	,	-6.6790977	,	0
13,33	,	45840	,	-17700	,	-14164	,	-6.7058992	,	0
13,33	,	45872	,	-17702	,	-14160	,	-6.848817	,	0
13,33	,	45888	,	-17695	,	-14170	,	-6.9460025	,	0
13,33	,	45904	,	-17710	,	-14171	,	-6.8935103	,	0
13,33	,	45936	,	-17709	,	-14167	,	-6.7429285	,	0
13,33	,	45952	,	-17709	,	-14175	,	-6.632015	,	0
13,33	,	45968	,	-17712	,	-14168	,	-6.5895486	,	0
13,33	,	46000	,	-17685	,	-14172	,	-6.440784	,	0
13,33	,	46016	,	-17678	,	-14170	,	-5.728198	,	0
13,33	,	46048	,	-17680	,	-14164	,	-4.0043116	,	0
13,33	,	46064	,	-17677	,	-14162	,	-1.3016138	,	1
13,33	,	46080	,	-17672	,	-14165	,	1.9473963	,	3
13,33	,	46112	,	-17673	,	-14164	,	5.251071	,	6
13,33	,	46128	,	-17661	,	-14160	,	8.229781	,	9
13,33	,	46144	,	-17657	,	-14157	,	10.7178135	,	11
13,33	,	46176	,	-17659	,	-14153	,	12.688242	,	13
13,33	,	46192	,	-17652	,	-14161	,	14.085351	,	14
13,33	,	46224	,	-17653	,	-14143	,	14.85677	,	15
13,33	,	46240	,	-17650	,	-14151	,	15.018309	,	15
13,33	,	46256	,	-17644	,	-14147	,	14.657534	,	14
13,33	,	46288	,	-17645	,	-14152	,	13.932484	,	12
13,33	,	46304	,	-17644	,	-14151	,	12.981763	,	9
13,33	,	46320	,	-17640	,	-14146	,	11.885274	,	6
13,34	,	46352	,	-17635	,	-14152	,	10.748266	,	4
13,34	,	46368	,	-17643	,	-14145	,	9.674936	,	2
13,34	,	46384	,	-17644	,	-14150	,	8.633793	,	1
13,34	,	46416	,	-17630	,	-14145	,	7.563353	,	0
13,34	,	46432	,	-17636	,	-14152	,	6.570679	,	0
13,34	,	46464	,	-17633	,	-14130	,	5.7916164	,	0
13,34	,	46480	,	-17632	,	-14137	,	5.228893	,	0
13,34	,	46496	,	-17637	,	-14139	,	4.808486	,	0
13,34	,	46528	,	-17624	,	-14133	,	4.46746	,	0
13,34	,	46544	,	-17625	,	-14132	,	4.2510977	,	0
13,34	,	46560	,	-17622	,	-14131	,	4.2615623	,	0
13,34	,	46592	,	-17627	,	-14133	,	4.481724	,	0
13,34	,	46608	,	-17625	,	-14135	,	4.747707	,	0
13,34	,	46640	,	-17633	,	-14132	,	4.845005	,	0
13,34	,	46656	,	-17630	,	-14135	,	4.5996647	,	0
13,34	,	46672	,	-17629	,	-14146	,	3.9727895	,	0
13,34	,	46704	,	-17630	,	-14122	,	3.0861385	,	0
13,34	,	46720	,	-17630	,	-14131	,	2.1155355	,	0
13,34	,	46736	,	-17632	,	-14128	,	1.1905298	,	0
13,34	,	46768	,	-17633	,	-14137	,	0.37012327	,	0
13,34	,	46784	,	-17628	,	-14129	,	-0.310327	,	0
13,34	,	46800	,	-17631	,	-14133	,	-0.78612614	,	0
13,34	,	46832	,	-17628	,	-14135	,	-1.0075754	,	0
13,34	,	46848	,	-17634	,	-14137	,	-1.0079197	,	0
13,34	,	46880	,	-17633	,	-14131	,	-0.90455735	,	0
13,34	,	46896	,	-17622	,	-14131	,	-0.76988184	,	0
13,34	,	46912	,	-17634	,	-14139	,	-0.55865526	,	0
13,34	,	46944	,	-17636	,	-14119	,	-0.30481395	,	0
13,34	,	46960	,	-17621	,	-14135	,	-0.112175405	,	0
13,34	,	46976	,	-17622	,	-14128	,	0.11195108	,	0
13,34	,	47008	,	-17625	,	-14135	,	0.5300816	,	0
13,34	,	47024	,	-17608	,	-14127	,	1.1828741	,	0
13,34	,	47056	,	-17619	,	-14130	,	2.0882761	,	0
13,34	,	47072	,	-17600	,	-14125	,	3.2419672	,	0
13,34	,	47088	,	-17598	,	-14126	,	4.644342	,	1
13,34	,	47120	,	-17601	,	-14129	,	6.2919817	,	2
13,34	,	47136	,	-17593	,	-14133	,	8.020079	,	3
13,34	,	47152	,	-17587	,	-14137	,	9.618788	,	4
13,34	,	47184	,	-17581	,	-14121	,	11.018904	,	5
13,34	,	47200	,	-17592	,	-14127	,	12.160699	,	6
13,34	,	47231	,	-17588	,	-14123	,	12.833664	,	7
13,34	,	47248	,	-17589	,	-14129	,	12.821728	,	7
13,34	,	47264	,	-17591	,	-14128	,	12.089776	,	7
13,34	,	47296	,	-17584	,	-14116	,	10.769725	,	6
13,34	,	47312	,	-17578	,	-14119	,	9.14629	,	5
13,34	,	47328	,	-17585	,	-14125	,	7.5545635	,	4
13,35	,	47360	,	-17576	,	-14122	,	6.1924415	,	3
13,35	,	47375	,	-17577	,	-14128	,	5.1486845	,	2
13,35	,	47392	,	-17586	,	-14130	,	4.4226527	,	1
13,35	,	47424	,	-17587	,	-14119	,	3.832182	,	0
13,35	,	47440	,	-17592	,	-14124	,	3.1228743	,	0
13,35	,	47471	,	-17592	,	-14126	,	2.1474628	,	0
13,35	,	47488	,	-17602	,	-14124	,	0.86930025	,	0
13,35	,	47504	,	-17609	,	-14127	,	-0.7402493	,	0
13,35	,	47536	,	-17615	,	-14132	,	-2.721417	,	0
13,35	,	47552	,	-17603	,	-14131	,	-4.9552927	,	0
13,35	,	47568	,	-17609	,	-14127	,	-7.065365	,	0
13,35	,	47600	,	-17604	,	-14126	,	-8.63614	,	0
13,35	,	47616	,	-17604	,	-14134	,	-9.428933	,	0
13,35	,	47647	,	-17614	,	-14130	,	-9.428236	,	0
13,35	,	47663	,	-17609	,	-14119	,	-8.831299	,	0
13,35	,	47679	,	-17616	,	-14128	,	-7.9085217	,	0
13,35	,	47712	,	-17616	,	-14117	,	-6.8948135	,	0
13,35	,	47728	,	-17614	,	-14129	,	-5.959489	,	1
13,35	,	47744	,	-17620	,	-14119	,	-5.1750565	,	1
13,35	,	47776	,	-17617	,	-14123	,	-4.5682893	,	1
13,35	,	47792	,	-17621	,	-14119	,	-4.142767	,	1
13,35	,	47807	,	-17624	,	-14122	,	-3.883875	,	1
13,35	,	47840	,	-17619	,	-14130	,	-3.76898	,	1
13,35	,	47856	,	-17625	,	-14126	,	-3.732801	,	1
13,35	,	47887	,	-17622	,	-14119	,	-3.7032566	,	1
13,35	,	47903	,	-17611	,	-14121	,	-3.5792186	,	1
13,35	,	47919	,	-17605	,	-14122	,	-3.1301703	,	0
13,35	,	47951	,	-17608	,	-14123	,	-2.137992	,	0
13,35	,	47967	,	-17592	,	-14117	,	-0.57331204	,	0
13,35	,	47983	,	-17595	,	-14119	,	1.4863006	,	1
13,35	,	48016	,	-17592	,	-14117	,	3.8701682	,	3
13,35	,	48032	,	-17577	,	-14114	,	6.3311443	,	5
13,35	,	48063	,	-17583	,	-14110	,	8.697779	,	7
13,35	,	48079	,	-17581	,	-14114	,	10.792949	,	9
13,35	,	48095	,	-17585	,	-14119	,	12.33161	,	11
13,35	,	48127	,	-17574	,	-14111	,	13.107588	,	12
13,35	,	48143	,	-17579	,	-14112	,	13.141481	,	12
13,35	,	48159	,	-17579	,	-14117	,	12.556072	,	12
13,35	,	48191	,	-17575	,	-14113	,	11.462102	,	11
13,35	,	48207	,	-17575	,	-14111	,	10.025244	,	9
13,35	,	48223	,	-17569	,	-14119	,	8.482473	,	7
13,35	,	48255	,	-17576	,	-14114	,	7.041378	,	5
13,35	,	48271	,	-17582	,	-14131	,	5.7448106	,	3
13,35	,	48303	,	-17583	,	-14120	,	4.4598637	,	1
13,35	,	48319	,	-17590	,	-14117	,	3.037131	,	0
13,35	,	48335	,	-17577	,	-14128	,	1.4715393	,	0
13,36	,	48367	,	-17581	,	-14115	,	-0.030252457	,	0
13,36	,	48383	,	-17583	,	-14122	,	-1.2164942	,	0
13,36	,	48399	,	-17580	,	-14123	,	-1.9947761	,	0
13,36	,	48431	,	-17587	,	-14122	,	-2.4042628	,	0
13,36	,	48448	,	-17596	,	-14124	,	-2.605091	,	0
13,36	,	48479	,	-17602	,	-14128	,	-2.897622	,	0
13,36	,	48495	,	-17599	,	-14120	,	-3.5282738	,	0
13,36	,	48511	,	-17600	,	-14119	,	-4.475349	,	0
13,36	,	48543	,	-17598	,	-14122	,	-5.497379	,	0
13,36	,	48559	,	-17600	,	-14126	,	-6.32384	,	0
13,36	,	48575	,	-17598	,	-14130	,	-6.769782	,	0
13,36	,	48607	,	-17612	,	-14122	,	-6.8196163	,	0
13,36	,	48623	,	-17602	,	-14126	,	-6.6304274	,	0
13,36	,	48639	,	-17607	,	-14130	,	-6.335639	,	0
13,36	,	48671	,	-17612	,	-14132	,	-5.9808645	,	0
13,36	,	48687	,	-17620	,	-14130	,	-5.682955	,	0
13,36	,	48719	,	-17631	,	-14129	,	-5.6697054	,	0
13,36	,	48735	,	-17616	,	-14135	,	-6.0870004	,	0
13,36	,	48751	,	-17626	,	-14137	,	-6.791016	,	0
13,36	,	48783	,	-17633	,	-14135	,	-7.5314803	,	0
13,36	,	48799	,	-17628	,	-14143	,	-8.203183	,	0
13,36	,	48815	,	-17625	,	-14141	,	-8.696223	,	0
13,36	,	48847	,	-17621	,	-14126	,	-8.791492	,	0
13,36	,	48863	,	-17615	,	-14125	,	-8.287141	,	0
13,36	,	48895	,	-17612	,	-14132	,	-7.077458	,	0
13,36	,	48911	,	-17604	,	-14126	,	-5.161808	,	1
13,36	,	48927	,	-17607	,	-14134	,	-2.663705	,	2
13,36	,	48959	,	-17597	,	-14138	,	0.16892266	,	4
13,36	,	48975	,	-17597	,	-14130	,	3.0568497	,	6
13,36	,	48991	,	-17593	,	-14130	,	5.7637086	,	8
13,36	,	49023	,	-17581	,	-14127	,	8.137675	,	10
13,36	,	49039	,	-17582	,	-14125	,	10.153327	,	12
13,36	,	49055	,	-17589	,	-14134	,	11.757832	,	14
13,36	,	49087	,	-17584	,	-14121	,	12.754065	,	15
13,36	,	49103	,	-17583	,	-14125	,	12.997267	,	14
13,36	,	49135	,	-17580	,	-14123	,	12.545801	,	13
13,36	,	49151	,	-17584	,	-14123	,	11.559734	,	11
13,36	,	49167	,	-17590	,	-14122	,	10.147533	,	9
13,36	,	49199	,	-17584	,	-14131	,	8.371546	,	7
13,36	,	49215	,	-17586	,	-14125	,	6.3842106	,	5
13,36	,	49231	,	-17586	,	-14130	,	4.418018	,	3
13,36	,	49263	,	-17585	,	-14130	,	2.6577494	,	1
13,36	,	49279	,	-17587	,	-14129	,	1.2053211	,	0
13,36	,	49311	,	-17597	,	-14146	,	0.045879364	,	0
13,36	,	49327	,	-17586	,	-14129	,	-0.9263685	,	0
13,37	,	49343	,	-17598	,	-14134	,	-1.7629523	,	0
13,37	,	49375	,	-17593	,	-14137	,	-2.4616601	,	0
13,37	,	49391	,	-17599	,	-14138	,	-3.0385504	,	0
13,37	,	49407	,	-17605	,	-14139	,	-3.5493727	,	0
13,37	,	49439	,	-17601	,	-14130	,	-4.078929	,	0
13,37	,	49455	,	-17601	,	-14130	,	-4.6102324	,	0
13,37	,	49471	,	-17616	,	-14137	,	-5.0725245	,	0
13,37	,	49503	,	-17611	,	-14129	,	-5.527037	,	0
13,37	,	49519	,	-17606	,	-14137	,	-6.0101757	,	0
13,37	,	49551	,	-17620	,	-14145	,	-6.416271	,	0
13,37	,	49567	,	-17611	,	-14131	,	-6.68399	,	0
13,37	,	49583	,	-17625	,	-14142	,	-6.8377724	,	0
13,37	,	49615	,	-17626	,	-14143	,	-6.96605	,	0
13,37	,	49631	,	-17635	,	-14148	,	-7.228858	,	0
13,37	,	49647	,	-17641	,	-14146	,	-7.767511	,	0
13,37	,	49678	,	-17643	,	-14141	,	-8.635012	,	0
13,37	,	49695	,	-17637	,	-14146	,	-9.711359	,	0
13,37	,	49727	,	-17641	,	-14147	,	-10.690319	,	0
13,37	,	49743	,	-17635	,	-14142	,	-11.246429	,	0
13,37	,	49758	,	-17652	,	-14139	,	-11.244443	,	0
13,37	,	49791	,	-17652	,	-14158	,	-10.850269	,	0
13,37	,	49807	,	-17656	,	-14141	,	-10.365253	,	0
13,37	,	49839	,	-17662	,	-14151	,	-9.989814	,	0
13,37	,	49855	,	-17666	,	-14150	,	-9.83123	,	0
13,37	,	49871	,	-17653	,	-14155	,	-9.8679905	,	0
13,37	,	49902	,	-17659	,	-14146	,	-9.853521	,	0
13,37	,	49919	,	-17652	,	-14148	,	-9.491236	,	0
13,37	,	49935	,	-17650	,	-14148	,	-8.617983	,	0
13,37	,	49967	,	-17641	,	-14143	,	-7.163421	,	0
13,37	,	49983	,	-17637	,	-14147	,	-5.106635	,	1
13,37	,	49999	,	-17628	,	-14142	,	-2.4956079	,	3
13,37	,	50031	,	-17629	,	-14149	,	0.52439666	,	5
13,37	,	50047	,	-17621	,	-14131	,	3.7065928	,	8
13,37	,	50079	,	-17610	,	-14134	,	6.8237615	,	11
13,37	,	50095	,	-17601	,	-14132	,	9.800859	,	14
13,37	,	50111	,	-17604	,	-14132	,	12.605257	,	16
13,37	,	50143	,	-17616	,	-14131	,	14.983826	,	18
13,37	,	50159	,	-17607	,	-14125	,	16.485373	,	20
13,37	,	50175	,	-17608	,	-14133	,	16.837088	,	20
13,37	,	50207	,	-17602	,	-14135	,	16.138044	,	18
13,37	,	50223	,	-17601	,	-14138	,	14.712751	,	16
13,37	,	50239	,	-17609	,	-14141	,	12.883508	,	13
13,37	,	50270	,	-17601	,	-14118	,	10.84385	,	10
13,37	,	50286	,	-17606	,	-14134	,	8.737635	,	7
13,37	,	50319	,	-17608	,	-14126	,	6.7000585	,	5
13,37	,	50335	,	-17605	,	-14131	,	4.8073945	,	3
13,38	,	50351	,	-17609	,	-14132	,	3.1122699	,	1
13,38	,	50383	,	-17610	,	-14131	,	1.6442482	,	0
13,38	,	50399	,	-17613	,	-14135	,	0.3796351	,	0
13,38	,	50415	,	-17615	,	-14136	,	-0.7290646	,	0
13,38	,	50446	,	-17618	,	-14136	,	-1.7234578	,	0
13,38	,	50462	,	-17619	,	-14136	,	-2.6249404	,	0
13,38	,	50494	,	-17621	,	-14141	,	-3.430818	,	0
13,38	,	50510	,	-17621	,	-14130	,	-4.1216335	,	0
13,38	,	50527	,	-17626	,	-14129	,	-4.678057	,	0
13,38	,	50559	,	-17629	,	-14130	,	-5.118011	,	0
13,38	,	50575	,	-17620	,	-14130	,	-5.453758	,	0
13,38	,	50591	,	-17630	,	-14134	,	-5.6259594	,	0
13,38	,	50622	,	-17639	,	-14132	,	-5.6538553	,	0
13,38	,	50638	,	-17639	,	-14134	,	-5.732999	,	0
13,38	,	50654	,	-17637	,	-14128	,	-6.0048256	,	0
13,38	,	50686	,	-17647	,	-14124	,	-6.433819	,	0
13,38	,	50702	,	-17646	,	-14132	,	-6.958422	,	0
13,38	,	50734	,	-17654	,	-14145	,	-7.5555463	,	0
13,38	,	50750	,	-17649	,	-14126	,	-8.1738205	,	0
13,38	,	50766	,	-17663	,	-14131	,	-8.74308	,	0
13,38	,	50798	,	-17660	,	-14126	,	-9.260469	,	0
13,38	,	50814	,	-17666	,	-14136	,	-9.757036	,	0
13,38	,	50831	,	-17661	,	-14136	,	-10.179901	,	0
13,38	,	50862	,	-17672	,	-14129	,	-10.425314	,	0
13,38	,	50878	,	-17678	,	-14128	,	-10.50564	,	0
13,38	,	50910	,	-17674	,	-14131	,	-10.538565	,	0
13,38	,	50926	,	-17680	,	-14130	,	-10.553592	,	0
13,38	,	50942	,	-17676	,	-14134	,	-10.471692	,	0
13,38	,	50974	,	-17682	,	-14143	,	-10.214334	,	0
13,38	,	50990	,	-17682	,	-14129	,	-9.762339	,	0
13,38	,	51007	,	-17687	,	-14130	,	-9.173177	,	0
13,38	,	51038	,	-17672	,	-14131	,	-8.477564	,	0
13,38	,	51054	,	-17661	,	-14128	,	-7.492001	,	0
13,38	,	51070	,	-17663	,	-14120	,	-5.906056	,	0
13,38	,	51102	,	-17664	,	-14124	,	-3.6661081	,	1
13,38	,	51118	,	-17666	,	-14125	,	-1.0928166	,	3
13,38	,	51150	,	-17663	,	-14123	,	1.3769	,	5
13,38	,	51166	,	-17657	,	-14126	,	3.4537473	,	7
13,38	,	51182	,	-17653	,	-14120	,	5.084623	,	9
13,38	,	51215	,	-17652	,	-14127	,	6.34885	,	10
13,38	,	51230	,	-17656	,	-14113	,	7.2777042	,	11
13,38	,	51246	,	-17643	,	-14118	,	7.849471	,	11
13,38	,	51278	,	-17646	,	-14125	,	8.134401	,	11
13,38	,	51294	,	-17649	,	-14119	,	8.220154	,	10
13,38	,	51326	,	-17647	,	-14120	,	8.066513	,	8
13,38	,	51342	,	-17644	,	-14123	,	7.6319227	,	6
13,39	,	51358	,	-17650	,	-14112	,	6.963663	,	4
13,39	,	51390	,	-17646	,	-14114	,	6.108677	,	2
13,39	,	51406	,	-17646	,	-14113	,	5.116985	,	1
13,39	,	51422	,	-17643	,	-14115	,	4.09803	,	0
13,39	,	51454	,	-17650	,	-14122	,	3.156098	,	0
13,39	,	51470	,	-17644	,	-14114	,	2.3192391	,	0
13,39	,	51486	,	-17645	,	-14115	,	1.6039568	,	0
13,39	,	51518	,	-17651	,	-14113	,	1.0275521	,	0
13,39	,	51534	,	-17655	,	-14123	,	0.50460494	,	0
13,39	,	51566	,	-17651	,	-14118	,	-0.08984798	,	0
13,39	,	51582	,	-17664	,	-14120	,	-0.80805236	,	0
13,39	,	51598	,	-17656	,	-14124	,	-1.6626829	,	0
13,39	,	51630	,	-17660	,	-14124	,	-2.5930154	,	0
13,39	,	51646	,	-17667	,	-14126	,	-3.4888182	,	0
13,39	,	51662	,	-17663	,	-14120	,	-4.3081512	,	0
13,39	,	51694	,	-17667	,	-14128	,	-5.019019	,	0
13,39	,	51710	,	-17662	,	-14122	,	-5.53697	,	0
13,39	,	51742	,	-17681	,	-14128	,	-5.847438	,	0
13,39	,	51758	,	-17676	,	-14129	,	-6.107192	,	0
13,39	,	51774	,	-17675	,	-14125	,	-6.4553146	,	0
13,39	,	51806	,	-17678	,	-14128	,	-6.823586	,	0
13,39	,	51822	,	-17679	,	-14142	,	-7.081034	,	0
13,39	,	51838	,	-17691	,	-14136	,	-7.219611	,	0
13,39	,	51870	,	-17677	,	-14136	,	-7.308404	,	0
13,39	,	51886	,	-17689	,	-14133	,	-7.3332624	,	0
13,39	,	51902	,	-17699	,	-14142	,	-7.293935	,	0
13,39	,	51934	,	-17688	,	-14137	,	-7.3023663	,	0
13,39	,	51950	,	-17689	,	-14141	,	-7.3309536	,	0
13,39	,	51982	,	-17691	,	-14144	,	-7.190751	,	0
13,39	,	51998	,	-17697	,	-14139	,	-6.81912	,	0
13,39	,	52014	,	-17699	,	-14136	,	-6.3426514	,	0
13,39	,	52046	,	-17697	,	-14136	,	-5.9052258	,	0
13,39	,	52062	,	-17697	,	-14140	,	-5.5315084	,	0
13,39	,	52078	,	-17698	,	-14134	,	-5.1594715	,	0
13,39	,	52110	,	-17693	,	-14144	,	-4.716402	,	0
13,39	,	52126	,	-17685	,	-14134	,	-4.087986	,	0
13,39	,	52158	,	-17682	,	-14133	,	-3.106368	,	0
13,39	,	52174	,	-17680	,	-14130	,	-1.6745906	,	0
13,39	,	52190	,	-17674	,	-14139	,	0.15092468	,	1
13,39	,	52222	,	-17678	,	-14138	,	2.1936343	,	2
13,39	,	52238	,	-17677	,	-14141	,	4.1778016	,	4
13,39	,	52254	,	-17668	,	-14134	,	5.8430495	,	5
13,39	,	52286	,	-17657	,	-14136	,	7.1617327	,	6
13,39	,	52302	,	-17656	,	-14129	,	8.323747	,	7
13,39	,	52318	,	-17658	,	-14124	,	9.449796	,	8
13,40	,	52350	,	-17662	,	-14122	,	10.407597	,	9
13,40	,	52366	,	-17655	,	-14130	,	10.952822	,	9
13,40	,	52397	,	-17655	,	-14132	,	10.981479	,	8
13,40	,	52414	,	-17650	,	-14114	,	10.579667	,	7
13,40	,	52430	,	-17660	,	-14122	,	9.870845	,	5
13,40	,	52462	,	-17644	,	-14120	,	8.943086	,	4
13,40	,	52478	,	-17644	,	-14122	,	7.9695435	,	3
13,40	,	52494	,	-17655	,	-14117	,	7.128149	,	2
13,40	,	52526	,	-17642	,	-14117	,	6.406487	,	1
13,40	,	52542	,	-17638	,	-14123	,	5.790191	,	0
13,40	,	52574	,	-17651	,	-14117	,	5.3427672	,	0
13,40	,	52590	,	-17650	,	-14117	,	4.957126	,	0
13,40	,	52606	,	-17634	,	-14110	,	4.4966393	,	0
13,40	,	52638	,	-17634	,	-14132	,	4.1040087	,	0
13,40	,	52653	,	-17643	,	-14108	,	3.9676545	,	0
13,40	,	52669	,	-17633	,	-14116	,	4.0308146	,	0
13,40	,	52702	,	-17637	,	-14114	,	4.1566544	,	0
13,40	,	52718	,	-17642	,	-14120	,	4.235917	,	0
13,40	,	52750	,	-17646	,	-14112	,	4.099119	,	0
13,40	,	52766	,	-17640	,	-14116	,	3.6109247	,	0
13,40	,	52782	,	-17640	,	-14114	,	2.8278277	,	0
13,40	,	52813	,	-17638	,	-14119	,	1.9496845	,	0
13,40	,	52829	,	-17637	,	-14113	,	1.1684846	,	0
13,40	,	52845	,	-17642	,	-14114	,	0.58145297	,	0
13,40	,	52877	,	-17641	,	-14121	,	0.17383838	,	0
13,40	,	52894	,	-17642	,	-14105	,	-0.12100893	,	0
13,40	,	52909	,	-17632	,	-14107	,	-0.30511746	,	0
13,40	,	52942	,	-17644	,	-14111	,	-0.32129622	,	0
13,40	,	52958	,	-17640	,	-14115	,	-0.20560876	,	0
13,40	,	52990	,	-17644	,	-14112	,	-0.09350203	,	0
13,40	,	53005	,	-17636	,	-14117	,	-0.056920707	,	0
13,40	,	53021	,	-17634	,	-14110	,	-0.021836892	,	0
13,40	,	53053	,	-17648	,	-14112	,	0.08285333	,	0
13,40	,	53069	,	-17647	,	-14116	,	0.12182662	,	0
13,40	,	53086	,	-17639	,	-14113	,	-0.07202776	,	0
13,40	,	53117	,	-17651	,	-14118	,	-0.4713457	,	0
13,40	,	53134	,	-17637	,	-14103	,	-0.9580139	,	0
13,40	,	53166	,	-17611	,	-14102	,	-1.2268862	,	0
13,40	,	53182	,	-17623	,	-14105	,	-0.7552919	,	0
13,40	,	53198	,	-17625	,	-14101	,	0.63158274	,	0
13,40	,	53229	,	-17620	,	-14106	,	2.546268	,	1
13,40	,	53245	,	-17607	,	-14101	,	4.567542	,	2
13,40	,	53261	,	-17611	,	-14111	,	6.535131	,	4
13,40	,	53293	,	-17604	,	-14100	,	8.361585	,	5
13,40	,	53309	,	-17605	,	-14102	,	9.914477	,	6
13,40	,	53326	,	-17600	,	-14101	,	11.074181	,	7
13,41	,	53358	,	-17596	,	-14113	,	11.792556	,	8
13,41	,	53374	,	-17602	,	-14090	,	12.074987	,	8
13,41	,	53405	,	-17603	,	-14097	,	11.877422	,	8
13,41	,	53421	,	-17594	,	-14098	,	11.163934	,	7
13,41	,	53437	,	-17601	,	-14103	,	10.051479	,	6
13,41	,	53469	,	-17590	,	-14106	,	8.747396	,	4
13,41	,	53485	,	-17590	,	-14105	,	7.4759684	,	3
13,41	,	53501	,	-17582	,	-14097	,	6.4703574	,	2
13,41	,	53534	,	-17596	,	-14097	,	5.839366	,	1
13,41	,	53549	,	-17598	,	-14095	,	5.413917	,	0
13,41	,	53581	,	-17591	,	-14095	,	4.90376	,	0
13,41	,	53597	,	-17591	,	-14101	,	4.221321	,	0
13,41	,	53613	,	-17595	,	-14095	,	3.4586678	,	0
13,41	,	53645	,	-17599	,	-14102	,	2.6548502	,	0
13,41	,	53661	,	-17607	,	-14103	,	1.732419	,	0
13,41	,	53677	,	-17603	,	-14092	,	0.5972308	,	0
13,41	,	53710	,	-17605	,	-14100	,	-0.71822536	,	0
13,41	,	53726	,	-17606	,	-14102	,	-2.0544631	,	0
13,41	,	53742	,	-17602	,	-14096	,	-3.2294734	,	0
13,41	,	53773	,	-17612	,	-14098	,	-4.118924	,	0
13,41	,	53789	,	-17607	,	-14097	,	-4.71055	,	0
13,41	,	53821	,	-17612	,	-14100	,	-5.0488915	,	0
13,41	,	53837	,	-17617	,	-14104	,	-5.2022915	,	0
13,41	,	53853	,	-17610	,	-14099	,	-5.263053	,	0
13,41	,	53885	,	-17622	,	-14102	,	-5.279787	,	0
13,41	,	53901	,	-17625	,	-14102	,	-5.325556	,	0
13,41	,	53917	,	-17627	,	-14109	,	-5.532102	,	0
13,41	,	53949	,	-17637	,	-14111	,	-5.9821005	,	0
13,41	,	53965	,	-17625	,	-14110	,	-6.647997	,	0
13,41	,	53997	,	-17635	,	-14105	,	-7.3575797	,	0
13,41	,	54013	,	-17636	,	-14108	,	-7.919266	,	0
13,41	,	54029	,	-17637	,	-14104	,	-8.267145	,	0
13,41	,	54061	,	-17635	,	-14109	,	-8.376759	,	0
13,41	,	54078	,	-17627	,	-14114	,	-8.155922	,	0
13,41	,	54094	,	-17618	,	-14099	,	-7.4194055	,	0
13,41	,	54125	,	-17611	,	-14106	,	-5.9532785	,	0
13,41	,	54141	,	-17609	,	-14100	,	-3.677546	,	1
13,41	,	54157	,	-17599	,	-14097	,	-0.7247155	,	3
13,41	,	54189	,	-17598	,	-14107	,	2.642239	,	5
13,41	,	54205	,	-17591	,	-14098	,	6.1118975	,	8
13,41	,	54237	,	-17587	,	-14100	,	9.383467	,	11
13,41	,	54253	,	-17578	,	-14089	,	12.251261	,	14
13,41	,	54269	,	-17568	,	-14090	,	14.659241	,	16
13,41	,	54301	,	-17572	,	-14084	,	16.62452	,	18
13,41	,	54317	,	-17574	,	-14095	,	18.041008	,	19
13,41	,	54333	,	-17570	,	-14087	,	18.684986	,	19
13,42	,	54365	,	-17552	,	-14088	,	18.528423	,	17
13,42	,	54381	,	-17555	,	-14087	,	17.874699	,	15
13,42	,	54413	,	-17554	,	-14089	,	17.042213	,	12
13,42	,	54429	,	-17558	,	-14086	,	16.086924	,	9
13,42	,	54445	,	-17553	,	-14074	,	14.9168625	,	6
13,42	,	54477	,	-17554	,	-14083	,	13.500429	,	4
13,42	,	54493	,	-17552	,	-14086	,	11.901743	,	2
13,42	,	54509	,	-17560	,	-14085	,	10.182323	,	1
13,42	,	54541	,	-17558	,	-14079	,	8.343677	,	0
13,42	,	54557	,	-17561	,	-14088	,	6.396758	,	0
13,42	,	54573	,	-17561	,	-14084	,	4.4208927	,	0
13,42	,	54605	,	-17563	,	-14087	,	2.5288286	,	0
13,42	,	54621	,	-17560	,	-14088	,	0.8349631	,	0
13,42	,	54653	,	-17567	,	-14086	,	-0.5738802	,	0
13,42	,	54669	,	-17563	,	-14087	,	-1.6737665	,	0
13,42	,	54685	,	-17564	,	-14082	,	-2.4577656	,	0
13,42	,	54717	,	-17558	,	-14092	,	-2.8830628	,	0
13,42	,	54733	,	-17563	,	-14089	,	-2.9160848	,	0
13,42	,	54749	,	-17565	,	-14088	,	-2.624942	,	0
13,42	,	54781	,	-17565	,	-14094	,	-2.182309	,	0
13,42	,	54797	,	-17574	,	-14087	,	-1.7898674	,	0
13,42	,	54829	,	-17578	,	-14090	,	-1.6624336	,	0
13,42	,	54845	,	-17581	,	-14092	,	-1.976794	,	0
13,42	,	54861	,	-17587	,	-14095	,	-2.7769804	,	0
13,42	,	54893	,	-17589	,	-14096	,	-3.9894602	,	0
13,42	,	54909	,	-17584	,	-14094	,	-5.4305277	,	0
13,42	,	54925	,	-17592	,	-14100	,	-6.823202	,	0
13,42	,	54957	,	-17586	,	-14102	,	-7.9264717	,	0
13,42	,	54973	,	-17595	,	-14097	,	-8.609098	,	0
13,42	,	54989	,	-17592	,	-14099	,	-8.849983	,	0
13,42	,	55021	,	-17572	,	-14092	,	-8.599094	,	0
13,42	,	55037	,	-17567	,	-14088	,	-7.5977526	,	0
13,42	,	55069	,	-17558	,	-14089	,	-5.568901	,	1
13,42	,	55085	,	-17556	,	-14085	,	-2.5253472	,	3
13,42	,	55101	,	-17538	,	-14090	,	1.2765064	,	6
13,42	,	55133	,	-17543	,	-14091	,	5.51137	,	9
13,42	,	55149	,	-17532	,	-14087	,	9.788057	,	13
13,42	,	55165	,	-17538	,	-14094	,	13.653225	,	17
13,42	,	55197	,	-17532	,	-14085	,	16.683252	,	20
13,42	,	55213	,	-17525	,	-14091	,	18.620111	,	23
13,42	,	55245	,	-17519	,	-14087	,	19.499352	,	24
13,42	,	55261	,	-17521	,	-14095	,	19.54229	,	23
13,42	,	55277	,	-17518	,	-14081	,	18.93024	,	21
13,42	,	55309	,	-17511	,	-14086	,	17.803802	,	18
13,42	,	55325	,	-17515	,	-14090	,	16.344715	,	15
13,42	,	55341	,	-17516	,	-14090	,	14.686672	,	11
13,43	,	55373	,	-17511	,	-14086	,	12.886541	,	7
13,43	,	55389	,	-17517	,	-14087	,	11.016766	,	4
13,43	,	55405	,	-17517	,	-14084	,	9.132874	,	1
13,43	,	55437	,	-17508	,	-14089	,	7.292496	,	0
13,43	,	55453	,	-17512	,	-14091	,	5.641419	,	0
13,43	,	55484	,	-17511	,	-14079	,	4.3004403	,	0
13,43	,	55500	,	-17514	,	-14102	,	3.2594078	,	0
13,43	,	55517	,	-17519	,	-14086	,	2.4176762	,	0
13,43	,	55549	,	-17516	,	-14096	,	1.6480854	,	0
13,43	,	55565	,	-17525	,	-14100	,	0.8545307	,	0
13,43	,	55580	,	-17520	,	-14099	,	-0.011519909	,	0
13,43	,	55612	,	-17528	,	-14104	,	-0.94602025	,	0
13,43	,	55628	,	-17527	,	-14099	,	-1.9184299	,	0
13,43	,	55661	,	-17532	,	-14099	,	-2.9038637	,	0
13,43	,	55677	,	-17527	,	-14104	,	-3.8413744	,	0
13,43	,	55693	,	-17535	,	-14103	,	-4.6326313	,	0
13,43	,	55725	,	-17528	,	-14102	,	-5.203873	,	0
13,43	,	55741	,	-17545	,	-14110	,	-5.567396	,	0
13,43	,	55757	,	-17547	,	-14092	,	-5.886177	,	0
13,43	,	55788	,	-17555	,	-14097	,	-6.399185	,	0
13,43	,	55804	,	-17552	,	-14109	,	-7.216536	,	0
13,43	,	55820	,	-17554	,	-14099	,	-8.227495	,	0
13,43	,	55853	,	-17553	,	-14101	,	-9.178201	,	0
13,43	,	55869	,	-17557	,	-14106	,	-9.829	,	0
13,43	,	55900	,	-17558	,	-14108	,	-10.073078	,	0
13,43	,	55916	,	-17559	,	-14109	,	-9.929026	,	0
13,43	,	55932	,	-17556	,	-14100	,	-9.442766	,	0
13,43	,	55964	,	-17566	,	-14107	,	-8.673349	,	0
13,43	,	55981	,	-17563	,	-14115	,	-7.7665915	,	0
13,43	,	55997	,	-17578	,	-14099	,	-6.950384	,	0
13,43	,	56028	,	-17559	,	-14110	,	-6.3933477	,	0
13,43	,	56044	,	-17559	,	-14105	,	-5.986711	,	0
13,43	,	56076	,	-17543	,	-14108	,	-5.348486	,	0
13,43	,	56092	,	-17542	,	-14109	,	-4.088673	,	0
13,43	,	56109	,	-17539	,	-14105	,	-2.0559182	,	1
13,43	,	56140	,	-17527	,	-14101	,	0.62872815	,	3
13,43	,	56156	,	-17530	,	-14105	,	3.7171903	,	5
13,43	,	56172	,	-17531	,	-14102	,	6.8505654	,	8
13,43	,	56204	,	-17515	,	-14101	,	9.639017	,	11
13,43	,	56220	,	-17515	,	-14111	,	11.917577	,	13
13,43	,	56252	,	-17513	,	-14090	,	13.685589	,	15
13,43	,	56268	,	-17509	,	-14098	,	14.906063	,	16
13,43	,	56284	,	-17507	,	-14104	,	15.542164	,	17
13,43	,	56316	,	-17513	,	-14101	,	15.576371	,	16
13,43	,	56332	,	-17509	,	-14105	,	14.9695425	,	14
13,44	,	56348	,	-17506	,	-14102	,	13.765624	,	12
13,44	,	56380	,	-17513	,	-14108	,	12.128441	,	9
13,44	,	56396	,	-17505	,	-14103	,	10.232498	,	6
13,44	,	56412	,	-17514	,	-14103	,	8.234991	,	4
13,44	,	56444	,	-17514	,	-14104	,	6.2415414	,	2
13,44	,	56460	,	-17515	,	-14117	,	4.2863326	,	1
13,44	,	56492	,	-17519	,	-14098	,	2.4046795	,	0
13,44	,	56508	,	-17522	,	-14111	,	0.6284685	,	0
13,44	,	56524	,	-17535	,	-14110	,	-1.0888722	,	0
13,44	,	56556	,	-17530	,	-14110	,	-2.8477015	,	0
13,44	,	56572	,	-17522	,	-14112	,	-4.582306	,	0
13,44	,	56588	,	-17537	,	-14114	,	-6.0391617	,	0
13,44	,	56620	,	-17535	,	-14104	,	-7.098434	,	0
13,44	,	56636	,	-17540	,	-14111	,	-7.8352957	,	0
13,44	,	56668	,	-17535	,	-14110	,	-8.305747	,	0
13,44	,	56684	,	-17537	,	-14108	,	-8.470645	,	0
13,44	,	56700	,	-17554	,	-14125	,	-8.351551	,	0
13,44	,	56732	,	-17549	,	-14115	,	-8.166165	,	0
13,44	,	56748	,	-17554	,	-14121	,	-8.126127	,	0
13,44	,	56764	,	-17560	,	-14117	,	-8.277877	,	0
13,44	,	56796	,	-17557	,	-14113	,	-8.5879345	,	0
13,44	,	56812	,	-17570	,	-14118	,	-8.996014	,	0
13,44	,	56828	,	-17570	,	-14117	,	-9.483512	,	0
13,44	,	56860	,	-17576	,	-14120	,	-10.070683	,	0
13,44	,	56876	,	-17582	,	-14122	,	-10.746237	,	0
13,44	,	56908	,	-17577	,	-14119	,	-11.448489	,	0
13,44	,	56924	,	-17588	,	-14114	,	-12.055454	,	0
13,44	,	56940	,	-17589	,	-14121	,	-12.480213	,	0
13,44	,	56972	,	-17593	,	-14108	,	-12.727055	,	0
13,44	,	56988	,	-17588	,	-14122	,	-12.777767	,	0
13,44	,	57004	,	-17604	,	-14118	,	-12.59564	,	0
13,44	,	57036	,	-17601	,	-14118	,	-12.259758	,	0
13,44	,	57052	,	-17608	,	-14114	,	-11.909427	,	0
13,44	,	57084	,	-17592	,	-14120	,	-11.535099	,	0
13,44	,	57100	,	-17601	,	-14121	,	-10.9411545	,	0
13,44	,	57116	,	-17594	,	-14115	,	-9.955027	,	0
13,44	,	57148	,	-17592	,	-14117	,	-8.550948	,	0
13,44	,	57164	,	-17580	,	-14113	,	-6.7263217	,	1
13,44	,	57180	,	-17592	,	-14113	,	-4.4966493	,	2
13,44	,	57212	,	-17585	,	-14107	,	-2.0600076	,	4
13,44	,	57228	,	-17575	,	-14107	,	0.32345557	,	6
13,44	,	57244	,	-17580	,	-14113	,	2.5406234	,	8
13,44	,	57276	,	-17577	,	-14111	,	4.4988375	,	10
13,44	,	57292	,	-17575	,	-14101	,	6.050958	,	11
13,44	,	57324	,	-17572	,	-14108	,	7.1276755	,	12
13,44	,	57340	,	-17572	,	-14103	,	7.7555847	,	13
13,45	,	57356	,	-17576	,	-14119	,	7.9658537	,	12
13,45	,	57388	,	-17585	,	-14109	,	7.701848	,	11
13,45	,	57404	,	-17576	,	-14109	,	6.875542	,	9
13,45	,	57420	,	-17577	,	-14109	,	5.5734406	,	7
13,45	,	57452	,	-17580	,	-14106	,	4.0471706	,	5
13,45	,	57468	,	-17585	,	-14101	,	2.489363	,	3
13,45	,	57500	,	-17568	,	-14103	,	1.0461075	,	2
13,45	,	57516	,	-17579	,	-14106	,	-0.056580186	,	1
13,45	,	57532	,	-17584	,	-14105	,	-0.71352565	,	0
13,45	,	57564	,	-17583	,	-14105	,	-1.0874345	,	0
13,45	,	57580	,	-17585	,	-14107	,	-1.3775964	,	0
13,45	,	57596	,	-17592	,	-14105	,	-1.7008035	,	0
13,45	,	57628	,	-17591	,	-14108	,	-2.1600132	,	0
13,45	,	57644	,	-17585	,	-14108	,	-2.7612827	,	0
13,45	,	57660	,	-17596	,	-14103	,	-3.3785014	,	0
13,45	,	57692	,	-17592	,	-14111	,	-3.9163833	,	0
13,45	,	57708	,	-17595	,	-14109	,	-4.347863	,	0
13,45	,	57740	,	-17605	,	-14115	,	-4.6922436	,	0
13,45	,	57756	,	-17606	,	-14109	,	-5.070472	,	0
13,45	,	57772	,	-17606	,	-14118	,	-5.5902157	,	0
13,45	,	57804	,	-17602	,	-14118	,	-6.1804442	,	0
13,45	,	57820	,	-17615	,	-14120	,	-6.6872644	,	0
13,45	,	57836	,	-17619	,	-14121	,	-7.1057787	,	0
13,45	,	57868	,	-17611	,	-14117	,	-7.518903	,	0
13,45	,	57884	,	-17611	,	-14124	,	-7.8367386	,	0
13,45	,	57916	,	-17622	,	-14114	,	-7.89868	,	0
13,45	,	57932	,	-17623	,	-14120	,	-7.749075	,	0
13,45	,	57948	,	-17626	,	-14117	,	-7.5668964	,	0
13,45	,	57980	,	-17632	,	-14120	,	-7.4825497	,	0
13,45	,	57996	,	-17633	,	-14119	,	-7.5615797	,	0
13,45	,	58012	,	-17633	,	-14118	,	-7.7878356	,	0
13,45	,	58043	,	-17630	,	-14119	,	-8.023228	,	0
13,45	,	58060	,	-17632	,	-14125	,	-8.0732975	,	0
13,45	,	58076	,	-17640	,	-14124	,	-7.8547726	,	0
13,45	,	58108	,	-17642	,	-14122	,	-7.485261	,	0
13,45	,	58124	,	-17640	,	-14127	,	-7.1324873	,	0
13,45	,	58156	,	-17640	,	-14127	,	-6.8283877	,	0
13,45	,	58172	,	-17653	,	-14128	,	-6.5577016	,	0
13,45	,	58187	,	-17650	,	-14133	,	-6.412447	,	0
13,45	,	58220	,	-17651	,	-14129	,	-6.4662323	,	0
13,45	,	58236	,	-17652	,	-14137	,	-6.639718	,	0
13,45	,	58252	,	-17642	,	-14135	,	-6.7477875	,	0
13,45	,	58284	,	-17640	,	-14128	,	-6.535032	,	0
13,45	,	58300	,	-17642	,	-14129	,	-5.80484	,	0
13,45	,	58332	,	-17639	,	-14127	,	-4.5809293	,	0
13,46	,	58348	,	-17637	,	-14126	,	-3.033682	,	1
13,46	,	58363	,	-17624	,	-14128	,	-1.2834506	,	2
13,46	,	58395	,	-17628	,	-14120	,	0.6483178	,	3
13,46	,	58412	,	-17634	,	-14122	,	2.645259	,	4
13,46	,	58428	,	-17624	,	-14121	,	4.4324517	,	5
13,46	,	58460	,	-17629	,	-14125	,	5.7980337	,	6
13,46	,	58476	,	-17635	,	-14126	,	6.623572	,	7
13,46	,	58492	,	-17635	,	-14121	,	6.7816486	,	7
13,46	,	58524	,	-17634	,	-14118	,	6.2408657	,	7
13,46	,	58539	,	-17637	,	-14122	,	5.1423025	,	6
13,46	,	58571	,	-17638	,	-14118	,	3.6990833	,	5
13,46	,	58587	,	-17629	,	-14120	,	2.152164	,	4
13,46	,	58603	,	-17635	,	-14124	,	0.77735496	,	3
13,46	,	58635	,	-17648	,	-14115	,	-0.30875373	,	2
13,46	,	58652	,	-17632	,	-14123	,	-1.2091144	,	1
13,46	,	58668	,	-17643	,	-14114	,	-1.9622979	,	0
13,46	,	58699	,	-17644	,	-14124	,	-2.527467	,	0
13,46	,	58715	,	-17628	,	-14121	,	-2.8776016	,	0
13,46	,	58747	,	-17647	,	-14124	,	-2.9312923	,	0
13,46	,	58763	,	-17639	,	-14123	,	-2.7204938	,	0
13,46	,	58779	,	-17637	,	-14123	,	-2.3962417	,	0
13,46	,	58812	,	-17639	,	-14122	,	-2.005632	,	0
13,46	,	58827	,	-17647	,	-14125	,	-1.5879207	,	0
13,46	,	58843	,	-17650	,	-14136	,	-1.3156481	,	0
13,46	,	58875	,	-17647	,	-14118	,	-1.3537532	,	0
13,46	,	58891	,	-17644	,	-14120	,	-1.6745987	,	0
13,46	,	58907	,	-17645	,	-14125	,	-2.0877004	,	0
13,46	,	58939	,	-17647	,	-14123	,	-2.4142323	,	0
13,46	,	58955	,	-17650	,	-14126	,	-2.5974417	,	0
13,46	,	58987	,	-17645	,	-14124	,	-2.662816	,	0
13,46	,	59003	,	-17646	,	-14118	,	-2.61254	,	0
13,46	,	59019	,	-17646	,	-14121	,	-2.4227881	,	0
13,46	,	59051	,	-17650	,	-14123	,	-2.1194472	,	0
13,46	,	59067	,	-17658	,	-14118	,	-1.8279357	,	0
13,46	,	59083	,	-17655	,	-14131	,	-1.7301327	,	0
13,46	,	59115	,	-17645	,	-14111	,	-1.8607224	,	0
13,46	,	59131	,	-17652	,	-14117	,	-2.0330286	,	0
13,46	,	59163	,	-17652	,	-14124	,	-2.083366	,	0
13,46	,	59179	,	-17647	,	-14119	,	-1.9880462	,	0
13,46	,	59195	,	-17654	,	-14121	,	-1.7663457	,	0
13,46	,	59227	,	-17641	,	-14123	,	-1.4293904	,	0
13,46	,	59243	,	-17641	,	-14118	,	-0.91106355	,	0
13,46	,	59259	,	-17642	,	-14119	,	-0.12828249	,	0
13,46	,	59291	,	-17649	,	-14111	,	0.81396	,	0
13,46	,	59307	,	-17639	,	-14117	,	1.6830556	,	0
13,46	,	59323	,	-17632	,	-14126	,	2.4074292	,	0
13,47	,	59355	,	-17630	,	-14104	,	3.128215	,	0
13,47	,	59371	,	-17629	,	-14120	,	3.9708629	,	0
13,47	,	59403	,	-17636	,	-14112	,	4.8732405	,	0
13,47	,	59419	,	-17637	,	-14116	,	5.5990973	,	0
13,47	,	59435	,	-17620	,	-14118	,	5.980524	,	0
13,47	,	59467	,	-17629	,	-14119	,	6.1048613	,	0
13,47	,	59483	,	-17626	,	-14114	,	6.097613	,	0
13,47	,	59499	,	-17622	,	-14116	,	5.975439	,	0
13,47	,	59531	,	-17630	,	-14115	,	5.742094	,	0
13,47	,	59547	,	-17623	,	-14102	,	5.3761363	,	0
13,47	,	59579	,	-17610	,	-14119	,	4.9344273	,	0
13,47	,	59595	,	-17623	,	-14106	,	4.616131	,	0
13,47	,	59611	,	-17616	,	-14116	,	4.4952726	,	0
13,47	,	59643	,	-17621	,	-14106	,	4.4518332	,	0
13,47	,	59659	,	-17631	,	-14111	,	4.3020067	,	0
13,47	,	59675	,	-17631	,	-14116	,	3.8132808	,	0
13,47	,	59707	,	-17629	,	-14118	,	2.8515124	,	0
13,47	,	59723	,	-17631	,	-14110	,	1.5229712	,	0
13,47	,	59739	,	-17629	,	-14113	,	0.070500135	,	0
13,47	,	59771	,	-17630	,	-14116	,	-1.257351	,	0
13,47	,	59787	,	-17620	,	-14115	,	-2.2348845	,	0
13,47	,	59819	,	-17633	,	-14120	,	-2.7159865	,	0
13,47	,	59835	,	-17632	,	-14103	,	-2.7653074	,	0
13,47	,	59851	,	-17634	,	-14110	,	-2.607956	,	0
13,47	,	59883	,	-17638	,	-14115	,	-2.4455714	,	0
13,47	,	59899	,	-17633	,	-14105	,	-2.3888597	,	0
13,47	,	59915	,	-17638	,	-14107	,	-2.4443774	,	0
13,47	,	59947	,	-17642	,	-14111	,	-2.5882616	,	0
13,47	,	59963	,	-17643	,	-14110	,	-2.8496456	,	0
13,47	,	59995	,	-17643	,	-14110	,	-3.2397666	,	0
13,47	,	60011	,	-17642	,	-14111	,	-3.6829638	,	0
13,47	,	60027	,	-17639	,	-14114	,	-4.0410004	,	0
13,47	,	60059	,	-17634	,	-14122	,	-4.145779	,	0
13,47	,	60075	,	-17648	,	-14107	,	-3.9082355	,	0
13,47	,	60091	,	-17646	,	-14113	,	-3.4619744	,	0
13,47	,	60123	,	-17654	,	-14102	,	-3.076732	,	0
13,47	,	60139	,	-17649	,	-14109	,	-2.9398694	,	0
13,47	,	60171	,	-17651	,	-14108	,	-3.05657	,	0
13,47	,	60187	,	-17643	,	-14108	,	-3.269435	,	0
13,47	,	60203	,	-17649	,	-14109	,	-3.369636	,	0
13,47	,	60235	,	-17637	,	-14105	,	-3.199274	,	0
13,47	,	60251	,	-17637	,	-14104	,	-2.6393337	,	0
13,47	,	60267	,	-17622	,	-14103	,	-1.56806	,	0
13,47	,	60299	,	-17627	,	-14105	,	0.08651364	,	1
13,47	,	60315	,	-17622	,	-14098	,	2.2139049	,	2
13,47	,	60331	,	-17617	,	-14102	,	4.534832	,	4
13,48	,	60363	,	-17595	,	-14090	,	6.876737	,	6
13,48	,	60379	,	-17603	,	-14087	,	9.275238	,	8
13,48	,	60411	,	-17595	,	-14092	,	11.683973	,	10
13,48	,	60427	,	-17590	,	-14092	,	13.878858	,	12
13,48	,	60443	,	-17593	,	-14087	,	15.642481	,	14
13,48	,	60475	,	-17579	,	-14092	,	16.841324	,	15
13,48	,	60491	,	-17598	,	-14086	,	17.396778	,	15
13,48	,	60507	,	-17582	,	-14093	,	17.219364	,	14
13,48	,	60539	,	-17583	,	-14091	,	16.320381	,	12
13,48	,	60555	,	-17577	,	-14081	,	14.930611	,	10
13,48	,	60586	,	-17577	,	-14081	,	13.347476	,	8
13,48	,	60602	,	-17583	,	-14086	,	11.757163	,	6
13,48	,	60618	,	-17575	,	-14077	,	10.204091	,	4
13,48	,	60651	,	-17579	,	-14076	,	8.703865	,	2
13,48	,	60667	,	-17571	,	-14081	,	7.3255796	,	1
13,48	,	60683	,	-17569	,	-14085	,	6.189393	,	0
13,48	,	60715	,	-17578	,	-14084	,	5.369626	,	0
13,48	,	60731	,	-17573	,	-14086	,	4.7660146	,	0
13,48	,	60747	,	-17571	,	-14084	,	4.2297897	,	0
13,48	,	60778	,	-17569	,	-14077	,	3.737317	,	0
13,48	,	60794	,	-17571	,	-14078	,	3.3265593	,	0
13,48	,	60827	,	-17571	,	-14079	,	2.9875774	,	0
13,48	,	60843	,	-17578	,	-14076	,	2.6344647	,	0
13,48	,	60859	,	-17568	,	-14075	,	2.1812553	,	0
13,48	,	60891	,	-17578	,	-14082	,	1.6368512	,	0
13,48	,	60907	,	-17572	,	-14072	,	1.0473416	,	0
13,48	,	60922	,	-17573	,	-14087	,	0.45563972	,	0
13,48	,	60955	,	-17573	,	-14085	,	-0.06227839	,	0
13,48	,	60971	,	-17586	,	-14083	,	-0.50274813	,	0
13,48	,	61002	,	-17584	,	-14086	,	-1.0136718	,	0
13,48	,	61019	,	-17582	,	-14074	,	-1.7083011	,	0
13,48	,	61034	,	-17582	,	-14086	,	-2.494772	,	0
13,48	,	61066	,	-17595	,	-14086	,	-3.245729	,	0
13,48	,	61082	,	-17593	,	-14087	,	-3.9981947	,	0
13,48	,	61098	,	-17598	,	-14087	,	-4.836041	,	0
13,48	,	61131	,	-17602	,	-14089	,	-5.756522	,	0
13,48	,	61147	,	-17606	,	-14082	,	-6.7273827	,	0
13,48	,	61163	,	-17607	,	-14090	,	-7.7113457	,	0
13,48	,	61194	,	-17607	,	-14086	,	-8.613003	,	0
13,48	,	61210	,	-17601	,	-14087	,	-9.253643	,	0
13,48	,	61242	,	-17590	,	-14095	,	-9.366865	,	0
13,48	,	61258	,	-17598	,	-14079	,	-8.713952	,	0
13,48	,	61274	,	-17584	,	-14075	,	-7.259484	,	0
13,48	,	61307	,	-17571	,	-14082	,	-5.0572824	,	1
13,48	,	61323	,	-17562	,	-14084	,	-2.0747776	,	3
13,48	,	61339	,	-17563	,	-14078	,	1.6306379	,	5
13,49	,	61371	,	-17549	,	-14078	,	5.756812	,	8
13,49	,	61386	,	-17546	,	-14077	,	9.9200325	,	12
13,49	,	61418	,	-17536	,	-14068	,	13.8089285	,	16
13,49	,	61434	,	-17525	,	-14069	,	17.227438	,	19
13,49	,	61450	,	-17526	,	-14062	,	20.081007	,	22
13,49	,	61482	,	-17514	,	-14074	,	22.285725	,	24
13,49	,	61499	,	-17519	,	-14060	,	23.749338	,	25
13,49	,	61515	,	-17503	,	-14064	,	24.430374	,	24
13,49	,	61546	,	-17500	,	-14063	,	24.424652	,	22
13,49	,	61562	,	-17502	,	-14060	,	23.914616	,	19
13,49	,	61578	,	-17494	,	-14061	,	23.001162	,	15
13,49	,	61610	,	-17497	,	-14056	,	21.724144	,	11
13,49	,	61626	,	-17500	,	-14060	,	20.096668	,	8
13,49	,	61658	,	-17501	,	-14059	,	18.073568	,	5
13,49	,	61674	,	-17505	,	-14061	,	15.624166	,	3
13,49	,	61690	,	-17506	,	-14062	,	12.794189	,	1
13,49	,	61722	,	-17506	,	-14067	,	9.719173	,	0
13,49	,	61738	,	-17516	,	-14049	,	6.5754943	,	0
13,49	,	61754	,	-17506	,	-14065	,	3.5207806	,	0
13,49	,	61786	,	-17509	,	-14064	,	0.76699877	,	0
13,49	,	61802	,	-17511	,	-14072	,	-1.4459713	,	0
13,49	,	61834	,	-17512	,	-14062	,	-3.0187552	,	0
13,49	,	61850	,	-17510	,	-14069	,	-3.9842117	,	0
13,49	,	61867	,	-17526	,	-14060	,	-4.473981	,	0
13,49	,	61898	,	-17528	,	-14060	,	-4.7883177	,	0
13,49	,	61914	,	-17521	,	-14063	,	-5.2061996	,	0
13,49	,	61946	,	-17519	,	-14071	,	-5.690733	,	0
13,49	,	61962	,	-17524	,	-14079	,	-6.0131183	,	0
13,49	,	61978	,	-17534	,	-14064	,	-6.1021776	,	0
13,49	,	62010	,	-17547	,	-14072	,	-6.1827383	,	0
13,49	,	62026	,	-17541	,	-14075	,	-6.572757	,	0
13,49	,	62042	,	-17542	,	-14071	,	-7.326947	,	0
13,49	,	62074	,	-17550	,	-14072	,	-8.234148	,	0
13,49	,	62090	,	-17555	,	-14073	,	-9.133029	,	0
13,49	,	62106	,	-17557	,	-14081	,	-9.996281	,	0
13,49	,	62138	,	-17550	,	-14080	,	-10.7464285	,	0
13,49	,	62154	,	-17548	,	-14073	,	-11.153169	,	0
13,49	,	62186	,	-17554	,	-14078	,	-10.997874	,	0
13,49	,	62202	,	-17545	,	-14083	,	-10.241741	,	0
13,49	,	62218	,	-17559	,	-14072	,	-8.999305	,	0
13,49	,	62250	,	-17563	,	-14079	,	-7.5593452	,	1
13,49	,	62266	,	-17565	,	-14075	,	-6.31861	,	2
13,49	,	62282	,	-17557	,	-14077	,	-5.4838448	,	3
13,49	,	62314	,	-17556	,	-14077	,	-4.9436326	,	3
13,49	,	62330	,	-17543	,	-14075	,	-4.3982477	,	3
13,50	,	62362	,	-17535	,	-14074	,	-3.480685	,	3
13,50	,	62378	,	-17531	,	-14068	,	-1.8970101	,	3
13,50	,	62394	,	-17522	,	-14068	,	0.4204135	,	4
13,50	,	62426	,	-17531	,	-14076	,	3.2682762	,	6
13,50	,	62442	,	-17517	,	-14066	,	6.243064	,	7
13,50	,	62458	,	-17509	,	-14069	,	9.010597	,	8
13,50	,	62490	,	-17495	,	-14073	,	11.52746	,	9
13,50	,	62506	,	-17499	,	-14064	,	13.875351	,	11
13,50	,	62522	,	-17514	,	-14076	,	15.89026	,	13
13,50	,	62554	,	-17507	,	-14067	,	17.107515	,	15
13,50	,	62570	,	-17498	,	-14070	,	17.220892	,	16
13,50	,	62602	,	-17501	,	-14073	,	16.366592	,	15
13,50	,	62618	,	-17502	,	-14075	,	14.848743	,	13
13,50	,	62634	,	-17509	,	-14080	,	12.858315	,	11
13,50	,	62666	,	-17497	,	-14077	,	10.536138	,	9
13,50	,	62682	,	-17503	,	-14064	,	8.129183	,	7
13,50	,	62698	,	-17502	,	-14081	,	5.897751	,	5
13,50	,	62730	,	-17504	,	-14073	,	3.960106	,	3
13,50	,	62746	,	-17502	,	-14069	,	2.3492215	,	1
13,50	,	62778	,	-17505	,	-14068	,	1.0827696	,	0
13,50	,	62794	,	-17505	,	-14076	,	0.14078498	,	0
13,50	,	62810	,	-17505	,	-14070	,	-0.52775586	,	0
13,50	,	62842	,	-17507	,	-14067	,	-0.9755171	,	0
13,50	,	62858	,	-17501	,	-14068	,	-1.2306309	,	0
13,50	,	62874	,	-17514	,	-14068	,	-1.3269923	,	0
13,50	,	62906	,	-17513	,	-14069	,	-1.40542	,	0
13,50	,	62922	,	-17518	,	-14065	,	-1.6607103	,	0
13,50	,	62938	,	-17518	,	-14063	,	-2.181015	,	0
13,50	,	62970	,	-17524	,	-14064	,	-2.9400883	,	0
13,50	,	62986	,	-17517	,	-14070	,	-3.8344681	,	0
13,50	,	63018	,	-17523	,	-14065	,	-4.6859345	,	0
13,50	,	63034	,	-17526	,	-14067	,	-5.3532043	,	0
13,50	,	63050	,	-17530	,	-14065	,	-5.8396506	,	0
13,50	,	63081	,	-17533	,	-14064	,	-6.232653	,	0
13,50	,	63098	,	-17528	,	-14066	,	-6.570035	,	0
13,50	,	63116	,	-17535	,	-14067	,	-6.7955112	,	0
13,50	,	63146	,	-17545	,	-14057	,	-6.913622	,	0
13,50	,	63162	,	-17538	,	-14067	,	-7.045552	,	0
13,50	,	63194	,	-17538	,	-14062	,	-7.1978483	,	0
13,50	,	63210	,	-17552	,	-14058	,	-7.2742186	,	0
13,50	,	63226	,	-17550	,	-14064	,	-7.325548	,	0
13,50	,	63257	,	-17553	,	-14067	,	-7.47353	,	0
13,50	,	63274	,	-17549	,	-14069	,	-7.6951137	,	0
13,50	,	63290	,	-17561	,	-14062	,	-7.8817196	,	0
13,50	,	63322	,	-17567	,	-14066	,	-8.048514	,	0
13,50	,	63338	,	-17558	,	-14063	,	-8.28493	,	0
13,51	,	63354	,	-17568	,	-14066	,	-8.540519	,	0
13,51	,	63386	,	-17561	,	-14066	,	-8.678089	,	0
13,51	,	63402	,	-17555	,	-14071	,	-8.543933	,	0
13,51	,	63434	,	-17547	,	-14063	,	-7.910531	,	0
13,51	,	63450	,	-17547	,	-14063	,	-6.5896688	,	0
13,51	,	63466	,	-17545	,	-14065	,	-4.6051803	,	1
13,51	,	63498	,	-17537	,	-14065	,	-2.1628234	,	2
13,51	,	63514	,	-17536	,	-14069	,	0.5084274	,	4
13,51	,	63529	,	-17541	,	-14059	,	3.1582897	,	6
13,51	,	63561	,	-17533	,	-14065	,	5.477815	,	8
13,51	,	63578	,	-17524	,	-14063	,	7.293808	,	10
13,51	,	63610	,	-17536	,	-14076	,	8.617588	,	11
13,51	,	63626	,	-17530	,	-14057	,	9.412251	,	12
13,51	,	63641	,	-17518	,	-14065	,	9.659466	,	12
13,51	,	63674	,	-17527	,	-14060	,	9.529499	,	11
13,51	,	63690	,	-17523	,	-14060	,	9.175297	,	10
13,51	,	63706	,	-17527	,	-14061	,	8.603351	,	8
13,51	,	63738	,	-17518	,	-14065	,	7.8250704	,	6
13,51	,	63753	,	-17513	,	-14069	,	6.9842563	,	4
13,51	,	63770	,	-17516	,	-14064	,	6.2911696	,	2
13,51	,	63802	,	-17513	,	-14067	,	5.8347926	,	1
13,51	,	63818	,	-17516	,	-14065	,	5.5503826	,	0
13,51	,	63849	,	-17514	,	-14067	,	5.3205404	,	0
13,51	,	63865	,	-17510	,	-14060	,	5.0702896	,	0
13,51	,	63882	,	-17516	,	-14069	,	4.791605	,	0
13,51	,	63913	,	-17524	,	-14070	,	4.410442	,	0
13,51	,	63930	,	-17532	,	-14072	,	3.7009766	,	0
13,51	,	63946	,	-17529	,	-14068	,	2.4576757	,	0
13,51	,	63977	,	-17533	,	-14075	,	0.7131307	,	0
13,51	,	63993	,	-17536	,	-14076	,	-1.3037786	,	0
13,51	,	64026	,	-17531	,	-14073	,	-3.3167458	,	0
13,51	,	64042	,	-17543	,	-14078	,	-5.082894	,	0
13,51	,	64057	,	-17540	,	-14078	,	-6.494246	,	0
13,51	,	64089	,	-17545	,	-14081	,	-7.5580397	,	0
13,51	,	64105	,	-17544	,	-14069	,	-8.28107	,	0
13,51	,	64121	,	-17551	,	-14071	,	-8.67655	,	0
13,51	,	64153	,	-17553	,	-14073	,	-8.818563	,	0
13,51	,	64169	,	-17551	,	-14081	,	-8.796082	,	0
13,51	,	64185	,	-17552	,	-14073	,	-8.619466	,	0
13,51	,	64217	,	-17555	,	-14079	,	-8.261354	,	0
13,51	,	64233	,	-17564	,	-14079	,	-7.793448	,	0
13,51	,	64265	,	-17570	,	-14075	,	-7.425189	,	0
13,51	,	64281	,	-17563	,	-14080	,	-7.331397	,	0
13,51	,	64297	,	-17566	,	-14081	,	-7.448245	,	0
13,51	,	64329	,	-17577	,	-14088	,	-7.6132445	,	0
13,52	,	64345	,	-17574	,	-14064	,	-7.8014565	,	0
13,52	,	64361	,	-17582	,	-14078	,	-8.056867	,	0
13,52	,	64393	,	-17578	,	-14091	,	-8.368759	,	0
13,52	,	64410	,	-17575	,	-14086	,	-8.623886	,	0
13,52	,	64441	,	-17573	,	-14082	,	-8.607849	,	0
13,52	,	64457	,	-17571	,	-14076	,	-8.135918	,	0
13,52	,	64473	,	-17558	,	-14079	,	-7.0971675	,	0
13,52	,	64505	,	-17565	,	-14076	,	-5.433866	,	1
13,52	,	64521	,	-17560	,	-14078	,	-3.2659276	,	2
13,52	,	64537	,	-17556	,	-14078	,	-0.8700242	,	4
13,52	,	64569	,	-17557	,	-14081	,	1.501154	,	6
13,52	,	64585	,	-17557	,	-14074	,	3.6246226	,	8
13,52	,	64601	,	-17554	,	-14079	,	5.293303	,	10
13,52	,	64633	,	-17551	,	-14078	,	6.414364	,	11
13,52	,	64649	,	-17549	,	-14090	,	7.0337124	,	12
13,52	,	64681	,	-17537	,	-14080	,	7.3116207	,	12
13,52	,	64697	,	-17552	,	-14084	,	7.430712	,	11
13,52	,	64713	,	-17543	,	-14085	,	7.4151015	,	10
13,52	,	64745	,	-17545	,	-14082	,	7.1867476	,	8
13,52	,	64761	,	-17543	,	-14077	,	6.74122	,	6
13,52	,	64777	,	-17537	,	-14084	,	6.156808	,	4
13,52	,	64809	,	-17543	,	-14086	,	5.5456076	,	2
13,52	,	64825	,	-17543	,	-14075	,	4.9500685	,	1
13,52	,	64857	,	-17548	,	-14082	,	4.3002768	,	0
13,52	,	64873	,	-17546	,	-14077	,	3.5167592	,	0
13,52	,	64889	,	-17543	,	-14080	,	2.6114702	,	0
13,52	,	64921	,	-17551	,	-14076	,	1.6650534	,	0
13,52	,	64937	,	-17555	,	-14079	,	0.69194853	,	0
13,52	,	64953	,	-17545	,	-14078	,	-0.3255949	,	0
13,52	,	64985	,	-17554	,	-14081	,	-1.2973148	,	0
13,52	,	65001	,	-17556	,	-14082	,	-2.1332736	,	0
13,52	,	65018	,	-17560	,	-14083	,	-2.8695514	,	0
13,52	,	65049	,	-17548	,	-14095	,	-3.5176284	,	0
13,52	,	65065	,	-17561	,	-14083	,	-3.9697475	,	0
13,52	,	65097	,	-17561	,	-14096	,	-4.1935773	,	0
13,52	,	65113	,	-17571	,	-14084	,	-4.349408	,	0
13,52	,	65129	,	-17575	,	-14086	,	-4.6668367	,	0
13,52	,	65161	,	-17572	,	-14089	,	-5.2691007	,	0
13,52	,	65177	,	-17562	,	-14088	,	-6.0108995	,	0
13,52	,	65193	,	-17577	,	-14088	,	-6.5854564	,	0
13,52	,	65225	,	-17579	,	-14096	,	-6.8857107	,	0
13,52	,	65241	,	-17586	,	-14094	,	-7.066146	,	0
13,52	,	65273	,	-17572	,	-14096	,	-7.2376413	,	0
13,52	,	65289	,	-17598	,	-14101	,	-7.3813148	,	0
13,52	,	65305	,	-17587	,	-14092	,	-7.5636797	,	0
13,52	,	65337	,	-17598	,	-14095	,	-7.892282	,	0
13,53	,	65353	,	-17598	,	-14099	,	-8.360345	,	0
13,53	,	65369	,	-17601	,	-14098	,	-8.9068775	,	0
13,53	,	65401	,	-17597	,	-14103	,	-9.420811	,	0
13,53	,	65417	,	-17597	,	-14101	,	-9.712376	,	0
13,53	,	65433	,	-17601	,	-14101	,	-9.621695	,	0
13,53	,	65465	,	-17595	,	-14103	,	-9.107624	,	0
13,53	,	65481	,	-17592	,	-14098	,	-8.175127	,	0
13,53	,	65513	,	-17587	,	-14093	,	-6.80386	,	0
13,53	,	65529	,	-17592	,	-14108	,	-5.0344725	,	1
13,53	,	65545	,	-17591	,	-14097	,	-3.0677776	,	2
13,53	,	65577	,	-17577	,	-14091	,	-1.1218066	,	3
13,53	,	65593	,	-17587	,	-14087	,	0.735224	,	4
13,53	,	65609	,	-17594	,	-14094	,	2.3785284	,	5
13,53	,	65641	,	-17580	,	-14095	,	3.5646367	,	6
13,53	,	65657	,	-17582	,	-14087	,	4.249548	,	7
13,53	,	65689	,	-17577	,	-14092	,	4.6103454	,	7
13,53	,	65705	,	-17578	,	-14090	,	4.8131514	,	7
13,53	,	65721	,	-17581	,	-14090	,	4.9133244	,	6
13,53	,	65753	,	-17575	,	-14090	,	4.885076	,	5
13,53	,	65769	,	-17570	,	-14089	,	4.764345	,	4
13,53	,	65785	,	-17573	,	-14083	,	4.669915	,	3
13,53	,	65817	,	-17581	,	-14085	,	4.603761	,	2
13,53	,	65833	,	-17579	,	-14081	,	4.397627	,	1
13,53	,	65865	,	-17579	,	-14089	,	3.9197752	,	0
13,53	,	65881	,	-17583	,	-14089	,	3.1800356	,	0
13,53	,	65897	,	-17596	,	-14089	,	2.1770134	,	0
13,53	,	65929	,	-17584	,	-14088	,	0.85791385	,	0
13,53	,	65945	,	-17580	,	-14089	,	-0.6329037	,	0
13,53	,	65961	,	-17582	,	-14088	,	-1.926241	,	0
13,53	,	65993	,	-17593	,	-14090	,	-2.7973418	,	0
13,53	,	66009	,	-17591	,	-14090	,	-3.3409379	,	0
13,53	,	66025	,	-17591	,	-14088	,	-3.730352	,	0
13,53	,	66057	,	-17591	,	-14089	,	-4.007636	,	0
13,53	,	66073	,	-17587	,	-14084	,	-4.1160536	,	0
13,53	,	66105	,	-17596	,	-14096	,	-4.017444	,	0
13,53	,	66121	,	-17602	,	-14092	,	-3.8208902	,	0
13,53	,	66137	,	-17598	,	-14093	,	-3.730894	,	0
13,53	,	66169	,	-17604	,	-14096	,	-3.8374414	,	0
13,53	,	66185	,	-17602	,	-14096	,	-4.1003065	,	0
13,53	,	66201	,	-17603	,	-14093	,	-4.4335947	,	0
13,53	,	66233	,	-17614	,	-14078	,	-4.772227	,	0
13,53	,	66248	,	-17616	,	-14085	,	-5.171796	,	0
13,53	,	66281	,	-17613	,	-14098	,	-5.712971	,	0
13,53	,	66297	,	-17619	,	-14101	,	-6.340248	,	0
13,53	,	66313	,	-17620	,	-14102	,	-6.940481	,	0
13,54	,	66345	,	-17626	,	-14103	,	-7.461749	,	0
13,54	,	66361	,	-17628	,	-14108	,	-7.9123573	,	0
13,54	,	66377	,	-17626	,	-14101	,	-8.286806	,	0
13,54	,	66408	,	-17624	,	-14112	,	-8.486713	,	0
13,54	,	66425	,	-17634	,	-14104	,	-8.413864	,	0
13,54	,	66441	,	-17623	,	-14104	,	-8.083083	,	0
13,54	,	66473	,	-17610	,	-14106	,	-7.431161	,	0
13,54	,	66489	,	-17610	,	-14100	,	-6.2113395	,	0
13,54	,	66520	,	-17615	,	-14106	,	-4.3278513	,	1
13,54	,	66537	,	-17603	,	-14106	,	-2.0025146	,	2
13,54	,	66552	,	-17599	,	-14099	,	0.5117099	,	4
13,54	,	66584	,	-17604	,	-14101	,	3.042482	,	6
13,54	,	66600	,	-17595	,	-14097	,	5.372443	,	8
13,54	,	66616	,	-17591	,	-14096	,	7.3331523	,	10
13,54	,	66649	,	-17587	,	-14097	,	8.908961	,	11
13,54	,	66665	,	-17575	,	-14100	,	10.178819	,	12
13,54	,	66696	,	-17575	,	-14091	,	11.272174	,	13
13,54	,	66712	,	-17572	,	-14093	,	12.263707	,	13
13,54	,	66729	,	-17568	,	-14086	,	13.107361	,	12
13,54	,	66760	,	-17575	,	-14091	,	13.680256	,	10
13,54	,	66776	,	-17578	,	-14090	,	13.775369	,	8
13,54	,	66792	,	-17577	,	-14100	,	13.182833	,	6
13,54	,	66824	,	-17580	,	-14095	,	11.859798	,	4
13,54	,	66840	,	-17572	,	-14095	,	9.973011	,	3
13,54	,	66856	,	-17574	,	-14101	,	7.8357425	,	2
13,54	,	66888	,	-17582	,	-14099	,	5.7302513	,	1
13,54	,	66904	,	-17576	,	-14096	,	3.7729	,	0
13,54	,	66936	,	-17587	,	-14094	,	1.9891672	,	0
13,54	,	66952	,	-17588	,	-14104	,	0.3557799	,	0
13,54	,	66968	,	-17587	,	-14094	,	-1.1695837	,	0
13,54	,	67001	,	-17594	,	-14109	,	-2.573545	,	0
13,54	,	67017	,	-17595	,	-14104	,	-3.8420649	,	0
13,54	,	67032	,	-17594	,	-14099	,	-4.968372	,	0
13,54	,	67064	,	-17587	,	-14097	,	-5.8415213	,	0
13,54	,	67081	,	-17587	,	-14096	,	-6.259898	,	0
13,54	,	67112	,	-17594	,	-14096	,	-6.1237364	,	0
13,54	,	67128	,	-17585	,	-14095	,	-5.5242176	,	0
13,54	,	67144	,	-17595	,	-14090	,	-4.6250215	,	0
13,54	,	67176	,	-17589	,	-14096	,	-3.60527	,	0
13,54	,	67192	,	-17587	,	-14094	,	-2.6089218	,	1
13,54	,	67208	,	-17588	,	-14079	,	-1.6707366	,	1
13,54	,	67241	,	-17598	,	-14091	,	-0.8465618	,	1
13,54	,	67256	,	-17598	,	-14093	,	-0.320925	,	1
13,54	,	67273	,	-17603	,	-14095	,	-0.27051818	,	1
13,54	,	67304	,	-17601	,	-14089	,	-0.7183652	,	1
13,54	,	67320	,	-17595	,	-14090	,	-1.4966444	,	1
13,55	,	67352	,	-17598	,	-14095	,	-2.3091464	,	1
13,55	,	67368	,	-17596	,	-14092	,	-2.9036148	,	1
13,55	,	67384	,	-17604	,	-14089	,	-3.2025175	,	0
13,55	,	67416	,	-17600	,	-14087	,	-3.2780485	,	0
13,55	,	67432	,	-17608	,	-14098	,	-3.2444973	,	0
13,55	,	67448	,	-17606	,	-14078	,	-3.209818	,	0
13,55	,	67480	,	-17589	,	-14082	,	-3.1632857	,	0
13,55	,	67496	,	-17591	,	-14078	,	-2.8611832	,	0
13,55	,	67528	,	-17579	,	-14081	,	-2.0224104	,	0
13,55	,	67544	,	-17576	,	-14080	,	-0.5242101	,	0
13,55	,	67560	,	-17570	,	-14079	,	1.6007445	,	1
13,55	,	67592	,	-17569	,	-14078	,	4.1579623	,	3
13,55	,	67608	,	-17559	,	-14075	,	6.857595	,	5
13,55	,	67624	,	-17546	,	-14080	,	9.507459	,	7
13,55	,	67656	,	-17543	,	-14069	,	12.082827	,	9
13,55	,	67672	,	-17531	,	-14083	,	14.583379	,	11
13,55	,	67688	,	-17532	,	-14064	,	16.922628	,	13
13,55	,	67720	,	-17527	,	-14061	,	18.919046	,	15
13,55	,	67736	,	-17527	,	-14067	,	20.344835	,	16
13,55	,	67768	,	-17529	,	-14065	,	20.998468	,	16
13,55	,	67784	,	-17527	,	-14063	,	20.742577	,	14
13,55	,	67800	,	-17528	,	-14066	,	19.562246	,	12
13,55	,	67832	,	-17516	,	-14065	,	17.643032	,	10
13,55	,	67848	,	-17514	,	-14064	,	15.382702	,	8
13,55	,	67864	,	-17517	,	-14061	,	13.195594	,	6
13,55	,	67896	,	-17517	,	-14055	,	11.260159	,	4
13,55	,	67912	,	-17525	,	-14073	,	9.511461	,	2
13,55	,	67944	,	-17520	,	-14051	,	7.8040924	,	1
13,55	,	67960	,	-17524	,	-14061	,	6.06999	,	0
13,55	,	67976	,	-17527	,	-14058	,	4.3285937	,	0
13,55	,	68008	,	-17524	,	-14059	,	2.6234944	,	0
13,55	,	68024	,	-17527	,	-14066	,	1.0426588	,	0
13,55	,	68040	,	-17525	,	-14059	,	-0.30163836	,	0
13,55	,	68072	,	-17527	,	-14065	,	-1.3339599	,	0
13,55	,	68088	,	-17521	,	-14059	,	-2.0072682	,	0
13,55	,	68104	,	-17525	,	-14055	,	-2.2862437	,	0
13,55	,	68136	,	-17524	,	-14051	,	-2.1958044	,	0
13,55	,	68152	,	-17523	,	-14058	,	-1.8412246	,	0
13,55	,	68184	,	-17536	,	-14045	,	-1.4001765	,	0
13,55	,	68200	,	-17531	,	-14046	,	-1.1166054	,	0
13,55	,	68216	,	-17534	,	-14054	,	-1.1491492	,	0
13,55	,	68248	,	-17534	,	-14048	,	-1.4665974	,	0
13,55	,	68264	,	-17543	,	-14037	,	-1.9861314	,	0
13,55	,	68280	,	-17542	,	-14039	,	-2.689009	,	0
13,55	,	68312	,	-17541	,	-14045	,	-3.5399048	,	0
13,55	,	68328	,	-17537	,	-14040	,	-4.3775697	,	0
13,56	,	68360	,	-17546	,	-14037	,	-5.006643	,	0
13,56	,	68376	,	-17546	,	-14036	,	-5.377721	,	0
13,56	,	68392	,	-17545	,	-14047	,	-5.552258	,	0
13,56	,	68424	,	-17549	,	-14032	,	-5.5739174	,	0
13,56	,	68440	,	-17548	,	-14036	,	-5.4753723	,	0
13,56	,	68456	,	-17552	,	-14036	,	-5.302129	,	0
13,56	,	68488	,	-17561	,	-14035	,	-5.1435413	,	0
13,56	,	68504	,	-17547	,	-14032	,	-5.0918393	,	0
13,56	,	68520	,	-17545	,	-14036	,	-5.039518	,	0
13,56	,	68552	,	-17540	,	-14029	,	-4.700132	,	0
13,56	,	68568	,	-17536	,	-14030	,	-3.8557656	,	0
13,56	,	68599	,	-17521	,	-14020	,	-2.3935518	,	0
13,56	,	68615	,	-17512	,	-14026	,	-0.20333624	,	1
13,56	,	68632	,	-17519	,	-14031	,	2.6946526	,	3
13,56	,	68664	,	-17519	,	-14022	,	5.924877	,	5
13,56	,	68680	,	-17512	,	-14021	,	8.9145565	,	8
13,56	,	68696	,	-17503	,	-14022	,	11.301094	,	10
13,56	,	68728	,	-17496	,	-14022	,	13.070884	,	12
13,56	,	68744	,	-17493	,	-14027	,	14.380638	,	13
13,56	,	68775	,	-17490	,	-14023	,	15.341774	,	14
13,56	,	68792	,	-17495	,	-14025	,	15.927668	,	14
13,56	,	68808	,	-17489	,	-14024	,	16.018707	,	13
13,56	,	68840	,	-17490	,	-14026	,	15.544289	,	11
13,56	,	68856	,	-17475	,	-14027	,	14.6152725	,	9
13,56	,	68872	,	-17480	,	-14023	,	13.510195	,	6
13,56	,	68903	,	-17484	,	-14028	,	12.423313	,	4
13,56	,	68919	,	-17478	,	-14029	,	11.322222	,	2
13,56	,	68951	,	-17478	,	-14021	,	10.159447	,	1
13,56	,	68968	,	-17483	,	-14035	,	8.962857	,	0
13,56	,	68984	,	-17486	,	-14035	,	7.697069	,	0
13,56	,	69016	,	-17482	,	-14028	,	6.291781	,	0
13,56	,	69032	,	-17494	,	-14034	,	4.7348094	,	0
13,56	,	69047	,	-17483	,	-14035	,	3.059647	,	0
13,56	,	69079	,	-17492	,	-14036	,	1.3763332	,	0
13,56	,	69095	,	-17489	,	-14037	,	-0.16026568	,	0
13,56	,	69112	,	-17496	,	-14040	,	-1.4692729	,	0
13,56	,	69143	,	-17496	,	-14037	,	-2.5614834	,	0
13,56	,	69159	,	-17494	,	-14036	,	-3.4583156	,	0
13,56	,	69192	,	-17510	,	-14043	,	-4.1907263	,	0
13,56	,	69207	,	-17503	,	-14044	,	-4.874611	,	0
13,56	,	69223	,	-17498	,	-14042	,	-5.5466995	,	0
13,56	,	69255	,	-17504	,	-14044	,	-6.0441785	,	0
13,56	,	69271	,	-17500	,	-14044	,	-6.2217627	,	0
13,56	,	69288	,	-17512	,	-14041	,	-6.100611	,	0
13,56	,	69320	,	-17514	,	-14045	,	-5.8588696	,	0
13,56	,	69336	,	-17512	,	-14047	,	-5.705879	,	0
13,57	,	69367	,	-17516	,	-14045	,	-5.7060966	,	0
13,57	,	69383	,	-17523	,	-14040	,	-5.8383904	,	0
13,57	,	69399	,	-17518	,	-14046	,	-6.0969367	,	0
13,57	,	69431	,	-17525	,	-14051	,	-6.4276323	,	0
13,57	,	69447	,	-17524	,	-14043	,	-6.741474	,	0
13,57	,	69463	,	-17538	,	-14042	,	-7.030892	,	0
13,57	,	69495	,	-17536	,	-14043	,	-7.3953447	,	0
13,57	,	69511	,	-17534	,	-14048	,	-7.882338	,	0
13,57	,	69527	,	-17535	,	-14047	,	-8.354731	,	0
13,57	,	69559	,	-17533	,	-14045	,	-8.59918	,	0
13,57	,	69575	,	-17531	,	-14055	,	-8.456764	,	0
13,57	,	69607	,	-17534	,	-14037	,	-7.8662834	,	0
13,57	,	69623	,	-17515	,	-14045	,	-6.8109584	,	0
13,57	,	69639	,	-17505	,	-14047	,	-5.144399	,	1
13,57	,	69671	,	-17501	,	-14045	,	-2.6571245	,	2
13,57	,	69687	,	-17508	,	-14043	,	0.5639553	,	4
13,57	,	69703	,	-17497	,	-14044	,	4.061907	,	7
13,57	,	69735	,	-17495	,	-14047	,	7.3539333	,	10
13,57	,	69751	,	-17497	,	-14043	,	10.125352	,	13
13,57	,	69783	,	-17487	,	-14040	,	12.179695	,	15
13,57	,	69799	,	-17479	,	-14031	,	13.50951	,	17
13,57	,	69815	,	-17482	,	-14051	,	14.281435	,	18
13,57	,	69847	,	-17479	,	-14031	,	14.606805	,	17
13,57	,	69864	,	-17482	,	-14036	,	14.467564	,	16
13,57	,	69879	,	-17469	,	-14044	,	13.872868	,	14
13,57	,	69911	,	-17474	,	-14042	,	12.974274	,	11
13,57	,	69927	,	-17469	,	-14036	,	11.960169	,	8
13,57	,	69943	,	-17471	,	-14030	,	10.925926	,	5
13,57	,	69975	,	-17469	,	-14042	,	9.8921385	,	3
13,57	,	69991	,	-17475	,	-14039	,	8.83125	,	1
13,57	,	70023	,	-17464	,	-14040	,	7.7185555	,	0
13,57	,	70039	,	-17472	,	-14040	,	6.6081033	,	0
13,57	,	70055	,	-17469	,	-14050	,	5.5572968	,	0
13,57	,	70087	,	-17471	,	-14034	,	4.555799	,	0
13,57	,	70103	,	-17479	,	-14044	,	3.5558424	,	0
13,57	,	70119	,	-17482	,	-14048	,	2.4536774	,	0
13,57	,	70151	,	-17490	,	-14047	,	1.1130188	,	0
13,57	,	70167	,	-17484	,	-14047	,	-0.5074345	,	0
13,57	,	70199	,	-17489	,	-14051	,	-2.262727	,	0
13,57	,	70215	,	-17485	,	-14050	,	-3.8938777	,	0
13,57	,	70231	,	-17493	,	-14052	,	-5.196992	,	0
13,57	,	70263	,	-17493	,	-14047	,	-6.1195803	,	0
13,57	,	70279	,	-17506	,	-14050	,	-6.7660737	,	0
13,57	,	70295	,	-17502	,	-14061	,	-7.320162	,	0
13,57	,	70327	,	-17497	,	-14046	,	-7.8392625	,	0
13,58	,	70343	,	-17499	,	-14051	,	-8.156145	,	0
13,58	,	70359	,	-17507	,	-14057	,	-8.121492	,	0
13,58	,	70391	,	-17516	,	-14052	,	-7.8491435	,	0
13,58	,	70407	,	-17520	,	-14056	,	-7.6410923	,	0
13,58	,	70439	,	-17516	,	-14056	,	-7.711279	,	0
13,58	,	70455	,	-17514	,	-14055	,	-7.987989	,	0
13,58	,	70471	,	-17521	,	-14057	,	-8.232807	,	0
13,58	,	70503	,	-17541	,	-14057	,	-8.402328	,	0
13,58	,	70519	,	-17524	,	-14060	,	-8.68735	,	0
13,58	,	70535	,	-17533	,	-14066	,	-9.112682	,	0
13,58	,	70567	,	-17528	,	-14055	,	-9.453394	,	0
13,58	,	70583	,	-17533	,	-14059	,	-9.51045	,	0
13,58	,	70615	,	-17522	,	-14058	,	-9.177492	,	0
13,58	,	70631	,	-17526	,	-14058	,	-8.377945	,	0
13,58	,	70647	,	-17520	,	-14059	,	-7.0998106	,	0
13,58	,	70679	,	-17519	,	-14056	,	-5.41948	,	1
13,58	,	70695	,	-17513	,	-14059	,	-3.4471564	,	2
13,58	,	70711	,	-17514	,	-14058	,	-1.309514	,	3
13,58	,	70743	,	-17523	,	-14054	,	0.7751055	,	5
13,58	,	70759	,	-17509	,	-14056	,	2.535292	,	7
13,58	,	70775	,	-17512	,	-14065	,	3.8590193	,	8
13,58	,	70807	,	-17501	,	-14054	,	4.8413744	,	9
13,58	,	70823	,	-17506	,	-14059	,	5.627472	,	9
13,58	,	70855	,	-17505	,	-14057	,	6.261962	,	9
13,58	,	70871	,	-17509	,	-14063	,	6.654764	,	8
13,58	,	70887	,	-17499	,	-14059	,	6.730321	,	7
13,58	,	70919	,	-17509	,	-14063	,	6.5214434	,	6
13,58	,	70935	,	-17511	,	-14060	,	6.0357895	,	4
13,58	,	70951	,	-17499	,	-14060	,	5.2601757	,	2
13,58	,	70983	,	-17505	,	-14056	,	4.3314533	,	1
13,58	,	70999	,	-17498	,	-14061	,	3.4625905	,	0
13,58	,	71031	,	-17513	,	-14065	,	2.7420502	,	0
13,58	,	71047	,	-17498	,	-14057	,	2.1264126	,	0
13,58	,	71063	,	-17504	,	-14057	,	1.6093351	,	0
13,58	,	71095	,	-17503	,	-14064	,	1.2416354	,	0
13,58	,	71111	,	-17497	,	-14057	,	1.0301666	,	0
13,58	,	71126	,	-17516	,	-14058	,	0.90942097	,	0
13,58	,	71159	,	-17514	,	-14063	,	0.66556126	,	0
13,58	,	71175	,	-17509	,	-14060	,	0.09689945	,	0
13,58	,	71191	,	-17517	,	-14062	,	-0.74507654	,	0
13,58	,	71223	,	-17518	,	-14061	,	-1.7166084	,	0
13,58	,	71239	,	-17528	,	-14068	,	-2.7759101	,	0
13,58	,	71271	,	-17535	,	-14069	,	-3.9859438	,	0
13,58	,	71287	,	-17528	,	-14066	,	-5.3931518	,	0
13,58	,	71303	,	-17529	,	-14064	,	-6.835177	,	0
13,58	,	71335	,	-17529	,	-14067	,	-7.9986176	,	0
13,59	,	71351	,	-17531	,	-14065	,	-8.661296	,	0
13,59	,	71366	,	-17538	,	-14070	,	-8.803423	,	0
13,59	,	71398	,	-17538	,	-14067	,	-8.570732	,	0
13,59	,	71414	,	-17552	,	-14076	,	-8.198858	,	0
13,59	,	71446	,	-17550	,	-14076	,	-7.9564586	,	0
13,59	,	71463	,	-17550	,	-14073	,	-7.993126	,	0
13,59	,	71479	,	-17555	,	-14073	,	-8.241934	,	0
13,59	,	71511	,	-17553	,	-14068	,	-8.551957	,	0
13,59	,	71527	,	-17553	,	-14069	,	-8.772307	,	0
13,59	,	71542	,	-17563	,	-14069	,	-8.797607	,	0
13,59	,	71574	,	-17557	,	-14075	,	-8.640798	,	0
13,59	,	71591	,	-17558	,	-14074	,	-8.322811	,	0
13,59	,	71622	,	-17547	,	-14070	,	-7.7467794	,	0
13,59	,	71638	,	-17548	,	-14072	,	-6.759128	,	0
13,59	,	71655	,	-17543	,	-14070	,	-5.285143	,	0
13,59	,	71687	,	-17542	,	-14063	,	-3.3902833	,	1
13,59	,	71703	,	-17535	,	-14062	,	-1.2196517	,	2
13,59	,	71719	,	-17529	,	-14067	,	1.0983229	,	4
13,59	,	71750	,	-17523	,	-14057	,	3.4937625	,	6
13,59	,	71766	,	-17524	,	-14064	,	5.890858	,	8
13,59	,	71782	,	-17518	,	-14059	,	8.134319	,	10
13,59	,	71814	,	-17510	,	-14058	,	10.079759	,	12
13,59	,	71830	,	-17507	,	-14059	,	11.701035	,	13
13,59	,	71862	,	-17505	,	-14055	,	13.011311	,	14
13,59	,	71878	,	-17512	,	-14054	,	13.917903	,	14
13,59	,	71895	,	-17509	,	-14057	,	14.220301	,	13
13,59	,	71927	,	-17505	,	-14061	,	13.802792	,	11
13,59	,	71942	,	-17506	,	-14053	,	12.761078	,	9
13,59	,	71959	,	-17496	,	-14054	,	11.335342	,	7
13,59	,	71990	,	-17506	,	-14049	,	9.794445	,	5
13,59	,	72006	,	-17501	,	-14056	,	8.295998	,	3
13,59	,	72038	,	-17506	,	-14056	,	6.863103	,	2
13,59	,	72054	,	-17508	,	-14060	,	5.467716	,	1
13,59	,	72070	,	-17504	,	-14056	,	4.08607	,	0
13,59	,	72103	,	-17517	,	-14054	,	2.713561	,	0
13,59	,	72118	,	-17505	,	-14055	,	1.3465414	,	0
13,59	,	72134	,	-17512	,	-14058	,	0.04846084	,	0
13,59	,	72166	,	-17523	,	-14059	,	-1.119563	,	0
13,59	,	72182	,	-17508	,	-14062	,	-2.1926599	,	0
13,59	,	72198	,	-17509	,	-14069	,	-3.0829093	,	0
13,59	,	72230	,	-17519	,	-14053	,	-3.6154573	,	0
13,59	,	72246	,	-17524	,	-14066	,	-3.8569412	,	0
13,59	,	72279	,	-17524	,	-14062	,	-4.05344	,	0
13,59	,	72294	,	-17533	,	-14066	,	-4.388132	,	0
13,59	,	72310	,	-17529	,	-14066	,	-4.9327793	,	0
14,0	,	72342	,	-17532	,	-14057	,	-5.629057	,	0
14,0	,	72358	,	-17540	,	-14060	,	-6.3581686	,	0
14,0	,	72374	,	-17542	,	-14064	,	-7.0924597	,	0
14,0	,	72406	,	-17545	,	-14070	,	-7.8521433	,	0
14,0	,	72422	,	-17540	,	-14068	,	-8.5607395	,	0
14,0	,	72454	,	-17550	,	-14073	,	-9.069614	,	0
14,0	,	72470	,	-17547	,	-14064	,	-9.306515	,	0
14,0	,	72486	,	-17562	,	-14073	,	-9.344513	,	0
14,0	,	72518	,	-17559	,	-14073	,	-9.357126	,	0
14,0	,	72534	,	-17557	,	-14068	,	-9.448407	,	0
14,0	,	72550	,	-17574	,	-14071	,	-9.597939	,	0
14,0	,	72582	,	-17566	,	-14062	,	-9.817381	,	0
14,0	,	72598	,	-17562	,	-14067	,	-10.052758	,	0
14,0	,	72614	,	-17566	,	-14065	,	-10.072178	,	0
14,0	,	72646	,	-17567	,	-14069	,	-9.709422	,	0
14,0	,	72662	,	-17572	,	-14073	,	-9.012104	,	0
14,0	,	72694	,	-17564	,	-14073	,	-8.108208	,	0
14,0	,	72710	,	-17571	,	-14065	,	-7.0770416	,	0
14,0	,	72726	,	-17550	,	-14072	,	-5.8980627	,	1
14,0	,	72758	,	-17545	,	-14065	,	-4.3753886	,	2
14,0	,	72774	,	-17546	,	-14061	,	-2.2896836	,	3
14,0	,	72790	,	-17545	,	-14059	,	0.27695346	,	5
14,0	,	72822	,	-17525	,	-14057	,	3.0595784	,	7
14,0	,	72838	,	-17529	,	-14058	,	5.927057	,	9
14,0	,	72870	,	-17524	,	-14052	,	8.769923	,	11
14,0	,	72886	,	-17521	,	-14051	,	11.343323	,	13
14,0	,	72902	,	-17521	,	-14040	,	13.392257	,	15
14,0	,	72934	,	-17520	,	-14047	,	14.732857	,	16
14,0	,	72950	,	-17517	,	-14034	,	15.269918	,	16
14,0	,	72966	,	-17514	,	-14045	,	15.0497465	,	15
14,0	,	72998	,	-17516	,	-14038	,	14.224346	,	13
14,0	,	73014	,	-17513	,	-14032	,	12.957729	,	11
14,0	,	73030	,	-17507	,	-14027	,	11.43544	,	9
14,0	,	73062	,	-17514	,	-14027	,	9.866889	,	7
14,0	,	73078	,	-17507	,	-14028	,	8.384984	,	5
14,0	,	73110	,	-17511	,	-14034	,	7.040165	,	3
14,0	,	73126	,	-17511	,	-14030	,	5.834452	,	1
14,0	,	73142	,	-17506	,	-14037	,	4.7470427	,	0
14,0	,	73174	,	-17516	,	-14043	,	3.7732973	,	0
14,0	,	73190	,	-17518	,	-14024	,	2.8417645	,	0
14,0	,	73206	,	-17528	,	-14038	,	1.7750745	,	0
14,0	,	73238	,	-17520	,	-14031	,	0.4454552	,	0
14,0	,	73254	,	-17519	,	-14029	,	-1.0422237	,	0
14,0	,	73286	,	-17525	,	-14035	,	-2.4208374	,	0
14,0	,	73302	,	-17529	,	-14035	,	-3.5417576	,	0
14,0	,	73318	,	-17522	,	-14034	,	-4.4008226	,	0
14,1	,	73350	,	-17531	,	-14032	,	-4.982526	,	0
14,1	,	73366	,	-17537	,	-14030	,	-5.3314815	,	0
14,1	,	73382	,	-17522	,	-14031	,	-5.5440626	,	0
14,1	,	73414	,	-17533	,	-14042	,	-5.5824966	,	0
14,1	,	73430	,	-17529	,	-14025	,	-5.3731165	,	0
14,1	,	73446	,	-17534	,	-14034	,	-4.9622374	,	0
14,1	,	73478	,	-17542	,	-14036	,	-4.495572	,	0
14,1	,	73494	,	-17539	,	-14043	,	-4.1688433	,	0
14,1	,	73526	,	-17533	,	-14038	,	-4.051307	,	0
14,1	,	73542	,	-17541	,	-14042	,	-4.023466	,	0
14,1	,	73558	,	-17543	,	-14042	,	-3.9997537	,	0
14,1	,	73590	,	-17552	,	-14040	,	-4.0546565	,	0
14,1	,	73606	,	-17549	,	-14044	,	-4.311704	,	0
14,1	,	73622	,	-17546	,	-14045	,	-4.7585506	,	0
14,1	,	73654	,	-17539	,	-14044	,	-5.171433	,	0
14,1	,	73670	,	-17553	,	-14040	,	-5.3122935	,	0
14,1	,	73702	,	-17554	,	-14045	,	-5.194115	,	0
14,1	,	73718	,	-17567	,	-14044	,	-5.069748	,	0
14,1	,	73734	,	-17559	,	-14053	,	-5.1921425	,	0
14,1	,	73766	,	-17569	,	-14047	,	-5.621339	,	0
14,1	,	73782	,	-17538	,	-14053	,	-6.131957	,	0
14,1	,	73798	,	-17541	,	-14046	,	-6.202877	,	0
14,1	,	73829	,	-17530	,	-14050	,	-5.318697	,	0
14,1	,	73845	,	-17538	,	-14049	,	-3.376362	,	0
14,1	,	73861	,	-17536	,	-14047	,	-0.7353995	,	1
14,1	,	73894	,	-17532	,	-14051	,	2.0573747	,	3
14,1	,	73910	,	-17524	,	-14043	,	4.612104	,	5
14,1	,	73942	,	-17518	,	-14045	,	6.816034	,	7
14,1	,	73957	,	-17515	,	-14049	,	8.700726	,	9
14,1	,	73974	,	-17504	,	-14044	,	10.324468	,	10
14,1	,	74005	,	-17514	,	-14042	,	11.704179	,	11
14,1	,	74021	,	-17517	,	-14044	,	12.681827	,	12
14,1	,	74038	,	-17519	,	-14043	,	12.961505	,	12
14,1	,	74069	,	-17518	,	-14038	,	12.376287	,	11
14,1	,	74085	,	-17511	,	-14042	,	11.035696	,	9
14,1	,	74117	,	-17511	,	-14038	,	9.263782	,	7
14,1	,	74134	,	-17505	,	-14039	,	7.4433527	,	5
14,1	,	74150	,	-17512	,	-14040	,	5.860098	,	3
14,1	,	74182	,	-17499	,	-14033	,	4.6560297	,	2
14,1	,	74198	,	-17502	,	-14036	,	3.9083781	,	1
14,1	,	74214	,	-17510	,	-14039	,	3.5893738	,	0
14,1	,	74245	,	-17499	,	-14039	,	3.516793	,	0
14,1	,	74261	,	-17508	,	-14038	,	3.520153	,	0
14,1	,	74293	,	-17500	,	-14038	,	3.5058045	,	0
14,1	,	74310	,	-17501	,	-14037	,	3.4339278	,	0
14,1	,	74326	,	-17505	,	-14040	,	3.3127732	,	0
14,2	,	74357	,	-17505	,	-14048	,	3.1122885	,	0
14,2	,	74373	,	-17507	,	-14028	,	2.768714	,	0
14,2	,	74389	,	-17512	,	-14038	,	2.2335315	,	0
14,2	,	74421	,	-17506	,	-14047	,	1.4914851	,	0
14,2	,	74437	,	-17515	,	-14042	,	0.5958046	,	0
14,2	,	74453	,	-17508	,	-14044	,	-0.36196184	,	0
14,2	,	74486	,	-17505	,	-14044	,	-1.243359	,	0
14,2	,	74502	,	-17513	,	-14043	,	-1.8881166	,	0
14,2	,	74533	,	-17513	,	-14037	,	-2.2723217	,	0
14,2	,	74549	,	-17515	,	-14048	,	-2.498128	,	0
14,2	,	74565	,	-17513	,	-14041	,	-2.6430368	,	0
14,2	,	74597	,	-17525	,	-14051	,	-2.767013	,	0
14,2	,	74613	,	-17522	,	-14036	,	-2.982799	,	0
14,2	,	74629	,	-17528	,	-14049	,	-3.3852487	,	0
14,2	,	74661	,	-17522	,	-14045	,	-3.950851	,	0
14,2	,	74677	,	-17521	,	-14050	,	-4.522104	,	0
14,2	,	74709	,	-17531	,	-14046	,	-4.9267225	,	0
14,2	,	74725	,	-17529	,	-14043	,	-5.145879	,	0
14,2	,	74741	,	-17522	,	-14047	,	-5.2146473	,	0
14,2	,	74773	,	-17534	,	-14042	,	-5.103141	,	0
14,2	,	74790	,	-17520	,	-14049	,	-4.804785	,	0
14,2	,	74805	,	-17521	,	-14044	,	-4.2851086	,	0
14,2	,	74837	,	-17522	,	-14055	,	-3.4736986	,	0
14,2	,	74853	,	-17512	,	-14031	,	-2.381985	,	0
14,2	,	74869	,	-17509	,	-14044	,	-1.0264161	,	1
14,2	,	74901	,	-17509	,	-14046	,	0.5861466	,	2
14,2	,	74917	,	-17512	,	-14044	,	2.3117018	,	3
14,2	,	74949	,	-17498	,	-14041	,	3.9400818	,	4
14,2	,	74965	,	-17503	,	-14043	,	5.380497	,	5
14,2	,	74981	,	-17506	,	-14043	,	6.5692663	,	6
14,2	,	75013	,	-17512	,	-14042	,	7.3101406	,	7
14,2	,	75029	,	-17511	,	-14047	,	7.3871737	,	7
14,2	,	75045	,	-17512	,	-14048	,	6.7538357	,	7
14,2	,	75077	,	-17512	,	-14056	,	5.559312	,	6
14,2	,	75093	,	-17504	,	-14035	,	4.082284	,	5
14,2	,	75125	,	-17506	,	-14039	,	2.6554923	,	4
14,2	,	75141	,	-17511	,	-14042	,	1.5036252	,	3
14,2	,	75157	,	-17510	,	-14039	,	0.6406336	,	2
14,2	,	75189	,	-17512	,	-14038	,	-0.013110399	,	1
14,2	,	75205	,	-17500	,	-14045	,	-0.45986092	,	0
14,2	,	75221	,	-17514	,	-14042	,	-0.6308972	,	0
14,2	,	75253	,	-17513	,	-14046	,	-0.5848216	,	0
14,2	,	75269	,	-17510	,	-14039	,	-0.503852	,	0
14,2	,	75285	,	-17513	,	-14043	,	-0.4832858	,	0
14,2	,	75317	,	-17507	,	-14051	,	-0.50014764	,	0
14,2	,	75333	,	-17521	,	-14044	,	-0.53669286	,	0
14,3	,	75365	,	-17517	,	-14042	,	-0.6795759	,	0
14,3	,	75381	,	-17527	,	-14051	,	-1.0592855	,	0
14,3	,	75397	,	-17525	,	-14048	,	-1.7373242	,	0
14,3	,	75429	,	-17532	,	-14045	,	-2.6914697	,	0
14,3	,	75445	,	-17520	,	-14043	,	-3.787003	,	0
14,3	,	75461	,	-17532	,	-14042	,	-4.7938275	,	0
14,3	,	75493	,	-17530	,	-14056	,	-5.5533133	,	0
14,3	,	75509	,	-17540	,	-14054	,	-6.082984	,	0
14,3	,	75541	,	-17537	,	-14053	,	-6.493531	,	0
14,3	,	75557	,	-17534	,	-14053	,	-6.8232574	,	0
14,3	,	75573	,	-17551	,	-14042	,	-7.040534	,	0
14,3	,	75605	,	-17545	,	-14064	,	-7.2134557	,	0
14,3	,	75621	,	-17548	,	-14057	,	-7.4276333	,	0
14,3	,	75637	,	-17551	,	-14062	,	-7.646187	,	0
14,3	,	75669	,	-17555	,	-14061	,	-7.823351	,	0
14,3	,	75685	,	-17559	,	-14065	,	-7.976619	,	0
14,3	,	75701	,	-17559	,	-14060	,	-8.131665	,	0
14,3	,	75733	,	-17564	,	-14062	,	-8.284902	,	0
14,3	,	75749	,	-17571	,	-14066	,	-8.453151	,	0
14,3	,	75781	,	-17557	,	-14066	,	-8.63449	,	0
14,3	,	75797	,	-17562	,	-14076	,	-8.661771	,	0
14,3	,	75813	,	-17558	,	-14056	,	-8.311841	,	0
14,3	,	75845	,	-17559	,	-14057	,	-7.513271	,	0
14,3	,	75861	,	-17546	,	-14061	,	-6.2815995	,	0
14,3	,	75877	,	-17551	,	-14058	,	-4.615653	,	1
14,3	,	75909	,	-17543	,	-14055	,	-2.5752437	,	2
14,3	,	75925	,	-17535	,	-14052	,	-0.28039622	,	4
14,3	,	75957	,	-17535	,	-14048	,	2.1745281	,	6
14,3	,	75973	,	-17524	,	-14043	,	4.6904073	,	8
14,3	,	75989	,	-17521	,	-14043	,	7.166734	,	10
14,3	,	76021	,	-17516	,	-14045	,	9.521769	,	12
14,3	,	76037	,	-17511	,	-14051	,	11.654596	,	14
14,3	,	76053	,	-17523	,	-14037	,	13.390556	,	16
14,3	,	76085	,	-17513	,	-14037	,	14.467801	,	16
14,3	,	76101	,	-17506	,	-14040	,	14.760571	,	16
14,3	,	76117	,	-17505	,	-14035	,	14.434908	,	14
14,3	,	76149	,	-17506	,	-14025	,	13.730691	,	12
14,3	,	76165	,	-17494	,	-14033	,	12.8223295	,	10
14,3	,	76197	,	-17500	,	-14026	,	11.881406	,	8
14,3	,	76213	,	-17501	,	-14029	,	10.981993	,	6
14,3	,	76229	,	-17496	,	-14028	,	10.057278	,	4
14,3	,	76261	,	-17508	,	-14029	,	9.024269	,	2
14,3	,	76277	,	-17506	,	-14027	,	7.783773	,	1
14,3	,	76293	,	-17502	,	-14024	,	6.283564	,	0
14,3	,	76325	,	-17502	,	-14028	,	4.6501927	,	0
14,3	,	76341	,	-17510	,	-14027	,	3.0574868	,	0
14,4	,	76373	,	-17505	,	-14020	,	1.5736451	,	0
14,4	,	76388	,	-17503	,	-14026	,	0.26267433	,	0
14,4	,	76404	,	-17500	,	-14020	,	-0.7268858	,	0
14,4	,	76437	,	-17498	,	-14018	,	-1.2501888	,	0
14,4	,	76452	,	-17491	,	-14014	,	-1.2270372	,	0
14,4	,	76468	,	-17488	,	-14010	,	-0.62382525	,	0
14,4	,	76501	,	-17485	,	-14003	,	0.5240355	,	0
14,4	,	76517	,	-17475	,	-13995	,	2.1157975	,	1
14,4	,	76548	,	-17482	,	-13998	,	4.006303	,	2
14,4	,	76565	,	-17499	,	-14009	,	5.8440013	,	3
14,4	,	76581	,	-17502	,	-13999	,	7.013345	,	4
14,4	,	76613	,	-17495	,	-13998	,	7.054175	,	5
14,4	,	76628	,	-17490	,	-14004	,	6.057206	,	5
14,4	,	76644	,	-17507	,	-14001	,	4.427516	,	5
14,4	,	76676	,	-17511	,	-14009	,	2.3976474	,	5
14,4	,	76693	,	-17519	,	-14016	,	-0.012553215	,	5
14,4	,	76708	,	-17538	,	-14019	,	-2.8253684	,	4
14,4	,	76741	,	-17546	,	-14034	,	-6.1100945	,	3
14,4	,	76757	,	-17569	,	-14038	,	-9.956825	,	2
14,4	,	76789	,	-17581	,	-14053	,	-14.403801	,	1
14,4	,	76805	,	-17609	,	-14071	,	-19.43058	,	0
14,4	,	76821	,	-17613	,	-14087	,	-24.92279	,	0
14,4	,	76853	,	-17607	,	-14092	,	-30.462097	,	0
14,4	,	76868	,	-17619	,	-14098	,	-35.267216	,	0
14,4	,	76884	,	-17631	,	-14104	,	-38.659477	,	0
14,4	,	76916	,	-17635	,	-14115	,	-40.426853	,	0
14,4	,	76932	,	-17635	,	-14113	,	-40.63359	,	0
14,4	,	76964	,	-17627	,	-14123	,	-39.334953	,	0
14,4	,	76980	,	-17632	,	-14120	,	-36.56274	,	1
14,4	,	76996	,	-17626	,	-14113	,	-32.482918	,	3
14,4	,	77029	,	-17609	,	-14103	,	-27.353176	,	7
14,4	,	77044	,	-17623	,	-14104	,	-21.435911	,	12
14,4	,	77060	,	-17614	,	-14105	,	-15.167775	,	17
14,4	,	77092	,	-17600	,	-14094	,	-9.048968	,	23
14,4	,	77108	,	-17601	,	-14088	,	-3.3390398	,	29
14,4	,	77124	,	-17594	,	-14090	,	1.8262653	,	34
14,4	,	77156	,	-17597	,	-14086	,	6.252037	,	39
14,4	,	77172	,	-17587	,	-14077	,	9.754884	,	42
14,4	,	77205	,	-17561	,	-14072	,	12.397325	,	43
14,4	,	77220	,	-17566	,	-14073	,	14.553269	,	41
14,4	,	77236	,	-17563	,	-14065	,	16.494263	,	38
14,4	,	77268	,	-17553	,	-14057	,	18.165545	,	34
14,4	,	77284	,	-17545	,	-14053	,	19.483164	,	29
14,4	,	77300	,	-17547	,	-14047	,	20.449669	,	24
14,4	,	77332	,	-17542	,	-14043	,	21.00719	,	19
14,5	,	77348	,	-17541	,	-14042	,	21.052345	,	14
14,5	,	77380	,	-17540	,	-14044	,	20.531631	,	10
14,5	,	77396	,	-17534	,	-14034	,	19.475153	,	7
14,5	,	77412	,	-17535	,	-14030	,	18.004799	,	5
14,5	,	77444	,	-17534	,	-14041	,	16.265102	,	3
14,5	,	77460	,	-17532	,	-14044	,	14.366993	,	2
14,5	,	77476	,	-17537	,	-14024	,	12.395989	,	1
14,5	,	77508	,	-17519	,	-14030	,	10.471174	,	0
14,5	,	77524	,	-17518	,	-14024	,	8.851234	,	0
14,5	,	77540	,	-17521	,	-14024	,	7.787433	,	0
14,5	,	77572	,	-17526	,	-14029	,	7.2331457	,	0
14,5	,	77588	,	-17532	,	-14026	,	6.8618865	,	0
14,5	,	77620	,	-17529	,	-14034	,	6.3206882	,	0
14,5	,	77636	,	-17536	,	-14027	,	5.418745	,	0
14,5	,	77652	,	-17535	,	-14026	,	4.127783	,	0
14,5	,	77684	,	-17526	,	-14025	,	2.5780184	,	0
14,5	,	77700	,	-17534	,	-14031	,	1.0498598	,	0
14,5	,	77716	,	-17532	,	-14014	,	-0.22330129	,	0
14,5	,	77748	,	-17534	,	-14023	,	-1.1676378	,	0
14,5	,	77764	,	-17547	,	-14026	,	-1.8536458	,	0
14,5	,	77796	,	-17531	,	-14031	,	-2.4294217	,	0
14,5	,	77812	,	-17530	,	-14032	,	-2.8766031	,	0
14,5	,	77828	,	-17533	,	-14029	,	-3.0121708	,	0
14,5	,	77860	,	-17528	,	-14024	,	-2.7577176	,	0
14,5	,	77876	,	-17516	,	-14022	,	-2.0989761	,	0
14,5	,	77892	,	-17512	,	-14024	,	-0.9318508	,	0
14,5	,	77924	,	-17506	,	-14017	,	0.82824504	,	1
14,5	,	77940	,	-17495	,	-14024	,	3.138286	,	2
14,5	,	77972	,	-17491	,	-14016	,	5.876942	,	4
14,5	,	77988	,	-17482	,	-14009	,	8.868188	,	6
14,5	,	78004	,	-17466	,	-14002	,	11.942409	,	8
14,5	,	78036	,	-17472	,	-13995	,	14.9735985	,	11
14,5	,	78052	,	-17468	,	-14002	,	17.71912	,	14
14,5	,	78068	,	-17462	,	-14005	,	19.831692	,	16
14,5	,	78100	,	-17461	,	-14002	,	21.091263	,	18
14,5	,	78116	,	-17461	,	-13996	,	21.433727	,	18
14,5	,	78132	,	-17455	,	-13995	,	20.890915	,	17
14,5	,	78164	,	-17456	,	-13993	,	19.614687	,	15
14,5	,	78180	,	-17457	,	-13999	,	17.808918	,	13
14,5	,	78212	,	-17461	,	-13987	,	15.618726	,	11
14,5	,	78228	,	-17464	,	-14001	,	13.126068	,	8
14,5	,	78244	,	-17477	,	-14005	,	10.346451	,	5
14,5	,	78276	,	-17474	,	-14012	,	7.249171	,	3
14,5	,	78292	,	-17487	,	-14011	,	3.8703895	,	1
14,5	,	78308	,	-17486	,	-14015	,	0.3392625	,	0
14,5	,	78340	,	-17491	,	-14018	,	-3.1504908	,	0
14,6	,	78356	,	-17486	,	-14016	,	-6.321097	,	0
14,6	,	78388	,	-17498	,	-14017	,	-8.898602	,	0
14,6	,	78404	,	-17493	,	-14021	,	-10.753845	,	0
14,6	,	78420	,	-17488	,	-14017	,	-11.828292	,	0
14,6	,	78452	,	-17492	,	-14012	,	-12.0376	,	0
14,6	,	78468	,	-17496	,	-14013	,	-11.428017	,	0
14,6	,	78484	,	-17490	,	-14017	,	-10.22963	,	0
14,6	,	78516	,	-17501	,	-14016	,	-8.711831	,	1
14,6	,	78532	,	-17486	,	-14017	,	-7.091706	,	2
14,6	,	78548	,	-17497	,	-14015	,	-5.479622	,	3
14,6	,	78580	,	-17499	,	-14014	,	-3.9778752	,	4
14,6	,	78596	,	-17503	,	-14013	,	-2.7902546	,	5
14,6	,	78628	,	-17500	,	-14012	,	-2.0772188	,	6
14,6	,	78644	,	-17495	,	-14012	,	-1.7885854	,	6
14,6	,	78660	,	-17500	,	-14013	,	-1.7164453	,	6
14,6	,	78692	,	-17511	,	-14013	,	-1.7463639	,	6
14,6	,	78708	,	-17508	,	-14012	,	-1.966923	,	5
14,6	,	78724	,	-17513	,	-14008	,	-2.4724712	,	4
14,6	,	78756	,	-17506	,	-14020	,	-3.198526	,	3
14,6	,	78772	,	-17511	,	-14016	,	-3.9521646	,	2
14,6	,	78803	,	-17506	,	-14022	,	-4.5283327	,	1
14,6	,	78819	,	-17510	,	-14019	,	-4.797989	,	0
14,6	,	78836	,	-17504	,	-14014	,	-4.70749	,	0
14,6	,	78868	,	-17496	,	-14015	,	-4.204353	,	0
14,6	,	78884	,	-17485	,	-14019	,	-3.1618762	,	0
14,6	,	78900	,	-17483	,	-14011	,	-1.4429295	,	1
14,6	,	78932	,	-17486	,	-14006	,	0.8913851	,	2
14,6	,	78948	,	-17478	,	-14010	,	3.52276	,	4
14,6	,	78964	,	-17478	,	-14004	,	6.0864086	,	6
14,6	,	78996	,	-17478	,	-14011	,	8.302088	,	8
14,6	,	79011	,	-17484	,	-14003	,	9.912168	,	10
14,6	,	79044	,	-17470	,	-14009	,	10.744146	,	11
14,6	,	79060	,	-17484	,	-14008	,	10.820439	,	11
14,6	,	79076	,	-17473	,	-14009	,	10.261118	,	11
14,6	,	79107	,	-17468	,	-14004	,	9.263506	,	10
14,6	,	79123	,	-17468	,	-14004	,	8.145898	,	9
14,6	,	79139	,	-17469	,	-14001	,	7.1598444	,	7
14,6	,	79172	,	-17478	,	-14010	,	6.31751	,	5
14,6	,	79188	,	-17479	,	-14007	,	5.4352016	,	3
14,6	,	79220	,	-17470	,	-14006	,	4.3725266	,	1
14,6	,	79235	,	-17482	,	-14014	,	3.1835248	,	0
14,6	,	79252	,	-17475	,	-14008	,	1.9665482	,	0
14,6	,	79283	,	-17483	,	-14013	,	0.7713411	,	0
14,6	,	79299	,	-17473	,	-14005	,	-0.33260608	,	0
14,6	,	79315	,	-17483	,	-14012	,	-1.2491456	,	0
14,7	,	79348	,	-17480	,	-14013	,	-1.9322942	,	0
14,7	,	79363	,	-17485	,	-14013	,	-2.4193153	,	0
14,7	,	79379	,	-17494	,	-14008	,	-2.8260946	,	0
14,7	,	79411	,	-17492	,	-14021	,	-3.3247037	,	0
14,7	,	79427	,	-17499	,	-14014	,	-4.022528	,	0
14,7	,	79459	,	-17490	,	-14020	,	-4.8691406	,	0
14,7	,	79475	,	-17496	,	-14017	,	-5.6770434	,	0
14,7	,	79491	,	-17505	,	-14022	,	-6.292207	,	0
14,7	,	79524	,	-17501	,	-14012	,	-6.7342534	,	0
14,7	,	79539	,	-17498	,	-14021	,	-7.0267715	,	0
14,7	,	79555	,	-17513	,	-14020	,	-7.130635	,	0
14,7	,	79587	,	-17501	,	-14017	,	-7.090171	,	0
14,7	,	79603	,	-17504	,	-14022	,	-6.929783	,	0
14,7	,	79635	,	-17509	,	-14011	,	-6.5939035	,	0
14,7	,	79651	,	-17513	,	-14020	,	-6.1337976	,	0
14,7	,	79667	,	-17513	,	-14016	,	-5.6991425	,	0
14,7	,	79699	,	-17510	,	-14015	,	-5.357662	,	0
14,7	,	79715	,	-17517	,	-14017	,	-5.0755587	,	0
14,7	,	79731	,	-17514	,	-14014	,	-4.8272243	,	0
14,7	,	79764	,	-17501	,	-14014	,	-4.5367193	,	0
14,7	,	79780	,	-17519	,	-14012	,	-4.0593195	,	0
14,7	,	79795	,	-17511	,	-14013	,	-3.4214697	,	0
14,7	,	79827	,	-17505	,	-14013	,	-2.7548053	,	0
14,7	,	79843	,	-17503	,	-14017	,	-2.0234976	,	0
14,7	,	79875	,	-17494	,	-14005	,	-1.0828055	,	0
14,7	,	79891	,	-17496	,	-14007	,	0.1616751	,	0
14,7	,	79907	,	-17492	,	-14003	,	1.6760209	,	1
14,7	,	79939	,	-17484	,	-14002	,	3.3385706	,	2
14,7	,	79955	,	-17486	,	-14009	,	5.044967	,	3
14,7	,	79971	,	-17486	,	-14006	,	6.654495	,	4
14,7	,	80003	,	-17473	,	-14009	,	8.0056505	,	5
14,7	,	80019	,	-17472	,	-14001	,	9.084416	,	6
14,7	,	80051	,	-17481	,	-14001	,	9.92042	,	7
14,7	,	80067	,	-17477	,	-14004	,	10.382712	,	7
14,7	,	80083	,	-17474	,	-14012	,	10.330948	,	7
14,7	,	80115	,	-17473	,	-13989	,	9.807901	,	6
14,7	,	80131	,	-17473	,	-14001	,	8.962305	,	5
14,7	,	80147	,	-17454	,	-13996	,	8.016667	,	4
14,7	,	80179	,	-17472	,	-14002	,	7.247549	,	3
14,7	,	80195	,	-17470	,	-14002	,	6.710382	,	2
14,7	,	80211	,	-17475	,	-14000	,	6.1718397	,	1
14,7	,	80243	,	-17482	,	-14002	,	5.3660684	,	0
14,7	,	80259	,	-17484	,	-14003	,	4.118743	,	0
14,7	,	80291	,	-17486	,	-14007	,	2.3987937	,	0
14,7	,	80307	,	-17484	,	-14001	,	0.37079525	,	0
14,7	,	80323	,	-17479	,	-14010	,	-1.6410073	,	0
14,8	,	80355	,	-17493	,	-14000	,	-3.33064	,	0
14,8	,	80371	,	-17486	,	-14000	,	-4.6005635	,	0
14,8	,	80387	,	-17504	,	-14009	,	-5.537775	,	0
14,8	,	80419	,	-17487	,	-14006	,	-6.269056	,	0
14,8	,	80435	,	-17503	,	-14008	,	-6.829897	,	0
14,8	,	80467	,	-17498	,	-14009	,	-7.203721	,	0
14,8	,	80483	,	-17501	,	-14005	,	-7.4063587	,	0
14,8	,	80499	,	-17514	,	-14010	,	-7.4978724	,	0
14,8	,	80531	,	-17510	,	-14014	,	-7.6224356	,	0
14,8	,	80547	,	-17518	,	-14014	,	-7.8990765	,	0
14,8	,	80563	,	-17513	,	-14017	,	-8.298019	,	0
14,8	,	80595	,	-17518	,	-14001	,	-8.686923	,	0
14,8	,	80611	,	-17514	,	-14007	,	-8.90974	,	0
14,8	,	80627	,	-17517	,	-14010	,	-8.843158	,	0
14,8	,	80659	,	-17525	,	-14006	,	-8.474907	,	0
14,8	,	80675	,	-17525	,	-14010	,	-7.948296	,	0
14,8	,	80707	,	-17527	,	-14011	,	-7.4362855	,	0
14,8	,	80723	,	-17531	,	-14003	,	-7.0321984	,	0
14,8	,	80739	,	-17530	,	-14008	,	-6.770644	,	0
