Data recorded on Tue Jul 25 09-58-29 CAT 2017
Time: 9:59:7
Time		Millis		IR PPG		Red PPG		Filtered		SSF
59,16	,	117017	,	-26705	,	-24944	,	-43.07514	,	0
59,16	,	117033	,	-26732	,	-24961	,	-41.948387	,	0
59,16	,	117049	,	-26737	,	-24975	,	-40.308388	,	1
59,16	,	117081	,	-26742	,	-24971	,	-38.690544	,	2
59,16	,	117097	,	-26762	,	-24964	,	-37.318268	,	3
59,16	,	117129	,	-26728	,	-24955	,	-36.097282	,	4
59,16	,	117145	,	-26665	,	-24919	,	-34.17086	,	5
59,16	,	117161	,	-26607	,	-24902	,	-29.664125	,	6
59,16	,	117193	,	-26570	,	-24891	,	-20.655704	,	10
59,16	,	117209	,	-26542	,	-24877	,	-6.496542	,	19
59,16	,	117225	,	-26526	,	-24885	,	11.771	,	33
59,16	,	117257	,	-26517	,	-24850	,	31.866385	,	50
59,16	,	117273	,	-26511	,	-24849	,	51.04643	,	69
59,16	,	117305	,	-26496	,	-24856	,	66.90431	,	87
59,16	,	117321	,	-26513	,	-24869	,	77.82107	,	101
59,16	,	117337	,	-26536	,	-24878	,	82.80239	,	110
59,16	,	117369	,	-26528	,	-24871	,	81.41471	,	113
59,16	,	117385	,	-26524	,	-24865	,	74.23973	,	109
59,16	,	117401	,	-26525	,	-24861	,	62.897682	,	100
59,16	,	117433	,	-26515	,	-24863	,	49.4252	,	86
59,16	,	117449	,	-26511	,	-24852	,	35.78642	,	68
59,16	,	117465	,	-26509	,	-24873	,	23.56838	,	48
59,16	,	117497	,	-26524	,	-24865	,	13.660368	,	29
59,16	,	117513	,	-26538	,	-24877	,	6.10977	,	14
59,16	,	117545	,	-26559	,	-24895	,	0.304595	,	4
59,16	,	117561	,	-26570	,	-24889	,	-4.6081796	,	0
59,16	,	117577	,	-26589	,	-24898	,	-9.326949	,	0
59,16	,	117609	,	-26604	,	-24906	,	-14.244719	,	0
59,16	,	117625	,	-26608	,	-24902	,	-19.422596	,	0
59,16	,	117641	,	-26626	,	-24910	,	-24.607967	,	0
59,16	,	117673	,	-26639	,	-24924	,	-29.465141	,	0
59,16	,	117689	,	-26654	,	-24930	,	-33.787483	,	0
59,16	,	117721	,	-26676	,	-24939	,	-37.51575	,	0
59,16	,	117737	,	-26681	,	-24950	,	-40.67778	,	0
59,16	,	117753	,	-26702	,	-24965	,	-43.273582	,	0
59,16	,	117785	,	-26738	,	-24971	,	-45.402855	,	0
59,16	,	117801	,	-26764	,	-25005	,	-47.50134	,	0
59,16	,	117817	,	-26801	,	-25028	,	-50.176304	,	0
59,16	,	117849	,	-26817	,	-25053	,	-53.826305	,	0
59,16	,	117865	,	-26846	,	-25092	,	-58.41448	,	0
59,16	,	117897	,	-26889	,	-25137	,	-63.647964	,	0
59,16	,	117913	,	-26918	,	-25158	,	-69.34094	,	0
59,16	,	117929	,	-26928	,	-25189	,	-75.26406	,	0
59,16	,	117960	,	-26929	,	-25177	,	-80.70477	,	0
59,16	,	117977	,	-26883	,	-25177	,	-84.28746	,	0
59,16	,	117993	,	-26750	,	-25131	,	-83.62151	,	0
59,17	,	118025	,	-26713	,	-25073	,	-75.5129	,	0
59,17	,	118041	,	-26678	,	-25082	,	-58.01117	,	8
59,17	,	118057	,	-26655	,	-25049	,	-32.132526	,	25
59,17	,	118089	,	-26631	,	-25010	,	-1.2132721	,	50
59,17	,	118105	,	-26599	,	-24990	,	30.714754	,	80
59,17	,	118137	,	-26579	,	-24976	,	60.1196	,	111
59,17	,	118155	,	-26558	,	-24967	,	84.45992	,	140
59,17	,	118169	,	-26571	,	-24965	,	102.08882	,	164
59,17	,	118200	,	-26582	,	-24953	,	111.953445	,	181
59,17	,	118217	,	-26564	,	-24938	,	113.70331	,	190
59,17	,	118233	,	-26545	,	-24922	,	108.23067	,	183
59,17	,	118265	,	-26546	,	-24912	,	97.561615	,	166
59,17	,	118281	,	-26531	,	-24918	,	84.001686	,	141
59,17	,	118312	,	-26536	,	-24925	,	69.53308	,	111
59,17	,	118328	,	-26545	,	-24919	,	55.52972	,	80
59,17	,	118345	,	-26562	,	-24919	,	42.59201	,	51
59,17	,	118376	,	-26560	,	-24927	,	30.795124	,	27
59,17	,	118393	,	-26584	,	-24933	,	20.082067	,	10
59,17	,	118408	,	-26598	,	-24947	,	10.303543	,	1
59,17	,	118441	,	-26616	,	-24941	,	1.197114	,	0
59,17	,	118456	,	-26624	,	-24968	,	-7.402685	,	0
59,17	,	118472	,	-26663	,	-24972	,	-15.539143	,	0
59,17	,	118505	,	-26677	,	-24967	,	-23.34534	,	0
59,17	,	118521	,	-26698	,	-24988	,	-30.951477	,	0
59,17	,	118552	,	-26701	,	-24982	,	-38.180237	,	0
59,17	,	118568	,	-26715	,	-24986	,	-44.5272	,	0
59,17	,	118584	,	-26736	,	-24993	,	-49.49305	,	0
59,17	,	118616	,	-26732	,	-24999	,	-52.831436	,	0
59,17	,	118632	,	-26740	,	-24999	,	-54.39791	,	0
59,17	,	118648	,	-26761	,	-25019	,	-54.161194	,	0
59,17	,	118681	,	-26764	,	-24999	,	-52.43957	,	0
59,17	,	118697	,	-26775	,	-25022	,	-49.7389	,	1
59,17	,	118729	,	-26811	,	-25034	,	-46.624016	,	3
59,17	,	118744	,	-26829	,	-25034	,	-43.876236	,	6
59,17	,	118761	,	-26836	,	-25041	,	-42.20922	,	8
59,17	,	118792	,	-26849	,	-25054	,	-41.783672	,	9
59,17	,	118808	,	-26829	,	-25029	,	-42.1325	,	9
59,17	,	118824	,	-26777	,	-25002	,	-42.06687	,	9
59,17	,	118857	,	-26698	,	-24969	,	-39.512943	,	9
59,17	,	118872	,	-26646	,	-24942	,	-32.055466	,	11
59,17	,	118904	,	-26607	,	-24943	,	-18.236576	,	17
59,17	,	118920	,	-26587	,	-24907	,	1.4713879	,	28
59,17	,	118936	,	-26579	,	-24909	,	24.755718	,	44
59,17	,	118968	,	-26559	,	-24912	,	48.360405	,	65
59,17	,	118984	,	-26551	,	-24904	,	69.19945	,	87
59,17	,	119000	,	-26557	,	-24908	,	84.97956	,	107
59,18	,	119032	,	-26574	,	-24911	,	94.18927	,	122
59,18	,	119048	,	-26600	,	-24918	,	95.98567	,	131
59,18	,	119064	,	-26590	,	-24918	,	90.39285	,	130
59,18	,	119097	,	-26565	,	-24909	,	78.765854	,	123
59,18	,	119113	,	-26567	,	-24905	,	63.662815	,	110
59,18	,	119144	,	-26558	,	-24927	,	47.80682	,	91
59,18	,	119160	,	-26565	,	-24903	,	33.216503	,	68
59,18	,	119176	,	-26584	,	-24917	,	20.924252	,	45
59,18	,	119208	,	-26596	,	-24918	,	10.994528	,	25
59,18	,	119224	,	-26610	,	-24924	,	2.9175215	,	10
59,18	,	119240	,	-26617	,	-24938	,	-3.8733473	,	1
59,18	,	119272	,	-26641	,	-24952	,	-9.803816	,	0
59,18	,	119288	,	-26647	,	-24936	,	-15.20314	,	0
59,18	,	119320	,	-26666	,	-24956	,	-20.273552	,	0
59,18	,	119336	,	-26678	,	-24977	,	-25.062649	,	0
59,18	,	119352	,	-26689	,	-24971	,	-29.518328	,	0
59,18	,	119384	,	-26711	,	-24996	,	-33.545654	,	0
59,18	,	119400	,	-26720	,	-24968	,	-37.090824	,	0
59,18	,	119416	,	-26749	,	-25004	,	-40.19091	,	0
59,18	,	119448	,	-26761	,	-25002	,	-42.983067	,	0
59,18	,	119464	,	-26773	,	-25010	,	-45.57111	,	0
59,18	,	119480	,	-26775	,	-25010	,	-47.799194	,	0
59,18	,	119512	,	-26781	,	-25006	,	-49.26433	,	0
59,18	,	119528	,	-26805	,	-25022	,	-49.650215	,	0
59,18	,	119560	,	-26816	,	-25029	,	-49.054733	,	0
59,18	,	119576	,	-26828	,	-25027	,	-47.866005	,	0
59,18	,	119592	,	-26844	,	-25032	,	-46.447052	,	1
59,18	,	119624	,	-26855	,	-25073	,	-45.063084	,	2
59,18	,	119640	,	-26847	,	-25037	,	-43.783783	,	3
59,18	,	119656	,	-26756	,	-25000	,	-41.891445	,	4
59,18	,	119688	,	-26688	,	-24965	,	-37.328842	,	5
59,18	,	119704	,	-26657	,	-24955	,	-27.684534	,	9
59,18	,	119736	,	-26635	,	-24955	,	-12.136257	,	18
59,18	,	119752	,	-26631	,	-24942	,	7.880125	,	33
59,18	,	119768	,	-26628	,	-24938	,	29.448723	,	53
59,18	,	119800	,	-26616	,	-24947	,	49.360504	,	73
59,18	,	119816	,	-26620	,	-24945	,	65.076294	,	91
59,18	,	119832	,	-26622	,	-24956	,	75.05961	,	105
59,18	,	119864	,	-26644	,	-24974	,	78.647644	,	113
59,18	,	119880	,	-26657	,	-24947	,	75.85389	,	115
59,18	,	119896	,	-26651	,	-24962	,	67.40224	,	111
59,18	,	119928	,	-26642	,	-24949	,	54.905094	,	102
59,18	,	119944	,	-26650	,	-24958	,	40.54004	,	87
59,18	,	119976	,	-26656	,	-24950	,	26.261993	,	67
59,18	,	119992	,	-26643	,	-24951	,	13.447447	,	46
59,18	,	120008	,	-26658	,	-24962	,	3.0015354	,	27
59,19	,	120040	,	-26674	,	-24961	,	-4.77765	,	12
59,19	,	120056	,	-26678	,	-24979	,	-10.263746	,	3
59,19	,	120072	,	-26685	,	-24973	,	-14.061071	,	0
59,19	,	120104	,	-26700	,	-25011	,	-16.684845	,	0
59,19	,	120120	,	-26704	,	-24965	,	-18.578417	,	0
59,19	,	120152	,	-26740	,	-24987	,	-20.195934	,	0
59,19	,	120168	,	-26742	,	-25001	,	-22.052755	,	0
59,19	,	120184	,	-26760	,	-24998	,	-24.495838	,	0
59,19	,	120216	,	-26768	,	-25013	,	-27.48518	,	0
59,19	,	120232	,	-26776	,	-25017	,	-30.703617	,	0
59,19	,	120248	,	-26794	,	-25017	,	-33.763233	,	0
59,19	,	120280	,	-26817	,	-25030	,	-36.471127	,	0
59,19	,	120296	,	-26823	,	-25017	,	-38.887638	,	0
59,19	,	120328	,	-26832	,	-25028	,	-41.02091	,	0
59,19	,	120344	,	-26848	,	-25062	,	-42.711723	,	0
59,19	,	120360	,	-26858	,	-25039	,	-43.8386	,	0
59,19	,	120392	,	-26871	,	-25062	,	-44.40335	,	0
59,19	,	120408	,	-26866	,	-25060	,	-44.390854	,	0
59,19	,	120424	,	-26827	,	-25033	,	-43.425034	,	0
59,19	,	120456	,	-26770	,	-25004	,	-40.40216	,	0
59,19	,	120472	,	-26698	,	-24974	,	-33.60601	,	3
59,19	,	120488	,	-26640	,	-24945	,	-21.424269	,	9
59,19	,	120520	,	-26626	,	-24937	,	-3.41918	,	21
59,19	,	120536	,	-26621	,	-24945	,	18.867096	,	39
59,19	,	120568	,	-26597	,	-24928	,	42.355812	,	61
59,19	,	120584	,	-26590	,	-24938	,	63.827034	,	84
59,19	,	120600	,	-26590	,	-24910	,	80.799324	,	105
59,19	,	120631	,	-26585	,	-24931	,	91.684975	,	121
59,19	,	120647	,	-26609	,	-24926	,	95.768814	,	131
59,19	,	120664	,	-26607	,	-24930	,	93.08033	,	132
59,19	,	120696	,	-26596	,	-24929	,	84.47927	,	126
59,19	,	120712	,	-26592	,	-24924	,	71.74983	,	114
59,19	,	120744	,	-26582	,	-24913	,	57.131817	,	96
59,19	,	120760	,	-26586	,	-24917	,	42.65573	,	74
59,19	,	120776	,	-26589	,	-24926	,	29.71099	,	51
59,19	,	120807	,	-26589	,	-24923	,	18.959406	,	30
59,19	,	120823	,	-26618	,	-24939	,	10.436953	,	14
59,19	,	120839	,	-26623	,	-24916	,	3.6392431	,	4
59,19	,	120872	,	-26644	,	-24947	,	-2.1614122	,	0
59,19	,	120888	,	-26670	,	-24949	,	-7.6192355	,	0
59,19	,	120904	,	-26680	,	-24954	,	-13.252178	,	0
59,19	,	120936	,	-26692	,	-24967	,	-19.23869	,	0
59,19	,	120952	,	-26698	,	-24985	,	-25.295137	,	0
59,19	,	120983	,	-26721	,	-24980	,	-30.94605	,	0
59,19	,	120999	,	-26728	,	-24994	,	-35.85061	,	0
59,19	,	121015	,	-26752	,	-24987	,	-39.873726	,	0
59,20	,	121047	,	-26752	,	-24994	,	-42.986588	,	0
59,20	,	121063	,	-26762	,	-25012	,	-45.11624	,	0
59,20	,	121080	,	-26783	,	-24992	,	-46.18728	,	0
59,20	,	121112	,	-26799	,	-25021	,	-46.38075	,	0
59,20	,	121128	,	-26804	,	-25045	,	-46.060524	,	0
59,20	,	121159	,	-26810	,	-25037	,	-45.41613	,	0
59,20	,	121175	,	-26831	,	-25040	,	-44.467133	,	0
59,20	,	121191	,	-26841	,	-25057	,	-43.332245	,	0
59,20	,	121224	,	-26850	,	-25034	,	-42.205376	,	1
59,20	,	121240	,	-26835	,	-25030	,	-41.046608	,	2
59,20	,	121255	,	-26781	,	-25001	,	-39.179535	,	3
59,20	,	121287	,	-26708	,	-24980	,	-35.001488	,	4
59,20	,	121303	,	-26648	,	-24960	,	-26.419134	,	8
59,20	,	121319	,	-26608	,	-24929	,	-12.054255	,	16
59,20	,	121351	,	-26569	,	-24915	,	7.8294945	,	30
59,20	,	121367	,	-26553	,	-24905	,	31.363457	,	49
59,20	,	121400	,	-26531	,	-24902	,	55.714977	,	72
59,20	,	121416	,	-26536	,	-24899	,	77.825836	,	95
59,20	,	121432	,	-26519	,	-24891	,	95.05912	,	116
59,20	,	121463	,	-26535	,	-24907	,	105.66374	,	132
59,20	,	121479	,	-26556	,	-24911	,	108.78918	,	141
59,20	,	121495	,	-26562	,	-24911	,	104.331604	,	140
59,20	,	121527	,	-26557	,	-24905	,	93.162445	,	132
59,20	,	121543	,	-26555	,	-24919	,	77.217834	,	118
59,20	,	121575	,	-26543	,	-24900	,	59.01892	,	99
59,20	,	121591	,	-26554	,	-24906	,	40.996445	,	76
59,20	,	121608	,	-26563	,	-24909	,	24.874775	,	52
59,20	,	121639	,	-26561	,	-24911	,	11.484234	,	30
59,20	,	121655	,	-26581	,	-24914	,	1.0195522	,	13
59,20	,	121671	,	-26595	,	-24923	,	-6.8203564	,	3
59,20	,	121703	,	-26605	,	-24943	,	-12.6898575	,	0
59,20	,	121719	,	-26637	,	-24931	,	-17.333818	,	0
59,20	,	121735	,	-26650	,	-24945	,	-21.493532	,	0
59,20	,	121767	,	-26659	,	-24952	,	-25.693039	,	0
59,20	,	121783	,	-26671	,	-24976	,	-29.983093	,	0
59,20	,	121815	,	-26698	,	-24962	,	-34.160824	,	0
59,20	,	121831	,	-26720	,	-24984	,	-38.17381	,	0
59,20	,	121847	,	-26726	,	-24988	,	-42.079197	,	0
59,20	,	121879	,	-26753	,	-24999	,	-45.785133	,	0
59,20	,	121895	,	-26760	,	-25027	,	-49.100624	,	0
59,20	,	121911	,	-26782	,	-25016	,	-51.86609	,	0
59,20	,	121943	,	-26790	,	-25036	,	-53.953224	,	0
59,20	,	121959	,	-26824	,	-25077	,	-55.34517	,	0
59,20	,	121991	,	-26851	,	-25082	,	-56.31661	,	0
59,20	,	122007	,	-26889	,	-25151	,	-57.449936	,	0
59,21	,	122023	,	-26921	,	-25169	,	-59.394554	,	0
59,21	,	122055	,	-26970	,	-25187	,	-62.664383	,	0
59,21	,	122071	,	-26932	,	-25231	,	-67.22094	,	0
59,21	,	122087	,	-26872	,	-25205	,	-71.561676	,	0
59,21	,	122119	,	-26819	,	-25197	,	-72.66819	,	0
59,21	,	122135	,	-26803	,	-25185	,	-67.69213	,	0
59,21	,	122167	,	-26773	,	-25190	,	-55.662075	,	4
59,21	,	122183	,	-26771	,	-25179	,	-37.698093	,	16
59,21	,	122199	,	-26753	,	-25161	,	-16.262733	,	33
59,21	,	122231	,	-26747	,	-25162	,	5.759903	,	54
59,21	,	122247	,	-26745	,	-25175	,	25.775105	,	76
59,21	,	122263	,	-26745	,	-25154	,	41.79683	,	96
59,21	,	122295	,	-26771	,	-25199	,	52.480015	,	112
59,21	,	122311	,	-26785	,	-25169	,	57.025505	,	122
59,21	,	122327	,	-26785	,	-25162	,	55.34394	,	126
59,21	,	122359	,	-26776	,	-25159	,	48.411987	,	122
59,21	,	122375	,	-26765	,	-25155	,	38.16826	,	110
59,21	,	122407	,	-26761	,	-25175	,	26.88345	,	93
59,21	,	122423	,	-26765	,	-25174	,	16.432955	,	72
59,21	,	122439	,	-26776	,	-25167	,	7.841696	,	50
59,21	,	122471	,	-26786	,	-25182	,	1.2805748	,	30
59,21	,	122487	,	-26797	,	-25192	,	-3.6162796	,	14
59,21	,	122503	,	-26813	,	-25179	,	-7.4302263	,	4
59,21	,	122535	,	-26826	,	-25199	,	-10.765326	,	0
59,21	,	122551	,	-26850	,	-25215	,	-14.145913	,	0
59,21	,	122583	,	-26867	,	-25211	,	-17.976776	,	0
59,21	,	122599	,	-26882	,	-25214	,	-22.454462	,	0
59,21	,	122615	,	-26891	,	-25218	,	-27.446507	,	0
59,21	,	122647	,	-26904	,	-25229	,	-32.532288	,	0
59,21	,	122663	,	-26923	,	-25218	,	-37.242874	,	0
59,21	,	122679	,	-26929	,	-25232	,	-41.246777	,	0
59,21	,	122711	,	-26938	,	-25223	,	-44.29235	,	0
59,21	,	122727	,	-26944	,	-25242	,	-46.147114	,	0
59,21	,	122743	,	-26946	,	-25246	,	-46.6503	,	0
59,21	,	122775	,	-26958	,	-25250	,	-45.774757	,	0
59,21	,	122791	,	-26983	,	-25251	,	-43.799393	,	0
59,21	,	122822	,	-26948	,	-25220	,	-41.15956	,	1
59,21	,	122839	,	-26879	,	-25206	,	-37.519188	,	3
59,21	,	122855	,	-26827	,	-25190	,	-31.313519	,	6
59,21	,	122887	,	-26784	,	-25163	,	-20.813658	,	12
59,21	,	122903	,	-26774	,	-25170	,	-5.556679	,	22
59,21	,	122919	,	-26779	,	-25149	,	13.070307	,	37
59,21	,	122951	,	-26762	,	-25167	,	32.35941	,	55
59,21	,	122967	,	-26774	,	-25169	,	49.463924	,	74
59,21	,	122999	,	-26774	,	-25162	,	62.168633	,	91
59,21	,	123015	,	-26802	,	-25195	,	69.03961	,	102
59,22	,	123031	,	-26832	,	-25183	,	69.3357	,	106
59,22	,	123062	,	-26827	,	-25188	,	63.092354	,	103
59,22	,	123078	,	-26825	,	-25177	,	51.507423	,	97
59,22	,	123094	,	-26820	,	-25172	,	36.830154	,	87
59,22	,	123127	,	-26828	,	-25221	,	21.53424	,	72
59,22	,	123143	,	-26841	,	-25223	,	7.508936	,	54
59,22	,	123174	,	-26852	,	-25229	,	-4.26182	,	35
59,22	,	123190	,	-26856	,	-25239	,	-13.49083	,	18
59,22	,	123207	,	-26892	,	-25256	,	-20.35242	,	6
59,22	,	123239	,	-26899	,	-25257	,	-25.446693	,	0
59,22	,	123255	,	-26908	,	-25257	,	-29.44627	,	0
59,22	,	123271	,	-26931	,	-25273	,	-32.736614	,	0
59,22	,	123303	,	-26951	,	-25291	,	-35.596207	,	0
59,22	,	123319	,	-26973	,	-25306	,	-38.362823	,	0
59,22	,	123334	,	-26981	,	-25319	,	-41.25406	,	0
59,22	,	123367	,	-27005	,	-25309	,	-44.235195	,	0
59,22	,	123382	,	-27031	,	-25339	,	-47.208588	,	0
59,22	,	123415	,	-27044	,	-25362	,	-50.17842	,	0
59,22	,	123431	,	-27066	,	-25380	,	-53.11115	,	0
59,22	,	123447	,	-27083	,	-25391	,	-55.867393	,	0
59,22	,	123478	,	-27083	,	-25375	,	-58.203247	,	0
59,22	,	123494	,	-27104	,	-25392	,	-59.748783	,	0
59,22	,	123510	,	-27025	,	-25359	,	-59.80586	,	0
59,22	,	123542	,	-26948	,	-25305	,	-56.690178	,	0
59,22	,	123558	,	-26891	,	-25295	,	-47.962112	,	3
59,22	,	123591	,	-26853	,	-25274	,	-32.107906	,	11
59,22	,	123607	,	-26826	,	-25289	,	-9.726753	,	26
59,22	,	123623	,	-26812	,	-25263	,	16.688303	,	48
59,22	,	123655	,	-26801	,	-25260	,	43.65689	,	74
59,22	,	123671	,	-26793	,	-25257	,	67.723	,	100
59,22	,	123686	,	-26802	,	-25267	,	86.16478	,	124
59,22	,	123718	,	-26797	,	-25257	,	97.29021	,	142
59,22	,	123734	,	-26804	,	-25279	,	100.56756	,	153
59,22	,	123750	,	-26827	,	-25305	,	96.4637	,	153
59,22	,	123783	,	-26818	,	-25293	,	86.11632	,	145
59,22	,	123799	,	-26807	,	-25265	,	71.361786	,	130
59,22	,	123830	,	-26796	,	-25278	,	54.65741	,	108
59,22	,	123846	,	-26795	,	-25265	,	38.435863	,	82
59,22	,	123862	,	-26809	,	-25290	,	24.375084	,	56
59,22	,	123894	,	-26824	,	-25280	,	13.067188	,	32
59,22	,	123910	,	-26830	,	-25312	,	4.265297	,	14
59,22	,	123926	,	-26830	,	-25332	,	-2.5211134	,	3
59,22	,	123958	,	-26841	,	-25294	,	-7.6658607	,	0
59,22	,	123974	,	-26861	,	-25303	,	-11.544931	,	0
59,22	,	124006	,	-26879	,	-25305	,	-14.72497	,	0
59,23	,	124022	,	-26891	,	-25319	,	-17.810356	,	0
59,23	,	124038	,	-26911	,	-25334	,	-21.184837	,	0
59,23	,	124070	,	-26911	,	-25332	,	-24.914291	,	0
59,23	,	124086	,	-26930	,	-25343	,	-28.762184	,	0
59,23	,	124102	,	-26943	,	-25345	,	-32.402786	,	0
59,23	,	124134	,	-26953	,	-25330	,	-35.629673	,	0
59,23	,	124150	,	-26964	,	-25339	,	-38.3031	,	0
59,23	,	124166	,	-26978	,	-25370	,	-40.312973	,	0
59,23	,	124198	,	-26977	,	-25334	,	-41.583626	,	0
59,23	,	124214	,	-26906	,	-25293	,	-41.613754	,	0
59,23	,	124246	,	-26845	,	-25269	,	-38.864185	,	0
59,23	,	124262	,	-26795	,	-25238	,	-31.283113	,	2
59,23	,	124278	,	-26758	,	-25236	,	-17.740599	,	9
59,23	,	124310	,	-26736	,	-25231	,	1.1718426	,	22
59,23	,	124326	,	-26723	,	-25210	,	23.324066	,	40
59,23	,	124342	,	-26713	,	-25207	,	45.753834	,	62
59,23	,	124374	,	-26707	,	-25187	,	65.53188	,	84
59,23	,	124390	,	-26716	,	-25188	,	80.3534	,	103
59,23	,	124422	,	-26719	,	-25217	,	88.74831	,	117
59,23	,	124438	,	-26739	,	-25205	,	90.13663	,	125
59,23	,	124454	,	-26735	,	-25212	,	84.84581	,	124
59,23	,	124486	,	-26738	,	-25199	,	74.10922	,	117
59,23	,	124502	,	-26726	,	-25209	,	59.893356	,	104
59,23	,	124518	,	-26729	,	-25206	,	44.429295	,	86
59,23	,	124550	,	-26729	,	-25206	,	29.64581	,	64
59,23	,	124566	,	-26727	,	-25205	,	16.847574	,	42
59,23	,	124598	,	-26751	,	-25199	,	6.630165	,	23
59,23	,	124614	,	-26762	,	-25219	,	-1.1572123	,	9
59,23	,	124630	,	-26769	,	-25202	,	-7.122745	,	1
59,23	,	124662	,	-26778	,	-25238	,	-11.830053	,	0
59,23	,	124678	,	-26784	,	-25216	,	-15.614835	,	0
59,23	,	124694	,	-26820	,	-25230	,	-18.781614	,	0
59,23	,	124726	,	-26841	,	-25233	,	-21.878927	,	0
59,23	,	124742	,	-26845	,	-25248	,	-25.467873	,	0
59,23	,	124758	,	-26860	,	-25251	,	-29.606339	,	0
59,23	,	124790	,	-26884	,	-25257	,	-33.96555	,	0
59,23	,	124806	,	-26885	,	-25274	,	-38.213715	,	0
59,23	,	124838	,	-26906	,	-25277	,	-42.021027	,	0
59,23	,	124854	,	-26919	,	-25271	,	-45.106102	,	0
59,23	,	124870	,	-26927	,	-25278	,	-47.34458	,	0
59,23	,	124902	,	-26940	,	-25303	,	-48.674526	,	0
59,23	,	124918	,	-26919	,	-25249	,	-48.92631	,	0
59,23	,	124934	,	-26800	,	-25238	,	-47.123726	,	0
59,23	,	124966	,	-26781	,	-25203	,	-41.118095	,	1
59,23	,	124982	,	-26737	,	-25205	,	-29.1474	,	7
59,23	,	125013	,	-26738	,	-25201	,	-11.517778	,	18
59,24	,	125029	,	-26731	,	-25191	,	9.488638	,	35
59,24	,	125046	,	-26734	,	-25192	,	30.633484	,	56
59,24	,	125078	,	-26742	,	-25197	,	48.778675	,	77
59,24	,	125094	,	-26759	,	-25192	,	61.536964	,	95
59,24	,	125110	,	-26781	,	-25193	,	67.4693	,	107
59,24	,	125142	,	-26791	,	-25225	,	66.17159	,	112
59,24	,	125158	,	-26797	,	-25194	,	58.367588	,	111
59,24	,	125174	,	-26776	,	-25204	,	45.889194	,	105
59,24	,	125206	,	-26766	,	-25197	,	31.359098	,	94
59,24	,	125222	,	-26771	,	-25199	,	17.40857	,	77
59,24	,	125254	,	-26777	,	-25194	,	5.7963104	,	56
59,24	,	125270	,	-26800	,	-25212	,	-2.911067	,	35
59,24	,	125286	,	-26802	,	-25199	,	-9.055597	,	17
59,24	,	125318	,	-26829	,	-25219	,	-13.38419	,	5
59,24	,	125334	,	-26818	,	-25215	,	-16.619064	,	0
59,24	,	125350	,	-26834	,	-25228	,	-19.168	,	0
59,24	,	125381	,	-26848	,	-25250	,	-21.201906	,	0
59,24	,	125397	,	-26857	,	-25220	,	-22.929935	,	0
59,24	,	125429	,	-26881	,	-25252	,	-24.616692	,	0
59,24	,	125445	,	-26886	,	-25270	,	-26.496128	,	0
59,24	,	125462	,	-26903	,	-25250	,	-28.667171	,	0
59,24	,	125493	,	-26923	,	-25256	,	-31.098991	,	0
59,24	,	125509	,	-26931	,	-25274	,	-33.746853	,	0
59,24	,	125526	,	-26940	,	-25261	,	-36.45986	,	0
59,24	,	125557	,	-26944	,	-25244	,	-38.89042	,	0
59,24	,	125573	,	-26923	,	-25238	,	-40.48507	,	0
59,24	,	125590	,	-26870	,	-25211	,	-40.25768	,	0
59,24	,	125622	,	-26821	,	-25196	,	-36.699703	,	0
59,24	,	125637	,	-26773	,	-25161	,	-28.360662	,	3
59,24	,	125669	,	-26742	,	-25148	,	-14.70364	,	11
59,24	,	125685	,	-26738	,	-25168	,	3.3698368	,	24
59,24	,	125701	,	-26725	,	-25151	,	23.597843	,	42
59,24	,	125734	,	-26735	,	-25159	,	43.067207	,	62
59,24	,	125750	,	-26747	,	-25174	,	58.97946	,	81
59,24	,	125766	,	-26772	,	-25188	,	69.10581	,	96
59,24	,	125798	,	-26787	,	-25196	,	72.12943	,	106
59,24	,	125814	,	-26789	,	-25192	,	67.959366	,	109
59,24	,	125845	,	-26778	,	-25197	,	57.883484	,	106
59,24	,	125861	,	-26773	,	-25209	,	44.2473	,	98
59,24	,	125877	,	-26765	,	-25160	,	29.67647	,	85
59,24	,	125909	,	-26782	,	-25190	,	16.2847	,	67
59,24	,	125925	,	-26793	,	-25196	,	5.181761	,	47
59,24	,	125941	,	-26801	,	-25182	,	-3.4652767	,	28
59,24	,	125973	,	-26809	,	-25180	,	-9.950237	,	13
59,24	,	125989	,	-26822	,	-25202	,	-14.692598	,	3
59,24	,	126005	,	-26826	,	-25218	,	-18.132208	,	0
59,25	,	126037	,	-26836	,	-25225	,	-20.626894	,	0
59,25	,	126053	,	-26848	,	-25228	,	-22.439106	,	0
59,25	,	126085	,	-26861	,	-25229	,	-23.831669	,	0
59,25	,	126101	,	-26872	,	-25250	,	-25.079165	,	0
59,25	,	126117	,	-26880	,	-25219	,	-26.365217	,	0
59,25	,	126149	,	-26916	,	-25247	,	-27.835396	,	0
59,25	,	126166	,	-26923	,	-25241	,	-29.75452	,	0
59,25	,	126181	,	-26938	,	-25259	,	-32.307194	,	0
59,25	,	126213	,	-26941	,	-25274	,	-35.297688	,	0
59,25	,	126229	,	-26912	,	-25229	,	-38.044518	,	0
59,25	,	126261	,	-26861	,	-25213	,	-39.198765	,	0
59,25	,	126277	,	-26789	,	-25208	,	-36.763252	,	0
59,25	,	126293	,	-26744	,	-25178	,	-28.776735	,	2
59,25	,	126325	,	-26722	,	-25152	,	-14.479334	,	9
59,25	,	126341	,	-26703	,	-25171	,	4.977276	,	23
59,25	,	126357	,	-26689	,	-25122	,	26.97472	,	42
59,25	,	126389	,	-26680	,	-25111	,	48.453453	,	63
59,25	,	126405	,	-26668	,	-25127	,	66.74246	,	84
59,25	,	126437	,	-26689	,	-25134	,	79.90652	,	102
59,25	,	126453	,	-26702	,	-25152	,	86.65594	,	115
59,25	,	126469	,	-26713	,	-25139	,	86.389496	,	121
59,25	,	126501	,	-26706	,	-25125	,	79.550934	,	119
59,25	,	126517	,	-26689	,	-25126	,	67.77782	,	112
59,25	,	126533	,	-26682	,	-25121	,	53.506985	,	98
59,25	,	126565	,	-26680	,	-25124	,	39.163	,	79
59,25	,	126581	,	-26691	,	-25150	,	26.430042	,	58
59,25	,	126597	,	-26700	,	-25124	,	15.999369	,	37
59,25	,	126629	,	-26724	,	-25145	,	7.717787	,	19
59,25	,	126645	,	-26750	,	-25135	,	0.8583889	,	6
59,25	,	126677	,	-26761	,	-25179	,	-5.4870553	,	0
59,25	,	126693	,	-26771	,	-25168	,	-11.877157	,	0
59,25	,	126709	,	-26794	,	-25191	,	-18.356943	,	0
59,25	,	126741	,	-26807	,	-25192	,	-24.761204	,	0
59,25	,	126757	,	-26821	,	-25178	,	-30.887524	,	0
59,25	,	126773	,	-26832	,	-25186	,	-36.449097	,	0
59,25	,	126805	,	-26842	,	-25214	,	-41.10653	,	0
59,25	,	126821	,	-26860	,	-25229	,	-44.605934	,	0
59,25	,	126853	,	-26877	,	-25208	,	-46.92791	,	0
59,25	,	126869	,	-26889	,	-25243	,	-48.27291	,	0
59,25	,	126885	,	-26918	,	-25240	,	-48.955757	,	0
59,25	,	126917	,	-26920	,	-25246	,	-49.326447	,	0
59,25	,	126933	,	-26891	,	-25235	,	-49.355946	,	0
59,25	,	126949	,	-26847	,	-25204	,	-48.108116	,	0
59,25	,	126981	,	-26777	,	-25172	,	-43.827663	,	1
59,25	,	126997	,	-26721	,	-25144	,	-34.62622	,	5
59,25	,	127013	,	-26697	,	-25131	,	-19.52498	,	14
59,26	,	127045	,	-26670	,	-25140	,	0.7138424	,	29
59,26	,	127061	,	-26661	,	-25126	,	23.766832	,	49
59,26	,	127093	,	-26644	,	-25098	,	46.64251	,	72
59,26	,	127109	,	-26619	,	-25099	,	66.64493	,	94
59,26	,	127125	,	-26632	,	-25093	,	81.91454	,	114
59,26	,	127157	,	-26639	,	-25091	,	91.24684	,	129
59,26	,	127173	,	-26649	,	-25130	,	93.929825	,	137
59,26	,	127189	,	-26653	,	-25099	,	90.014725	,	135
59,26	,	127221	,	-26646	,	-25108	,	80.49577	,	126
59,26	,	127237	,	-26640	,	-25091	,	67.16681	,	111
59,26	,	127269	,	-26642	,	-25085	,	52.155956	,	91
59,26	,	127285	,	-26642	,	-25125	,	37.338192	,	68
59,26	,	127301	,	-26650	,	-25131	,	24.000559	,	46
59,26	,	127333	,	-26661	,	-25110	,	12.775686	,	26
59,26	,	127349	,	-26702	,	-25124	,	3.5753632	,	11
59,26	,	127365	,	-26715	,	-25132	,	-4.338728	,	2
59,26	,	127397	,	-26719	,	-25125	,	-11.724786	,	0
59,26	,	127413	,	-26733	,	-25138	,	-18.753654	,	0
59,26	,	127444	,	-26751	,	-25165	,	-25.20261	,	0
59,26	,	127461	,	-26757	,	-25154	,	-30.854788	,	0
59,26	,	127476	,	-26784	,	-25166	,	-35.595222	,	0
59,26	,	127509	,	-26800	,	-25181	,	-39.49264	,	0
59,26	,	127525	,	-26813	,	-25189	,	-42.74474	,	0
59,26	,	127541	,	-26822	,	-25199	,	-45.427597	,	0
59,26	,	127573	,	-26842	,	-25207	,	-47.477573	,	0
59,26	,	127589	,	-26860	,	-25217	,	-48.910515	,	0
59,26	,	127604	,	-26873	,	-25212	,	-49.876076	,	0
59,26	,	127637	,	-26879	,	-25223	,	-50.46797	,	0
59,26	,	127653	,	-26892	,	-25233	,	-50.61773	,	0
59,26	,	127685	,	-26896	,	-25227	,	-50.19527	,	0
59,26	,	127701	,	-26865	,	-25219	,	-48.909252	,	0
59,26	,	127717	,	-26805	,	-25189	,	-45.853416	,	1
59,26	,	127749	,	-26750	,	-25150	,	-39.425804	,	4
59,26	,	127764	,	-26698	,	-25136	,	-28.100561	,	10
59,26	,	127780	,	-26685	,	-25108	,	-11.497742	,	21
59,26	,	127812	,	-26666	,	-25107	,	9.070053	,	37
59,26	,	127828	,	-26637	,	-25115	,	31.121067	,	57
59,26	,	127861	,	-26635	,	-25091	,	52.038277	,	79
59,26	,	127877	,	-26627	,	-25087	,	69.57109	,	99
59,26	,	127893	,	-26648	,	-25096	,	81.91206	,	116
59,26	,	127924	,	-26661	,	-25122	,	87.7791	,	127
59,26	,	127940	,	-26676	,	-25104	,	86.61842	,	129
59,26	,	127956	,	-26655	,	-25090	,	78.975525	,	123
59,26	,	127988	,	-26659	,	-25098	,	66.59218	,	112
59,26	,	128005	,	-26649	,	-25096	,	51.83274	,	96
59,27	,	128021	,	-26652	,	-25111	,	36.917984	,	76
59,27	,	128053	,	-26659	,	-25095	,	23.453543	,	54
59,27	,	128068	,	-26687	,	-25130	,	12.145546	,	34
59,27	,	128100	,	-26682	,	-25102	,	2.898882	,	17
59,27	,	128116	,	-26701	,	-25127	,	-4.6425695	,	5
59,27	,	128133	,	-26712	,	-25131	,	-10.805483	,	0
59,27	,	128165	,	-26726	,	-25145	,	-15.93786	,	0
59,27	,	128181	,	-26732	,	-25133	,	-20.322342	,	0
59,27	,	128197	,	-26748	,	-25168	,	-24.088352	,	0
59,27	,	128228	,	-26767	,	-25170	,	-27.346237	,	0
59,27	,	128244	,	-26787	,	-25172	,	-30.320438	,	0
59,27	,	128276	,	-26801	,	-25161	,	-33.268856	,	0
59,27	,	128292	,	-26810	,	-25170	,	-36.28117	,	0
59,27	,	128309	,	-26836	,	-25204	,	-39.2597	,	0
59,27	,	128340	,	-26847	,	-25208	,	-42.103813	,	0
59,27	,	128356	,	-26851	,	-25213	,	-44.68672	,	0
59,27	,	128372	,	-26873	,	-25205	,	-46.76048	,	0
59,27	,	128404	,	-26880	,	-25220	,	-48.14041	,	0
59,27	,	128420	,	-26893	,	-25221	,	-48.793217	,	0
59,27	,	128452	,	-26903	,	-25209	,	-48.743027	,	0
59,27	,	128468	,	-26915	,	-25232	,	-48.062725	,	0
59,27	,	128484	,	-26911	,	-25244	,	-46.810947	,	0
59,27	,	128516	,	-26895	,	-25202	,	-44.812103	,	1
59,27	,	128532	,	-26835	,	-25199	,	-41.353638	,	2
59,27	,	128548	,	-26727	,	-25161	,	-34.814903	,	5
59,27	,	128580	,	-26715	,	-25106	,	-23.157795	,	11
59,27	,	128596	,	-26706	,	-25112	,	-5.819668	,	22
59,27	,	128612	,	-26694	,	-25105	,	15.296698	,	39
59,27	,	128644	,	-26682	,	-25120	,	37.019466	,	60
59,27	,	128660	,	-26675	,	-25114	,	56.37433	,	81
59,27	,	128692	,	-26680	,	-25120	,	71.15793	,	100
59,27	,	128708	,	-26708	,	-25123	,	79.90288	,	113
59,27	,	128724	,	-26725	,	-25148	,	81.72838	,	120
59,27	,	128756	,	-26735	,	-25123	,	76.540665	,	118
59,27	,	128772	,	-26720	,	-25142	,	65.41783	,	112
59,27	,	128788	,	-26704	,	-25123	,	50.62864	,	101
59,27	,	128820	,	-26688	,	-25120	,	35.044807	,	84
59,27	,	128836	,	-26700	,	-25124	,	21.15655	,	63
59,27	,	128868	,	-26703	,	-25134	,	10.290642	,	42
59,27	,	128884	,	-26714	,	-25156	,	2.583994	,	23
59,27	,	128900	,	-26725	,	-25126	,	-2.5389261	,	9
59,27	,	128932	,	-26744	,	-25152	,	-5.9766574	,	1
59,27	,	128948	,	-26757	,	-25143	,	-8.695322	,	0
59,27	,	128964	,	-26767	,	-25172	,	-11.450321	,	0
59,27	,	128996	,	-26771	,	-25132	,	-14.560671	,	0
59,27	,	129012	,	-26797	,	-25169	,	-17.994238	,	0
59,28	,	129028	,	-26819	,	-25191	,	-21.742958	,	0
59,28	,	129060	,	-26825	,	-25184	,	-25.89401	,	0
59,28	,	129076	,	-26842	,	-25199	,	-30.330181	,	0
59,28	,	129108	,	-26850	,	-25206	,	-34.690926	,	0
59,28	,	129124	,	-26871	,	-25211	,	-38.612274	,	0
59,28	,	129140	,	-26898	,	-25227	,	-41.95936	,	0
59,28	,	129172	,	-26888	,	-25218	,	-44.768116	,	0
59,28	,	129188	,	-26911	,	-25233	,	-46.91765	,	0
59,28	,	129204	,	-26919	,	-25254	,	-48.202744	,	0
59,28	,	129236	,	-26902	,	-25201	,	-48.460743	,	0
59,28	,	129252	,	-26805	,	-25193	,	-46.87265	,	0
59,28	,	129284	,	-26761	,	-25157	,	-41.492847	,	1
59,28	,	129300	,	-26717	,	-25131	,	-30.427992	,	6
59,28	,	129316	,	-26710	,	-25113	,	-13.480843	,	17
59,28	,	129348	,	-26695	,	-25118	,	7.5178814	,	33
59,28	,	129364	,	-26698	,	-25133	,	29.529305	,	53
59,28	,	129380	,	-26691	,	-25134	,	49.390396	,	75
59,28	,	129412	,	-26708	,	-25117	,	64.56488	,	94
59,28	,	129428	,	-26724	,	-25145	,	73.37352	,	109
59,28	,	129444	,	-26745	,	-25161	,	75.01201	,	117
59,28	,	129476	,	-26773	,	-25134	,	69.5453	,	117
59,28	,	129492	,	-26731	,	-25132	,	58.09271	,	112
59,28	,	129524	,	-26739	,	-25123	,	43.039257	,	101
59,28	,	129540	,	-26729	,	-25133	,	27.313457	,	85
59,28	,	129556	,	-26739	,	-25143	,	13.21187	,	65
59,28	,	129588	,	-26749	,	-25132	,	1.9333534	,	43
59,28	,	129604	,	-26761	,	-25130	,	-6.331498	,	24
59,28	,	129620	,	-26756	,	-25141	,	-11.970325	,	9
59,28	,	129652	,	-26766	,	-25174	,	-15.457495	,	1
59,28	,	129668	,	-26784	,	-25181	,	-17.313969	,	0
59,28	,	129700	,	-26790	,	-25174	,	-18.22582	,	0
59,28	,	129716	,	-26810	,	-25162	,	-18.88411	,	0
59,28	,	129732	,	-26846	,	-25207	,	-19.944237	,	0
59,28	,	129763	,	-26845	,	-25212	,	-22.01913	,	0
59,28	,	129780	,	-26862	,	-25221	,	-25.282417	,	0
59,28	,	129796	,	-26884	,	-25226	,	-29.406853	,	0
59,28	,	129828	,	-26884	,	-25238	,	-33.92128	,	0
59,28	,	129844	,	-26907	,	-25229	,	-38.306534	,	0
59,28	,	129860	,	-26918	,	-25238	,	-42.10952	,	0
59,28	,	129892	,	-26925	,	-25234	,	-45.06817	,	0
59,28	,	129908	,	-26939	,	-25251	,	-47.018875	,	0
59,28	,	129940	,	-26936	,	-25248	,	-47.844124	,	0
59,28	,	129956	,	-26905	,	-25210	,	-47.26323	,	0
59,28	,	129972	,	-26742	,	-25160	,	-43.90871	,	0
59,28	,	130004	,	-26708	,	-25119	,	-34.959953	,	3
59,28	,	130020	,	-26672	,	-25117	,	-18.2792	,	11
59,29	,	130036	,	-26664	,	-25095	,	5.3117867	,	27
59,29	,	130068	,	-26643	,	-25124	,	32.49429	,	50
59,29	,	130083	,	-26644	,	-25083	,	59.16992	,	77
59,29	,	130116	,	-26635	,	-25077	,	81.68037	,	103
59,29	,	130132	,	-26622	,	-25102	,	97.53981	,	125
59,29	,	130148	,	-26624	,	-25098	,	105.73509	,	140
59,29	,	130180	,	-26653	,	-25107	,	106.321106	,	148
59,29	,	130196	,	-26648	,	-25094	,	99.88128	,	145
59,29	,	130212	,	-26644	,	-25082	,	87.66052	,	137
59,29	,	130244	,	-26629	,	-25087	,	71.75664	,	121
59,29	,	130259	,	-26632	,	-25086	,	54.648777	,	98
59,29	,	130291	,	-26633	,	-25114	,	38.436478	,	71
59,29	,	130307	,	-26632	,	-25090	,	24.443638	,	45
59,29	,	130324	,	-26648	,	-25090	,	13.230524	,	23
59,29	,	130356	,	-26667	,	-25098	,	4.636101	,	8
59,29	,	130372	,	-26677	,	-25117	,	-2.0323467	,	0
59,29	,	130388	,	-26678	,	-25102	,	-7.479175	,	0
59,29	,	130420	,	-26703	,	-25125	,	-12.124792	,	0
59,29	,	130435	,	-26717	,	-25109	,	-16.31042	,	0
59,29	,	130451	,	-26738	,	-25150	,	-20.419989	,	0
59,29	,	130483	,	-26762	,	-25162	,	-24.768234	,	0
59,29	,	130499	,	-26777	,	-25147	,	-29.5326	,	0
59,29	,	130531	,	-26790	,	-25167	,	-34.645157	,	0
59,29	,	130548	,	-26798	,	-25181	,	-39.72177	,	0
59,29	,	130564	,	-26819	,	-25163	,	-44.248512	,	0
59,29	,	130595	,	-26826	,	-25188	,	-47.84938	,	0
59,29	,	130611	,	-26838	,	-25203	,	-50.32081	,	0
59,29	,	130628	,	-26847	,	-25202	,	-51.553276	,	0
59,29	,	130659	,	-26870	,	-25239	,	-51.614822	,	0
59,29	,	130676	,	-26851	,	-25163	,	-50.692364	,	0
59,29	,	130707	,	-26719	,	-25125	,	-48.099213	,	0
59,29	,	130723	,	-26647	,	-25095	,	-41.36719	,	2
59,29	,	130739	,	-26619	,	-25096	,	-27.810493	,	8
59,29	,	130771	,	-26594	,	-25055	,	-7.0972195	,	21
59,29	,	130787	,	-26580	,	-25054	,	18.413242	,	41
59,29	,	130803	,	-26567	,	-25050	,	45.056435	,	66
59,29	,	130836	,	-26551	,	-25035	,	69.22203	,	92
59,29	,	130851	,	-26540	,	-25039	,	88.22678	,	116
59,29	,	130867	,	-26543	,	-25041	,	100.55353	,	135
59,29	,	130899	,	-26557	,	-25055	,	105.586845	,	147
59,29	,	130915	,	-26582	,	-25040	,	103.28793	,	150
59,29	,	130947	,	-26572	,	-25041	,	94.236664	,	144
59,29	,	130963	,	-26555	,	-25040	,	80.01709	,	131
59,29	,	130979	,	-26553	,	-25058	,	63.122913	,	111
59,29	,	131011	,	-26555	,	-25047	,	46.07018	,	86
59,30	,	131027	,	-26562	,	-25044	,	30.623425	,	60
59,30	,	131043	,	-26581	,	-25064	,	17.60076	,	36
59,30	,	131075	,	-26593	,	-25056	,	6.999649	,	17
59,30	,	131091	,	-26600	,	-25072	,	-1.6057138	,	5
59,30	,	131123	,	-26607	,	-25071	,	-8.605264	,	0
59,30	,	131139	,	-26632	,	-25125	,	-14.291591	,	0
59,30	,	131155	,	-26650	,	-25091	,	-19.084574	,	0
59,30	,	131187	,	-26674	,	-25103	,	-23.531792	,	0
59,30	,	131203	,	-26697	,	-25128	,	-28.11269	,	0
59,30	,	131219	,	-26715	,	-25117	,	-33.101627	,	0
59,30	,	131251	,	-26734	,	-25144	,	-38.483486	,	0
59,30	,	131267	,	-26734	,	-25135	,	-43.899162	,	0
59,30	,	131283	,	-26751	,	-25147	,	-48.7113	,	0
59,30	,	131315	,	-26767	,	-25161	,	-52.342426	,	0
59,30	,	131331	,	-26794	,	-25156	,	-54.64914	,	0
59,30	,	131363	,	-26796	,	-25158	,	-55.857895	,	0
59,30	,	131379	,	-26817	,	-25189	,	-56.212658	,	0
59,30	,	131395	,	-26820	,	-25171	,	-55.834587	,	0
59,30	,	131427	,	-26850	,	-25186	,	-54.850643	,	0
59,30	,	131443	,	-26846	,	-25194	,	-53.471138	,	0
59,30	,	131459	,	-26800	,	-25175	,	-51.544167	,	1
59,30	,	131491	,	-26732	,	-25118	,	-47.858173	,	2
59,30	,	131507	,	-26644	,	-25089	,	-40.212234	,	5
59,30	,	131539	,	-26607	,	-25077	,	-26.55708	,	12
59,30	,	131555	,	-26584	,	-25047	,	-6.5227966	,	25
59,30	,	131571	,	-26574	,	-25036	,	17.973122	,	45
59,30	,	131603	,	-26559	,	-25039	,	43.567883	,	69
59,30	,	131619	,	-26555	,	-25055	,	66.76167	,	94
59,30	,	131635	,	-26552	,	-25021	,	84.78381	,	117
59,30	,	131667	,	-26569	,	-25060	,	95.867386	,	134
59,30	,	131683	,	-26596	,	-25072	,	99.1163	,	144
59,30	,	131715	,	-26585	,	-25071	,	94.53176	,	144
59,30	,	131731	,	-26590	,	-25055	,	83.32713	,	137
59,30	,	131747	,	-26572	,	-25037	,	67.79385	,	124
59,30	,	131779	,	-26576	,	-25047	,	50.609085	,	104
59,30	,	131795	,	-26577	,	-25045	,	34.086567	,	80
59,30	,	131811	,	-26587	,	-25042	,	19.704252	,	55
59,30	,	131843	,	-26590	,	-25070	,	8.095526	,	32
59,30	,	131859	,	-26597	,	-25092	,	-0.6877651	,	14
59,30	,	131875	,	-26613	,	-25054	,	-6.9786196	,	3
59,30	,	131907	,	-26643	,	-25093	,	-11.496566	,	0
59,30	,	131923	,	-26656	,	-25074	,	-15.241256	,	0
59,30	,	131955	,	-26675	,	-25108	,	-19.064568	,	0
59,30	,	131971	,	-26695	,	-25094	,	-23.387985	,	0
59,30	,	131986	,	-26707	,	-25101	,	-28.259176	,	0
59,30	,	132019	,	-26722	,	-25105	,	-33.435852	,	0
59,31	,	132035	,	-26733	,	-25139	,	-38.481285	,	0
59,31	,	132051	,	-26727	,	-25136	,	-42.83618	,	0
59,31	,	132083	,	-26758	,	-25157	,	-45.95997	,	0
59,31	,	132099	,	-26775	,	-25163	,	-47.735935	,	0
59,31	,	132130	,	-26790	,	-25144	,	-48.546314	,	0
59,31	,	132146	,	-26806	,	-25172	,	-48.85231	,	0
59,31	,	132163	,	-26814	,	-25173	,	-48.925163	,	0
59,31	,	132195	,	-26831	,	-25174	,	-48.850243	,	0
59,31	,	132211	,	-26843	,	-25179	,	-48.639698	,	0
59,31	,	132227	,	-26811	,	-25163	,	-48.09637	,	0
59,31	,	132259	,	-26756	,	-25134	,	-46.27735	,	0
59,31	,	132275	,	-26683	,	-25109	,	-41.326866	,	1
59,31	,	132291	,	-26645	,	-25098	,	-31.300966	,	5
59,31	,	132323	,	-26617	,	-25061	,	-15.48217	,	15
59,31	,	132338	,	-26618	,	-25084	,	4.8975143	,	30
59,31	,	132370	,	-26620	,	-25046	,	26.982534	,	50
59,31	,	132386	,	-26616	,	-25075	,	47.359	,	72
59,31	,	132403	,	-26626	,	-25064	,	63.17817	,	92
59,31	,	132435	,	-26656	,	-25101	,	72.57097	,	107
59,31	,	132451	,	-26680	,	-25113	,	74.518425	,	116
59,31	,	132467	,	-26674	,	-25109	,	69.0291	,	116
59,31	,	132498	,	-26666	,	-25091	,	57.531097	,	112
59,31	,	132514	,	-26656	,	-25099	,	42.61779	,	102
59,31	,	132546	,	-26653	,	-25079	,	27.129696	,	87
59,31	,	132562	,	-26656	,	-25108	,	13.303951	,	67
59,31	,	132578	,	-26660	,	-25098	,	2.3904343	,	45
59,31	,	132610	,	-26681	,	-25094	,	-5.355508	,	25
59,31	,	132626	,	-26693	,	-25120	,	-10.481945	,	10
59,31	,	132642	,	-26710	,	-25121	,	-13.942669	,	1
59,31	,	132675	,	-26726	,	-25110	,	-16.673195	,	0
59,31	,	132690	,	-26734	,	-25130	,	-19.344444	,	0
59,31	,	132722	,	-26742	,	-25153	,	-22.218086	,	0
59,31	,	132738	,	-26765	,	-25150	,	-25.24299	,	0
59,31	,	132754	,	-26781	,	-25158	,	-28.37211	,	0
59,31	,	132787	,	-26783	,	-25173	,	-31.58343	,	0
59,31	,	132803	,	-26800	,	-25178	,	-34.677994	,	0
59,31	,	132819	,	-26815	,	-25183	,	-37.39948	,	0
59,31	,	132850	,	-26831	,	-25168	,	-39.662853	,	0
59,31	,	132867	,	-26864	,	-25187	,	-41.616344	,	0
59,31	,	132882	,	-26872	,	-25191	,	-43.577576	,	0
59,31	,	132915	,	-26887	,	-25200	,	-45.724266	,	0
59,31	,	132931	,	-26872	,	-25198	,	-47.771652	,	0
59,31	,	132963	,	-26813	,	-25178	,	-48.699272	,	0
59,31	,	132978	,	-26752	,	-25124	,	-46.597267	,	0
59,31	,	132994	,	-26691	,	-25109	,	-39.27397	,	2
59,32	,	133027	,	-26661	,	-25080	,	-25.475998	,	9
59,32	,	133042	,	-26637	,	-25107	,	-5.7580357	,	22
59,32	,	133058	,	-26633	,	-25089	,	17.561184	,	41
59,32	,	133090	,	-26640	,	-25097	,	41.11582	,	64
59,32	,	133106	,	-26627	,	-25078	,	61.49086	,	87
59,32	,	133138	,	-26647	,	-25087	,	76.130554	,	107
59,32	,	133154	,	-26679	,	-25125	,	83.49793	,	121
59,32	,	133170	,	-26694	,	-25111	,	82.87387	,	128
59,32	,	133203	,	-26692	,	-25115	,	74.66486	,	126
59,32	,	133218	,	-26680	,	-25108	,	60.715622	,	119
59,32	,	133234	,	-26671	,	-25091	,	43.883472	,	106
59,32	,	133266	,	-26667	,	-25105	,	27.104641	,	87
59,32	,	133282	,	-26675	,	-25089	,	12.563551	,	64
59,32	,	133298	,	-26681	,	-25109	,	1.3276863	,	41
59,32	,	133330	,	-26706	,	-25118	,	-6.596489	,	21
59,32	,	133346	,	-26716	,	-25129	,	-11.954796	,	7
59,32	,	133378	,	-26734	,	-25125	,	-15.756157	,	0
59,32	,	133394	,	-26744	,	-25137	,	-18.84816	,	0
59,32	,	133410	,	-26762	,	-25143	,	-21.776562	,	0
59,32	,	133442	,	-26769	,	-25162	,	-24.80104	,	0
59,32	,	133458	,	-26797	,	-25166	,	-27.99246	,	0
59,32	,	133474	,	-26809	,	-25168	,	-31.390049	,	0
59,32	,	133506	,	-26814	,	-25171	,	-34.940716	,	0
59,32	,	133522	,	-26829	,	-25180	,	-38.34809	,	0
59,32	,	133554	,	-26850	,	-25180	,	-41.28882	,	0
59,32	,	133570	,	-26856	,	-25198	,	-43.645126	,	0
59,32	,	133586	,	-26883	,	-25210	,	-45.435425	,	0
59,32	,	133618	,	-26894	,	-25213	,	-46.7834	,	0
59,32	,	133634	,	-26916	,	-25230	,	-47.889755	,	0
59,32	,	133650	,	-26907	,	-25217	,	-48.811485	,	0
59,32	,	133682	,	-26868	,	-25189	,	-49.042625	,	0
59,32	,	133698	,	-26786	,	-25153	,	-47.067688	,	0
59,32	,	133714	,	-26713	,	-25128	,	-40.526054	,	1
59,32	,	133746	,	-26648	,	-25117	,	-27.30784	,	7
59,32	,	133762	,	-26624	,	-25063	,	-6.908407	,	20
59,32	,	133794	,	-26618	,	-25079	,	18.868233	,	40
59,32	,	133810	,	-26604	,	-25065	,	46.404373	,	65
59,32	,	133826	,	-26579	,	-25059	,	71.77401	,	92
59,32	,	133858	,	-26582	,	-25056	,	92.005135	,	117
59,32	,	133874	,	-26591	,	-25053	,	105.242035	,	137
59,32	,	133890	,	-26605	,	-25090	,	110.48564	,	150
59,32	,	133922	,	-26626	,	-25081	,	107.568535	,	154
59,32	,	133938	,	-26622	,	-25086	,	97.263824	,	148
59,32	,	133970	,	-26605	,	-25062	,	81.436966	,	135
59,32	,	133986	,	-26598	,	-25076	,	62.85297	,	115
59,32	,	134002	,	-26591	,	-25068	,	44.37232	,	90
59,33	,	134034	,	-26598	,	-25067	,	28.123322	,	63
59,33	,	134050	,	-26607	,	-25055	,	15.141388	,	38
59,33	,	134066	,	-26640	,	-25060	,	5.362192	,	18
59,33	,	134098	,	-26648	,	-25093	,	-2.0794144	,	5
59,33	,	134114	,	-26666	,	-25101	,	-8.213833	,	0
59,33	,	134130	,	-26682	,	-25084	,	-13.765549	,	0
59,33	,	134162	,	-26697	,	-25094	,	-19.129871	,	0
59,33	,	134178	,	-26698	,	-25118	,	-24.369352	,	0
59,33	,	134210	,	-26726	,	-25137	,	-29.27068	,	0
59,33	,	134226	,	-26736	,	-25121	,	-33.660942	,	0
59,33	,	134242	,	-26756	,	-25158	,	-37.53672	,	0
59,33	,	134274	,	-26781	,	-25138	,	-40.985756	,	0
59,33	,	134290	,	-26790	,	-25162	,	-44.142273	,	0
59,33	,	134306	,	-26810	,	-25150	,	-47.04989	,	0
59,33	,	134338	,	-26819	,	-25197	,	-49.59669	,	0
59,33	,	134354	,	-26850	,	-25193	,	-51.67492	,	0
59,33	,	134386	,	-26869	,	-25190	,	-53.37316	,	0
59,33	,	134402	,	-26872	,	-25204	,	-54.850452	,	0
59,33	,	134418	,	-26876	,	-25203	,	-55.960144	,	0
59,33	,	134450	,	-26885	,	-25203	,	-56.261932	,	0
59,33	,	134466	,	-26837	,	-25166	,	-55.14264	,	0
59,33	,	134482	,	-26752	,	-25152	,	-51.32853	,	1
59,33	,	134514	,	-26673	,	-25091	,	-42.668854	,	4
59,33	,	134530	,	-26626	,	-25059	,	-27.268856	,	12
59,33	,	134562	,	-26565	,	-25075	,	-4.8748283	,	27
59,33	,	134577	,	-26568	,	-25041	,	22.754145	,	49
59,33	,	134593	,	-26546	,	-25042	,	52.21914	,	76
59,33	,	134626	,	-26539	,	-25032	,	79.50052	,	105
59,33	,	134642	,	-26533	,	-25020	,	101.21708	,	132
59,33	,	134658	,	-26538	,	-25044	,	115.20386	,	153
59,33	,	134690	,	-26563	,	-25046	,	120.438896	,	165
59,33	,	134706	,	-26577	,	-25042	,	116.82446	,	167
59,33	,	134722	,	-26571	,	-25056	,	105.269394	,	159
59,33	,	134754	,	-26566	,	-25045	,	87.8633	,	144
59,33	,	134770	,	-26565	,	-25038	,	67.44783	,	122
59,33	,	134802	,	-26561	,	-25048	,	46.81052	,	95
59,33	,	134818	,	-26569	,	-25036	,	28.118954	,	66
59,33	,	134834	,	-26585	,	-25051	,	12.604378	,	39
59,33	,	134866	,	-26603	,	-25069	,	0.4740467	,	18
59,33	,	134881	,	-26611	,	-25065	,	-8.75787	,	5
59,33	,	134898	,	-26633	,	-25068	,	-15.782066	,	0
59,33	,	134929	,	-26651	,	-25083	,	-21.29661	,	0
59,33	,	134946	,	-26659	,	-25099	,	-25.909887	,	0
59,33	,	134978	,	-26673	,	-25111	,	-29.951612	,	0
59,33	,	134994	,	-26692	,	-25090	,	-33.5212	,	0
59,33	,	135010	,	-26713	,	-25123	,	-36.729034	,	0
59,34	,	135041	,	-26731	,	-25140	,	-39.756107	,	0
59,34	,	135057	,	-26767	,	-25139	,	-42.824825	,	0
59,34	,	135073	,	-26769	,	-25150	,	-46.134014	,	0
59,34	,	135105	,	-26785	,	-25157	,	-49.593403	,	0
59,34	,	135121	,	-26798	,	-25159	,	-52.77869	,	0
59,34	,	135138	,	-26808	,	-25163	,	-55.237534	,	0
59,34	,	135170	,	-26820	,	-25173	,	-56.657272	,	0
59,34	,	135185	,	-26839	,	-25167	,	-56.934273	,	0
59,34	,	135217	,	-26843	,	-25182	,	-56.19101	,	0
59,34	,	135233	,	-26867	,	-25160	,	-54.668724	,	0
59,34	,	135250	,	-26903	,	-25210	,	-52.827232	,	1
59,34	,	135282	,	-26897	,	-25205	,	-51.298847	,	2
59,34	,	135298	,	-26867	,	-25184	,	-50.137238	,	3
59,34	,	135313	,	-26792	,	-25162	,	-48.080585	,	4
59,34	,	135345	,	-26696	,	-25099	,	-42.60523	,	6
59,34	,	135361	,	-26657	,	-25067	,	-31.045149	,	11
59,34	,	135393	,	-26626	,	-25067	,	-12.412798	,	22
59,34	,	135409	,	-26608	,	-25059	,	11.768835	,	40
59,34	,	135425	,	-26595	,	-25046	,	38.270947	,	64
59,34	,	135457	,	-26592	,	-25095	,	63.397156	,	89
59,34	,	135473	,	-26579	,	-25036	,	83.95079	,	113
59,34	,	135489	,	-26585	,	-25045	,	97.83758	,	132
59,34	,	135521	,	-26620	,	-25062	,	103.990234	,	144
59,34	,	135537	,	-26630	,	-25063	,	102.01975	,	148
59,34	,	135569	,	-26633	,	-25075	,	92.433426	,	143
59,34	,	135585	,	-26609	,	-25070	,	77.05237	,	132
59,34	,	135601	,	-26608	,	-25059	,	58.73911	,	114
59,34	,	135633	,	-26602	,	-25062	,	40.439972	,	90
59,34	,	135649	,	-26616	,	-25051	,	24.280334	,	64
59,34	,	135665	,	-26621	,	-25058	,	11.250244	,	39
59,34	,	135697	,	-26629	,	-25085	,	1.4346313	,	19
59,34	,	135713	,	-26639	,	-25056	,	-5.5720835	,	6
59,34	,	135729	,	-26665	,	-25111	,	-10.472242	,	0
59,34	,	135761	,	-26682	,	-25119	,	-14.207947	,	0
59,34	,	135777	,	-26701	,	-25130	,	-17.703362	,	0
59,34	,	135809	,	-26716	,	-25118	,	-21.555046	,	0
59,34	,	135825	,	-26737	,	-25142	,	-25.970404	,	0
59,34	,	135841	,	-26744	,	-25128	,	-30.843803	,	0
59,34	,	135873	,	-26761	,	-25117	,	-35.815254	,	0
59,34	,	135889	,	-26778	,	-25132	,	-40.447884	,	0
59,34	,	135905	,	-26795	,	-25152	,	-44.45522	,	0
59,34	,	135937	,	-26803	,	-25184	,	-47.69671	,	0
59,34	,	135953	,	-26816	,	-25157	,	-50.04035	,	0
59,34	,	135986	,	-26849	,	-25178	,	-51.47397	,	0
59,34	,	136001	,	-26852	,	-25168	,	-52.253063	,	0
59,34	,	136017	,	-26869	,	-25174	,	-52.638138	,	0
59,35	,	136049	,	-26886	,	-25202	,	-52.71295	,	0
59,35	,	136065	,	-26895	,	-25207	,	-52.526093	,	0
59,35	,	136081	,	-26911	,	-25216	,	-52.107067	,	0
59,35	,	136113	,	-26913	,	-25203	,	-51.40796	,	0
59,35	,	136129	,	-26920	,	-25192	,	-50.28756	,	0
59,35	,	136145	,	-26852	,	-25191	,	-48.214233	,	1
59,35	,	136177	,	-26787	,	-25177	,	-43.743126	,	3
59,35	,	136193	,	-26721	,	-25104	,	-34.786697	,	7
59,35	,	136225	,	-26662	,	-25087	,	-19.801542	,	15
59,35	,	136241	,	-26641	,	-25088	,	1.2049007	,	29
59,35	,	136257	,	-26661	,	-25113	,	26.159267	,	50
59,35	,	136289	,	-26658	,	-25086	,	51.248814	,	74
59,35	,	136305	,	-26659	,	-25122	,	72.42667	,	99
59,35	,	136321	,	-26670	,	-25122	,	86.82761	,	120
59,35	,	136353	,	-26704	,	-25122	,	92.97641	,	133
59,35	,	136369	,	-26721	,	-25106	,	90.4671	,	137
59,35	,	136401	,	-26725	,	-25107	,	80.021	,	133
59,35	,	136417	,	-26708	,	-25120	,	63.702583	,	125
59,35	,	136433	,	-26694	,	-25095	,	44.633736	,	111
59,35	,	136465	,	-26688	,	-25127	,	26.097588	,	90
59,35	,	136481	,	-26693	,	-25116	,	10.5456085	,	66
59,35	,	136497	,	-26710	,	-25120	,	-0.9402523	,	41
59,35	,	136529	,	-26723	,	-25117	,	-8.569267	,	20
59,35	,	136545	,	-26733	,	-25111	,	-13.28824	,	6
59,35	,	136561	,	-26747	,	-25146	,	-16.172428	,	0
59,35	,	136593	,	-26752	,	-25143	,	-18.099102	,	0
59,35	,	136609	,	-26764	,	-25158	,	-19.640621	,	0
59,35	,	136641	,	-26776	,	-25177	,	-21.114246	,	0
59,35	,	136657	,	-26794	,	-25177	,	-22.729786	,	0
59,35	,	136673	,	-26807	,	-25143	,	-24.665527	,	0
59,35	,	136704	,	-26835	,	-25192	,	-27.084007	,	0
59,35	,	136721	,	-26850	,	-25214	,	-30.140049	,	0
59,35	,	136737	,	-26869	,	-25219	,	-33.875435	,	0
59,35	,	136769	,	-26886	,	-25235	,	-38.11738	,	0
59,35	,	136785	,	-26905	,	-25241	,	-42.561077	,	0
59,35	,	136817	,	-26924	,	-25241	,	-46.90158	,	0
59,35	,	136833	,	-26937	,	-25260	,	-50.86864	,	0
59,35	,	136849	,	-26940	,	-25247	,	-54.137436	,	0
59,35	,	136881	,	-26940	,	-25252	,	-56.23297	,	0
59,35	,	136897	,	-26895	,	-25241	,	-56.4144	,	0
59,35	,	136913	,	-26849	,	-25162	,	-53.4889	,	0
59,35	,	136945	,	-26721	,	-25156	,	-45.672516	,	2
59,35	,	136961	,	-26692	,	-25119	,	-31.047785	,	9
59,35	,	136993	,	-26682	,	-25122	,	-9.2503605	,	23
59,35	,	137009	,	-26699	,	-25122	,	17.218555	,	44
59,36	,	137025	,	-26686	,	-25139	,	43.971027	,	70
59,36	,	137057	,	-26697	,	-25139	,	66.76698	,	96
59,36	,	137072	,	-26705	,	-25147	,	82.65491	,	118
59,36	,	137089	,	-26726	,	-25144	,	90.1062	,	133
59,36	,	137121	,	-26752	,	-25158	,	88.81586	,	140
59,36	,	137137	,	-26759	,	-25166	,	79.54031	,	138
59,36	,	137153	,	-26744	,	-25149	,	64.15831	,	131
59,36	,	137185	,	-26736	,	-25134	,	45.57257	,	117
59,36	,	137200	,	-26723	,	-25136	,	26.984219	,	96
59,36	,	137232	,	-26730	,	-25136	,	10.961861	,	70
59,36	,	137248	,	-26748	,	-25137	,	-1.188364	,	44
59,36	,	137264	,	-26754	,	-25147	,	-9.46704	,	22
59,36	,	137297	,	-26765	,	-25157	,	-14.615604	,	7
59,36	,	137313	,	-26774	,	-25140	,	-17.54577	,	0
59,36	,	137329	,	-26800	,	-25145	,	-19.183306	,	0
59,36	,	137360	,	-26809	,	-25169	,	-20.44235	,	0
59,36	,	137376	,	-26825	,	-25187	,	-22.014658	,	0
59,36	,	137409	,	-26835	,	-25163	,	-24.184776	,	0
59,36	,	137425	,	-26860	,	-25196	,	-26.953268	,	0
59,36	,	137441	,	-26872	,	-25206	,	-30.250366	,	0
59,36	,	137472	,	-26881	,	-25202	,	-33.908356	,	0
59,36	,	137488	,	-26885	,	-25205	,	-37.52086	,	0
59,36	,	137504	,	-26905	,	-25218	,	-40.582794	,	0
59,36	,	137536	,	-26927	,	-25212	,	-42.86439	,	0
59,36	,	137552	,	-26927	,	-25241	,	-44.454166	,	0
59,36	,	137569	,	-26945	,	-25239	,	-45.434517	,	0
59,36	,	137600	,	-26951	,	-25233	,	-45.792694	,	0
59,36	,	137616	,	-26956	,	-25235	,	-45.50614	,	0
59,36	,	137648	,	-26907	,	-25221	,	-44.26066	,	0
59,36	,	137664	,	-26749	,	-25144	,	-40.47473	,	1
59,36	,	137680	,	-26694	,	-25099	,	-31.010897	,	4
59,36	,	137712	,	-26662	,	-25120	,	-13.441065	,	13
59,36	,	137728	,	-26649	,	-25090	,	11.51428	,	30
59,36	,	137744	,	-26641	,	-25090	,	40.308163	,	54
59,36	,	137777	,	-26641	,	-25092	,	68.34796	,	82
59,36	,	137793	,	-26636	,	-25091	,	91.493515	,	110
59,36	,	137824	,	-26635	,	-25088	,	106.982315	,	133
59,36	,	137840	,	-26642	,	-25097	,	113.671555	,	148
59,36	,	137856	,	-26658	,	-25105	,	111.722435	,	153
59,36	,	137888	,	-26675	,	-25097	,	102.14415	,	150
59,36	,	137904	,	-26664	,	-25120	,	86.61415	,	141
59,36	,	137920	,	-26665	,	-25112	,	67.48461	,	124
59,36	,	137952	,	-26655	,	-25092	,	47.44214	,	100
59,36	,	137968	,	-26664	,	-25090	,	28.842789	,	72
59,36	,	137984	,	-26656	,	-25112	,	13.260729	,	44
59,36	,	138016	,	-26676	,	-25108	,	1.3858452	,	21
59,37	,	138032	,	-26677	,	-25103	,	-6.895075	,	6
59,37	,	138064	,	-26694	,	-25103	,	-12.235107	,	0
59,37	,	138080	,	-26714	,	-25118	,	-15.554214	,	0
59,37	,	138096	,	-26722	,	-25130	,	-17.845156	,	0
59,37	,	138128	,	-26739	,	-25137	,	-19.895763	,	0
59,37	,	138144	,	-26766	,	-25148	,	-22.222363	,	0
59,37	,	138160	,	-26770	,	-25167	,	-25.156906	,	0
59,37	,	138192	,	-26781	,	-25156	,	-28.68638	,	0
59,37	,	138208	,	-26807	,	-25165	,	-32.492767	,	0
59,37	,	138240	,	-26824	,	-25170	,	-36.337093	,	0
59,37	,	138256	,	-26840	,	-25185	,	-40.140327	,	0
59,37	,	138272	,	-26838	,	-25180	,	-43.704338	,	0
59,37	,	138304	,	-26855	,	-25159	,	-46.60592	,	0
59,37	,	138320	,	-26876	,	-25214	,	-48.51799	,	0
59,37	,	138336	,	-26883	,	-25194	,	-49.468437	,	0
59,37	,	138368	,	-26902	,	-25189	,	-49.665077	,	0
59,37	,	138384	,	-26914	,	-25228	,	-49.33381	,	0
59,37	,	138416	,	-26929	,	-25209	,	-48.711723	,	0
59,37	,	138432	,	-26894	,	-25188	,	-47.769997	,	0
59,37	,	138448	,	-26825	,	-25143	,	-45.57562	,	0
59,37	,	138480	,	-26728	,	-25138	,	-39.967674	,	2
59,37	,	138496	,	-26660	,	-25084	,	-28.34333	,	7
59,37	,	138512	,	-26622	,	-25069	,	-9.310764	,	18
59,37	,	138544	,	-26593	,	-25057	,	16.159313	,	37
59,37	,	138560	,	-26585	,	-25058	,	44.993114	,	62
59,37	,	138576	,	-26569	,	-25051	,	73.16656	,	90
59,37	,	138608	,	-26564	,	-25030	,	96.93656	,	118
59,37	,	138624	,	-26579	,	-25048	,	113.56588	,	141
59,37	,	138656	,	-26585	,	-25050	,	121.45882	,	157
59,37	,	138672	,	-26605	,	-25057	,	120.192345	,	162
59,37	,	138688	,	-26608	,	-25048	,	110.527054	,	157
59,37	,	138720	,	-26584	,	-25046	,	94.39984	,	146
59,37	,	138736	,	-26583	,	-25039	,	74.718124	,	127
59,37	,	138752	,	-26583	,	-25029	,	54.512997	,	102
59,37	,	138784	,	-26576	,	-25050	,	36.09083	,	74
59,37	,	138800	,	-26594	,	-25038	,	20.790447	,	46
59,37	,	138832	,	-26595	,	-25029	,	9.00498	,	23
59,37	,	138848	,	-26612	,	-25055	,	0.40849876	,	7
59,37	,	138864	,	-26635	,	-25068	,	-5.7679167	,	0
59,37	,	138896	,	-26644	,	-25078	,	-10.519343	,	0
59,37	,	138912	,	-26665	,	-25081	,	-14.713003	,	0
59,37	,	138928	,	-26676	,	-25075	,	-18.877768	,	0
59,37	,	138960	,	-26688	,	-25080	,	-23.203453	,	0
59,37	,	138976	,	-26706	,	-25116	,	-27.605175	,	0
59,37	,	138992	,	-26719	,	-25110	,	-31.900219	,	0
59,38	,	139024	,	-26740	,	-25102	,	-35.945023	,	0
59,38	,	139040	,	-26737	,	-25112	,	-39.582344	,	0
59,38	,	139072	,	-26761	,	-25127	,	-42.564564	,	0
59,38	,	139088	,	-26768	,	-25116	,	-44.704147	,	0
59,38	,	139104	,	-26790	,	-25129	,	-46.026413	,	0
59,38	,	139136	,	-26806	,	-25143	,	-46.740845	,	0
59,38	,	139152	,	-26817	,	-25134	,	-47.122833	,	0
59,38	,	139168	,	-26833	,	-25170	,	-47.34713	,	0
59,38	,	139200	,	-26840	,	-25166	,	-47.44377	,	0
59,38	,	139216	,	-26852	,	-25171	,	-47.34585	,	0
59,38	,	139247	,	-26870	,	-25185	,	-46.984818	,	0
59,38	,	139264	,	-26874	,	-25180	,	-46.3796	,	0
59,38	,	139280	,	-26855	,	-25179	,	-45.40007	,	0
59,38	,	139312	,	-26793	,	-25119	,	-43.244354	,	0
59,38	,	139328	,	-26699	,	-25089	,	-38.083298	,	2
59,38	,	139344	,	-26592	,	-25035	,	-27.335194	,	7
59,38	,	139376	,	-26573	,	-25036	,	-9.055744	,	17
59,38	,	139392	,	-26559	,	-25021	,	16.177698	,	35
59,38	,	139408	,	-26554	,	-25012	,	44.973473	,	60
59,38	,	139440	,	-26546	,	-25014	,	72.7705	,	88
59,38	,	139456	,	-26545	,	-25016	,	95.548904	,	115
59,38	,	139487	,	-26552	,	-25003	,	110.614655	,	137
59,38	,	139503	,	-26575	,	-25017	,	116.64946	,	152
59,38	,	139519	,	-26595	,	-25034	,	113.46981	,	156
59,38	,	139551	,	-26593	,	-25011	,	101.98404	,	151
59,38	,	139567	,	-26578	,	-25027	,	84.33105	,	141
59,38	,	139584	,	-26561	,	-25014	,	63.652027	,	123
59,38	,	139616	,	-26556	,	-25015	,	43.264103	,	98
59,38	,	139632	,	-26566	,	-25025	,	25.652767	,	70
59,38	,	139663	,	-26567	,	-25033	,	11.960669	,	43
59,38	,	139679	,	-26592	,	-25017	,	2.1547604	,	21
59,38	,	139695	,	-26605	,	-25020	,	-4.5855026	,	6
59,38	,	139727	,	-26606	,	-25042	,	-9.3408785	,	0
59,38	,	139743	,	-26620	,	-25031	,	-12.919458	,	0
59,38	,	139759	,	-26647	,	-25059	,	-15.890944	,	0
59,38	,	139791	,	-26648	,	-25048	,	-18.789608	,	0
59,38	,	139808	,	-26666	,	-25055	,	-21.912127	,	0
59,38	,	139839	,	-26689	,	-25063	,	-25.291834	,	0
59,38	,	139855	,	-26701	,	-25082	,	-28.945368	,	0
59,38	,	139872	,	-26708	,	-25092	,	-32.79244	,	0
59,38	,	139903	,	-26731	,	-25075	,	-36.55788	,	0
59,38	,	139919	,	-26743	,	-25096	,	-39.993755	,	0
59,38	,	139935	,	-26752	,	-25082	,	-42.950485	,	0
59,38	,	139967	,	-26765	,	-25095	,	-45.251305	,	0
59,38	,	139983	,	-26763	,	-25127	,	-46.6768	,	0
59,38	,	139999	,	-26783	,	-25110	,	-47.051586	,	0
59,39	,	140031	,	-26784	,	-25109	,	-46.372917	,	0
59,39	,	140047	,	-26816	,	-25137	,	-44.90314	,	0
59,39	,	140079	,	-26822	,	-25141	,	-43.154213	,	1
59,39	,	140095	,	-26811	,	-25132	,	-41.514854	,	2
59,39	,	140111	,	-26766	,	-25119	,	-39.60345	,	3
59,39	,	140144	,	-26699	,	-25059	,	-35.99265	,	4
59,39	,	140159	,	-26631	,	-25040	,	-28.615356	,	7
59,39	,	140175	,	-26595	,	-25026	,	-15.826124	,	14
59,39	,	140207	,	-26581	,	-25006	,	2.390997	,	26
59,39	,	140223	,	-26577	,	-25013	,	24.054216	,	44
59,39	,	140255	,	-26583	,	-25041	,	45.90837	,	65
59,39	,	140271	,	-26571	,	-24996	,	64.6386	,	85
59,39	,	140287	,	-26615	,	-25041	,	77.69724	,	102
59,39	,	140319	,	-26637	,	-25035	,	83.3477	,	114
59,39	,	140335	,	-26644	,	-25046	,	80.82447	,	118
59,39	,	140351	,	-26652	,	-25035	,	70.84024	,	115
59,39	,	140383	,	-26643	,	-25067	,	55.490746	,	108
59,39	,	140399	,	-26621	,	-25028	,	37.689724	,	96
59,39	,	140415	,	-26625	,	-25060	,	20.47258	,	78
59,39	,	140447	,	-26617	,	-25016	,	6.1490326	,	57
59,39	,	140463	,	-26624	,	-25017	,	-4.142603	,	36
59,39	,	140495	,	-26632	,	-25051	,	-10.348222	,	18
59,39	,	140511	,	-26649	,	-25033	,	-13.243573	,	5
59,39	,	140527	,	-26674	,	-25047	,	-14.137026	,	0
59,39	,	140559	,	-26686	,	-25063	,	-14.487882	,	0
59,39	,	140575	,	-26701	,	-25059	,	-15.422073	,	0
59,39	,	140591	,	-26712	,	-25078	,	-17.450758	,	0
59,39	,	140623	,	-26727	,	-25076	,	-20.562897	,	0
59,39	,	140639	,	-26732	,	-25090	,	-24.415815	,	0
59,39	,	140671	,	-26745	,	-25088	,	-28.483341	,	0
59,39	,	140687	,	-26763	,	-25096	,	-32.283226	,	0
59,39	,	140703	,	-26773	,	-25094	,	-35.569366	,	0
59,39	,	140735	,	-26791	,	-25116	,	-38.28502	,	0
59,39	,	140751	,	-26794	,	-25110	,	-40.41262	,	0
59,39	,	140767	,	-26823	,	-25141	,	-41.960068	,	0
59,39	,	140799	,	-26834	,	-25152	,	-43.08639	,	0
59,39	,	140815	,	-26847	,	-25156	,	-44.02746	,	0
59,39	,	140847	,	-26855	,	-25159	,	-44.853638	,	0
59,39	,	140863	,	-26852	,	-25137	,	-45.3815	,	0
59,39	,	140879	,	-26821	,	-25106	,	-45.061836	,	0
59,39	,	140911	,	-26739	,	-25095	,	-42.63642	,	0
59,39	,	140927	,	-26657	,	-25059	,	-35.992867	,	2
59,39	,	140943	,	-26620	,	-25023	,	-23.103794	,	8
59,39	,	140975	,	-26582	,	-25064	,	-3.5886116	,	20
59,39	,	140991	,	-26569	,	-25005	,	20.77711	,	39
59,39	,	141007	,	-26577	,	-25011	,	46.683502	,	63
59,40	,	141039	,	-26578	,	-25016	,	70.22608	,	88
59,40	,	141055	,	-26579	,	-25014	,	88.02902	,	111
59,40	,	141087	,	-26588	,	-25032	,	98.07119	,	128
59,40	,	141103	,	-26615	,	-25033	,	99.69678	,	138
59,40	,	141119	,	-26630	,	-25039	,	93.247154	,	137
59,40	,	141151	,	-26622	,	-25028	,	80.01033	,	131
59,40	,	141167	,	-26604	,	-25015	,	62.362946	,	119
59,40	,	141183	,	-26605	,	-25016	,	43.345272	,	100
59,40	,	141215	,	-26591	,	-25057	,	25.728146	,	76
59,40	,	141231	,	-26602	,	-25005	,	11.359831	,	51
59,40	,	141263	,	-26620	,	-25034	,	0.8941307	,	28
59,40	,	141279	,	-26637	,	-25047	,	-6.1545315	,	11
59,40	,	141295	,	-26640	,	-25038	,	-10.833754	,	1
59,40	,	141327	,	-26657	,	-25046	,	-14.1129875	,	0
59,40	,	141343	,	-26667	,	-25054	,	-16.702995	,	0
59,40	,	141359	,	-26682	,	-25048	,	-19.105402	,	0
59,40	,	141391	,	-26695	,	-25049	,	-21.621935	,	0
59,40	,	141407	,	-26704	,	-25077	,	-24.349098	,	0
59,40	,	141423	,	-26723	,	-25087	,	-27.224297	,	0
59,40	,	141455	,	-26734	,	-25087	,	-30.148983	,	0
59,40	,	141471	,	-26750	,	-25082	,	-33.042755	,	0
59,40	,	141502	,	-26776	,	-25093	,	-35.873863	,	0
59,40	,	141518	,	-26794	,	-25129	,	-38.74085	,	0
59,40	,	141534	,	-26790	,	-25134	,	-41.673946	,	0
59,40	,	141567	,	-26814	,	-25127	,	-44.39315	,	0
59,40	,	141583	,	-26831	,	-25137	,	-46.58824	,	0
59,40	,	141599	,	-26834	,	-25149	,	-48.16678	,	0
59,40	,	141631	,	-26848	,	-25157	,	-49.0608	,	0
59,40	,	141647	,	-26824	,	-25137	,	-49.021652	,	0
59,40	,	141678	,	-26746	,	-25089	,	-47.179527	,	0
59,40	,	141694	,	-26671	,	-25091	,	-41.632698	,	1
59,40	,	141710	,	-26593	,	-25003	,	-30.121346	,	6
59,40	,	141743	,	-26527	,	-24992	,	-11.327839	,	17
59,40	,	141759	,	-26518	,	-24993	,	14.163368	,	35
59,40	,	141775	,	-26499	,	-24980	,	43.56508	,	60
59,40	,	141807	,	-26499	,	-24967	,	72.691315	,	89
59,40	,	141822	,	-26487	,	-24981	,	97.43591	,	118
59,40	,	141839	,	-26494	,	-24970	,	114.82265	,	142
59,40	,	141870	,	-26506	,	-24985	,	123.272514	,	159
59,40	,	141887	,	-26530	,	-24978	,	122.39981	,	166
59,40	,	141918	,	-26530	,	-24993	,	112.8782	,	161
59,40	,	141934	,	-26523	,	-24999	,	96.5235	,	150
59,40	,	141951	,	-26519	,	-24957	,	76.09528	,	132
59,40	,	141982	,	-26508	,	-24969	,	54.63497	,	107
59,40	,	141998	,	-26511	,	-24970	,	34.76855	,	78
59,40	,	142014	,	-26518	,	-24978	,	18.202873	,	49
59,41	,	142046	,	-26521	,	-24973	,	5.58156	,	25
59,41	,	142063	,	-26540	,	-24985	,	-3.2929459	,	8
59,41	,	142094	,	-26552	,	-24990	,	-9.199504	,	0
59,41	,	142110	,	-26572	,	-24989	,	-13.209329	,	0
59,41	,	142126	,	-26584	,	-25006	,	-16.342987	,	0
59,41	,	142158	,	-26589	,	-25013	,	-19.279219	,	0
59,41	,	142174	,	-26618	,	-25015	,	-22.308575	,	0
59,41	,	142190	,	-26627	,	-25016	,	-25.578024	,	0
59,41	,	142222	,	-26645	,	-25035	,	-29.160385	,	0
59,41	,	142238	,	-26668	,	-25043	,	-32.998245	,	0
59,41	,	142270	,	-26674	,	-25051	,	-36.962837	,	0
59,41	,	142286	,	-26696	,	-25059	,	-40.835064	,	0
59,41	,	142302	,	-26706	,	-25063	,	-44.348526	,	0
59,41	,	142334	,	-26712	,	-25066	,	-47.242203	,	0
59,41	,	142350	,	-26737	,	-25092	,	-49.281883	,	0
59,41	,	142366	,	-26740	,	-25094	,	-50.400276	,	0
59,41	,	142398	,	-26758	,	-25097	,	-50.674976	,	0
59,41	,	142414	,	-26762	,	-25129	,	-50.20302	,	0
59,41	,	142430	,	-26776	,	-25106	,	-49.091423	,	0
59,41	,	142462	,	-26792	,	-25085	,	-47.510025	,	1
59,41	,	142478	,	-26726	,	-25093	,	-45.365604	,	2
59,41	,	142510	,	-26656	,	-25042	,	-41.470448	,	4
59,41	,	142526	,	-26576	,	-24995	,	-33.54235	,	7
59,41	,	142542	,	-26521	,	-24985	,	-19.526062	,	14
59,41	,	142574	,	-26493	,	-24961	,	1.0040836	,	28
59,41	,	142590	,	-26478	,	-24963	,	26.299078	,	48
59,41	,	142606	,	-26473	,	-24949	,	52.980625	,	73
59,41	,	142638	,	-26458	,	-24943	,	77.27722	,	99
59,41	,	142654	,	-26436	,	-24943	,	96.25616	,	122
59,41	,	142686	,	-26440	,	-24930	,	108.3789	,	139
59,41	,	142702	,	-26467	,	-24952	,	113.083145	,	149
59,41	,	142718	,	-26475	,	-24961	,	110.26235	,	150
59,41	,	142750	,	-26473	,	-24957	,	100.50441	,	143
59,41	,	142766	,	-26465	,	-24951	,	85.4565	,	129
59,41	,	142782	,	-26455	,	-24949	,	67.55328	,	109
59,41	,	142814	,	-26464	,	-24953	,	49.29145	,	84
59,41	,	142830	,	-26465	,	-24947	,	32.54178	,	58
59,41	,	142862	,	-26472	,	-24945	,	18.339458	,	34
59,41	,	142878	,	-26472	,	-24953	,	7.0922203	,	16
59,41	,	142894	,	-26496	,	-24963	,	-1.2865067	,	4
59,41	,	142926	,	-26510	,	-24966	,	-7.393676	,	0
59,41	,	142942	,	-26538	,	-24972	,	-12.177601	,	0
59,41	,	142958	,	-26547	,	-24978	,	-16.559036	,	0
59,41	,	142990	,	-26562	,	-24986	,	-21.070908	,	0
59,41	,	143006	,	-26577	,	-24998	,	-25.787527	,	0
59,42	,	143022	,	-26596	,	-25006	,	-30.560867	,	0
59,42	,	143054	,	-26603	,	-25017	,	-35.182205	,	0
59,42	,	143070	,	-26627	,	-25019	,	-39.405968	,	0
59,42	,	143102	,	-26640	,	-25037	,	-43.066498	,	0
59,42	,	143118	,	-26643	,	-25040	,	-46.057407	,	0
59,42	,	143134	,	-26659	,	-25027	,	-48.18388	,	0
59,42	,	143166	,	-26673	,	-25048	,	-49.305653	,	0
59,42	,	143182	,	-26703	,	-25052	,	-49.59566	,	0
59,42	,	143198	,	-26711	,	-25066	,	-49.49286	,	0
59,42	,	143230	,	-26730	,	-25080	,	-49.3873	,	0
59,42	,	143246	,	-26740	,	-25081	,	-49.428345	,	0
59,42	,	143278	,	-26757	,	-25079	,	-49.590965	,	0
59,42	,	143294	,	-26771	,	-25095	,	-49.792557	,	0
59,42	,	143310	,	-26786	,	-25118	,	-49.96525	,	0
59,42	,	143342	,	-26799	,	-25112	,	-50.0616	,	0
59,42	,	143358	,	-26773	,	-25108	,	-49.844093	,	0
59,42	,	143374	,	-26706	,	-25047	,	-48.339325	,	0
59,42	,	143406	,	-26614	,	-25013	,	-43.47139	,	1
59,42	,	143422	,	-26510	,	-24973	,	-32.534172	,	5
59,42	,	143438	,	-26486	,	-24962	,	-13.652199	,	15
59,42	,	143470	,	-26480	,	-24961	,	12.452856	,	33
59,42	,	143486	,	-26475	,	-24951	,	42.18764	,	59
59,42	,	143518	,	-26470	,	-24948	,	70.753586	,	88
59,42	,	143534	,	-26473	,	-24942	,	93.95394	,	116
59,42	,	143550	,	-26479	,	-24949	,	109.020325	,	139
59,42	,	143581	,	-26504	,	-24960	,	114.68023	,	154
59,42	,	143598	,	-26537	,	-24979	,	110.82921	,	158
59,42	,	143614	,	-26521	,	-24956	,	98.43036	,	154
59,42	,	143646	,	-26514	,	-24958	,	79.802475	,	144
59,42	,	143662	,	-26488	,	-24960	,	58.376373	,	126
59,42	,	143694	,	-26472	,	-24953	,	37.750443	,	100
59,42	,	143710	,	-26493	,	-24951	,	20.620502	,	71
59,42	,	143725	,	-26496	,	-24956	,	8.046667	,	43
59,42	,	143757	,	-26511	,	-24975	,	-0.33281136	,	20
59,42	,	143774	,	-26526	,	-24968	,	-5.5694427	,	5
59,42	,	143790	,	-26523	,	-24975	,	-8.842098	,	0
59,42	,	143822	,	-26546	,	-24984	,	-11.085991	,	0
59,42	,	143838	,	-26561	,	-24993	,	-13.016098	,	0
59,42	,	143854	,	-26565	,	-24972	,	-15.188143	,	0
59,42	,	143885	,	-26596	,	-24990	,	-17.885336	,	0
59,42	,	143902	,	-26611	,	-25010	,	-21.262577	,	0
59,42	,	143934	,	-26638	,	-24999	,	-25.461027	,	0
59,42	,	143950	,	-26632	,	-25019	,	-30.382168	,	0
59,42	,	143966	,	-26651	,	-25019	,	-35.505527	,	0
59,42	,	143997	,	-26658	,	-25031	,	-40.12764	,	0
59,42	,	144014	,	-26667	,	-25041	,	-43.713657	,	0
59,43	,	144030	,	-26682	,	-25038	,	-45.98765	,	0
59,43	,	144061	,	-26695	,	-25044	,	-46.960728	,	0
59,43	,	144078	,	-26720	,	-25065	,	-46.950226	,	0
59,43	,	144110	,	-26731	,	-25054	,	-46.4635	,	0
59,43	,	144126	,	-26738	,	-25085	,	-45.913742	,	0
59,43	,	144142	,	-26753	,	-25087	,	-45.42231	,	0
59,43	,	144174	,	-26754	,	-25071	,	-44.901093	,	0
59,43	,	144190	,	-26725	,	-25064	,	-43.979797	,	0
59,43	,	144206	,	-26664	,	-25024	,	-41.61783	,	0
59,43	,	144238	,	-26587	,	-24989	,	-35.968437	,	2
59,43	,	144253	,	-26537	,	-24974	,	-25.060759	,	7
59,43	,	144285	,	-26524	,	-24963	,	-8.169779	,	17
59,43	,	144301	,	-26512	,	-24954	,	13.287079	,	33
59,43	,	144317	,	-26514	,	-24969	,	36.2352	,	54
59,43	,	144349	,	-26519	,	-24953	,	57.14848	,	76
59,43	,	144366	,	-26514	,	-24968	,	73.08872	,	96
59,43	,	144382	,	-26551	,	-24975	,	82.20528	,	111
59,43	,	144414	,	-26563	,	-24982	,	83.64137	,	120
59,43	,	144429	,	-26569	,	-24973	,	77.55284	,	119
59,43	,	144445	,	-26568	,	-24974	,	65.322266	,	114
59,43	,	144477	,	-26550	,	-24960	,	49.35027	,	104
59,43	,	144493	,	-26545	,	-24960	,	32.47131	,	88
59,43	,	144526	,	-26528	,	-24963	,	17.266397	,	67
59,43	,	144541	,	-26540	,	-24957	,	5.4730434	,	45
59,43	,	144557	,	-26545	,	-24982	,	-2.3475904	,	25
59,43	,	144590	,	-26570	,	-24959	,	-6.761712	,	10
59,43	,	144606	,	-26584	,	-24992	,	-9.043894	,	1
59,43	,	144621	,	-26591	,	-24986	,	-10.54617	,	0
59,43	,	144653	,	-26603	,	-24998	,	-12.162451	,	0
59,43	,	144669	,	-26612	,	-24990	,	-14.253393	,	0
59,43	,	144701	,	-26640	,	-25006	,	-16.928305	,	0
59,43	,	144718	,	-26637	,	-25017	,	-20.216892	,	0
59,43	,	144733	,	-26660	,	-25022	,	-23.969418	,	0
59,43	,	144765	,	-26675	,	-25023	,	-27.914059	,	0
59,43	,	144781	,	-26675	,	-25030	,	-31.78561	,	0
59,43	,	144797	,	-26694	,	-25067	,	-35.24562	,	0
59,43	,	144829	,	-26716	,	-25034	,	-38.059574	,	0
59,43	,	144845	,	-26729	,	-25048	,	-40.317234	,	0
59,43	,	144861	,	-26741	,	-25092	,	-42.208786	,	0
59,43	,	144893	,	-26754	,	-25073	,	-43.789097	,	0
59,43	,	144909	,	-26774	,	-25070	,	-45.051384	,	0
59,43	,	144941	,	-26753	,	-25065	,	-45.890923	,	0
59,43	,	144958	,	-26703	,	-25046	,	-45.60995	,	0
59,43	,	144973	,	-26634	,	-24997	,	-42.5625	,	0
59,43	,	145005	,	-26568	,	-24976	,	-34.654377	,	3
59,44	,	145021	,	-26523	,	-24959	,	-20.453875	,	10
59,44	,	145037	,	-26514	,	-24968	,	-0.2482357	,	24
59,44	,	145069	,	-26501	,	-24940	,	23.668884	,	44
59,44	,	145085	,	-26493	,	-24951	,	47.854008	,	67
59,44	,	145117	,	-26498	,	-24951	,	68.92922	,	91
59,44	,	145133	,	-26507	,	-24958	,	84.25099	,	112
59,44	,	145149	,	-26525	,	-24963	,	92.147896	,	127
59,44	,	145181	,	-26547	,	-24974	,	91.991684	,	134
59,44	,	145197	,	-26544	,	-24971	,	84.24896	,	131
59,44	,	145213	,	-26524	,	-24964	,	70.651764	,	124
59,44	,	145245	,	-26521	,	-24962	,	53.968243	,	110
59,44	,	145261	,	-26514	,	-24947	,	37.08577	,	90
59,44	,	145293	,	-26509	,	-24978	,	22.201488	,	67
59,44	,	145309	,	-26519	,	-24941	,	10.53985	,	43
59,44	,	145325	,	-26539	,	-24959	,	2.2644882	,	22
59,44	,	145357	,	-26545	,	-24971	,	-3.3156118	,	7
59,44	,	145373	,	-26566	,	-24970	,	-7.2085934	,	0
59,44	,	145389	,	-26567	,	-24984	,	-10.305155	,	0
59,44	,	145421	,	-26587	,	-24989	,	-13.191655	,	0
59,44	,	145437	,	-26604	,	-24996	,	-16.214554	,	0
59,44	,	145453	,	-26617	,	-25009	,	-19.610851	,	0
59,44	,	145485	,	-26625	,	-25013	,	-23.414585	,	0
59,44	,	145501	,	-26642	,	-25020	,	-27.40503	,	0
59,44	,	145533	,	-26655	,	-25046	,	-31.293537	,	0
59,44	,	145549	,	-26673	,	-25022	,	-34.88704	,	0
59,44	,	145565	,	-26694	,	-25066	,	-38.140823	,	0
59,44	,	145597	,	-26708	,	-25054	,	-41.12873	,	0
59,44	,	145613	,	-26721	,	-25058	,	-43.886513	,	0
59,44	,	145629	,	-26744	,	-25055	,	-46.353786	,	0
59,44	,	145661	,	-26746	,	-25078	,	-48.445972	,	0
59,44	,	145677	,	-26751	,	-25075	,	-49.95865	,	0
59,44	,	145709	,	-26740	,	-25052	,	-50.45172	,	0
59,44	,	145725	,	-26663	,	-25036	,	-49.013397	,	0
59,44	,	145741	,	-26580	,	-24995	,	-43.834274	,	1
59,44	,	145773	,	-26525	,	-24971	,	-32.71541	,	6
59,44	,	145789	,	-26480	,	-24934	,	-14.601397	,	17
59,44	,	145805	,	-26449	,	-24924	,	9.536251	,	35
59,44	,	145837	,	-26427	,	-24913	,	37.053886	,	59
59,44	,	145853	,	-26412	,	-24915	,	64.51474	,	86
59,44	,	145869	,	-26398	,	-24901	,	88.5983	,	113
59,44	,	145901	,	-26404	,	-24907	,	106.716774	,	137
59,44	,	145917	,	-26419	,	-24907	,	117.1517	,	155
59,44	,	145948	,	-26431	,	-24922	,	119.05568	,	164
59,44	,	145965	,	-26440	,	-24927	,	112.61839	,	160
59,44	,	145981	,	-26430	,	-24908	,	99.19909	,	149
59,44	,	146013	,	-26418	,	-24927	,	81.19738	,	131
59,45	,	146029	,	-26408	,	-24892	,	61.542236	,	107
59,45	,	146045	,	-26410	,	-24907	,	42.893333	,	80
59,45	,	146077	,	-26414	,	-24908	,	26.995033	,	53
59,45	,	146093	,	-26430	,	-24928	,	14.491098	,	29
59,45	,	146125	,	-26436	,	-24921	,	5.1552887	,	11
59,45	,	146141	,	-26443	,	-24925	,	-1.6446772	,	1
59,45	,	146157	,	-26469	,	-24924	,	-6.6525545	,	0
59,45	,	146189	,	-26479	,	-24937	,	-10.692479	,	0
59,45	,	146205	,	-26497	,	-24948	,	-14.491002	,	0
59,45	,	146221	,	-26511	,	-24949	,	-18.464622	,	0
59,45	,	146252	,	-26530	,	-24947	,	-22.759436	,	0
59,45	,	146269	,	-26525	,	-24961	,	-27.260475	,	0
59,45	,	146284	,	-26561	,	-24972	,	-31.6399	,	0
59,45	,	146317	,	-26574	,	-24981	,	-35.70459	,	0
59,45	,	146333	,	-26586	,	-24980	,	-39.47056	,	0
59,45	,	146364	,	-26597	,	-24992	,	-42.852024	,	0
59,45	,	146381	,	-26609	,	-24991	,	-45.615906	,	0
59,45	,	146397	,	-26633	,	-25008	,	-47.611908	,	0
59,45	,	146428	,	-26645	,	-25007	,	-48.922478	,	0
59,45	,	146445	,	-26650	,	-25014	,	-49.70243	,	0
59,45	,	146461	,	-26665	,	-25020	,	-49.957256	,	0
59,45	,	146493	,	-26669	,	-25032	,	-49.611973	,	0
59,45	,	146509	,	-26690	,	-25037	,	-48.666924	,	0
59,45	,	146540	,	-26577	,	-24973	,	-46.694954	,	0
59,45	,	146557	,	-26503	,	-24944	,	-41.82832	,	1
59,45	,	146573	,	-26451	,	-24923	,	-31.386806	,	5
59,45	,	146604	,	-26407	,	-24897	,	-14.025238	,	15
59,45	,	146620	,	-26387	,	-24893	,	9.295094	,	32
59,45	,	146636	,	-26375	,	-24883	,	35.78708	,	55
59,45	,	146669	,	-26367	,	-24877	,	61.784878	,	81
59,45	,	146685	,	-26341	,	-24866	,	83.923904	,	106
59,45	,	146716	,	-26330	,	-24862	,	100.0571	,	128
59,45	,	146732	,	-26332	,	-24866	,	109.31309	,	144
59,45	,	146748	,	-26338	,	-24873	,	111.598854	,	152
59,45	,	146781	,	-26365	,	-24859	,	107.22809	,	150
59,45	,	146796	,	-26347	,	-24866	,	96.94581	,	140
59,45	,	146813	,	-26337	,	-24859	,	82.29428	,	123
59,45	,	146844	,	-26352	,	-24850	,	65.457245	,	100
59,45	,	146860	,	-26346	,	-24864	,	48.42989	,	74
59,45	,	146876	,	-26349	,	-24856	,	32.651604	,	49
59,45	,	146908	,	-26356	,	-24877	,	19.07954	,	27
59,45	,	146924	,	-26375	,	-24887	,	8.084312	,	11
59,45	,	146956	,	-26381	,	-24893	,	-0.5503464	,	2
59,45	,	146972	,	-26403	,	-24887	,	-7.3525724	,	0
59,45	,	146989	,	-26400	,	-24894	,	-12.8560095	,	0
59,46	,	147020	,	-26438	,	-24910	,	-17.493773	,	0
59,46	,	147036	,	-26465	,	-24916	,	-21.816349	,	0
59,46	,	147052	,	-26469	,	-24922	,	-26.430672	,	0
59,46	,	147084	,	-26486	,	-24939	,	-31.479954	,	0
59,46	,	147100	,	-26506	,	-24932	,	-36.637604	,	0
59,46	,	147132	,	-26527	,	-24937	,	-41.577663	,	0
59,46	,	147148	,	-26529	,	-24953	,	-46.060467	,	0
59,46	,	147164	,	-26543	,	-24954	,	-49.73823	,	0
59,46	,	147196	,	-26551	,	-24956	,	-52.219803	,	0
59,46	,	147212	,	-26552	,	-24956	,	-53.24216	,	0
59,46	,	147228	,	-26565	,	-24967	,	-52.701424	,	0
59,46	,	147260	,	-26595	,	-24989	,	-50.83737	,	0
59,46	,	147276	,	-26607	,	-24991	,	-48.357094	,	1
59,46	,	147292	,	-26627	,	-24993	,	-46.073807	,	3
59,46	,	147324	,	-26641	,	-25007	,	-44.52031	,	5
59,46	,	147340	,	-26665	,	-25007	,	-43.935738	,	6
59,46	,	147372	,	-26658	,	-25004	,	-44.269493	,	6
59,46	,	147389	,	-26680	,	-25036	,	-45.119812	,	6
59,46	,	147404	,	-26640	,	-24998	,	-45.75695	,	6
59,46	,	147436	,	-26582	,	-24970	,	-44.86398	,	6
59,46	,	147452	,	-26495	,	-24937	,	-40.301537	,	6
59,46	,	147468	,	-26444	,	-24900	,	-29.821962	,	9
59,46	,	147500	,	-26409	,	-24891	,	-12.477076	,	17
59,46	,	147516	,	-26398	,	-24877	,	10.511017	,	32
59,46	,	147548	,	-26394	,	-24881	,	36.06885	,	53
59,46	,	147564	,	-26387	,	-24883	,	60.39255	,	78
59,46	,	147580	,	-26385	,	-24874	,	80.15365	,	102
59,46	,	147612	,	-26394	,	-24883	,	93.16228	,	121
59,46	,	147628	,	-26410	,	-24889	,	98.375305	,	134
59,46	,	147644	,	-26427	,	-24892	,	95.709	,	139
59,46	,	147676	,	-26426	,	-24905	,	86.00601	,	135
59,46	,	147692	,	-26407	,	-24882	,	71.140396	,	125
59,46	,	147708	,	-26405	,	-24879	,	53.79416	,	108
59,46	,	147740	,	-26402	,	-24892	,	36.644253	,	86
59,46	,	147756	,	-26392	,	-24893	,	21.671219	,	61
59,46	,	147788	,	-26426	,	-24902	,	9.887354	,	37
59,46	,	147804	,	-26419	,	-24898	,	1.26371	,	18
59,46	,	147820	,	-26439	,	-24903	,	-4.846243	,	5
59,46	,	147852	,	-26457	,	-24908	,	-9.244163	,	0
59,46	,	147868	,	-26467	,	-24919	,	-12.775253	,	0
59,46	,	147884	,	-26481	,	-24919	,	-16.096344	,	0
59,46	,	147916	,	-26492	,	-24932	,	-19.508072	,	0
59,46	,	147932	,	-26505	,	-24923	,	-23.048145	,	0
59,46	,	147964	,	-26518	,	-24942	,	-26.61007	,	0
59,46	,	147980	,	-26540	,	-24948	,	-30.081284	,	0
59,46	,	147996	,	-26559	,	-24954	,	-33.474808	,	0
59,47	,	148028	,	-26568	,	-24958	,	-36.85319	,	0
59,47	,	148044	,	-26581	,	-24964	,	-40.115578	,	0
59,47	,	148060	,	-26598	,	-24974	,	-43.02137	,	0
59,47	,	148092	,	-26601	,	-24978	,	-45.349133	,	0
59,47	,	148108	,	-26628	,	-24983	,	-46.96367	,	0
59,47	,	148124	,	-26629	,	-24988	,	-47.873234	,	0
59,47	,	148156	,	-26641	,	-24993	,	-48.130875	,	0
59,47	,	148172	,	-26655	,	-24987	,	-47.74582	,	0
59,47	,	148204	,	-26665	,	-25003	,	-46.809326	,	0
59,47	,	148220	,	-26597	,	-24977	,	-45.124695	,	0
59,47	,	148236	,	-26538	,	-24939	,	-41.429146	,	1
59,47	,	148268	,	-26469	,	-24908	,	-33.625816	,	4
59,47	,	148284	,	-26431	,	-24889	,	-20.11289	,	11
59,47	,	148300	,	-26426	,	-24895	,	-1.019598	,	24
59,47	,	148331	,	-26410	,	-24886	,	21.505909	,	43
59,47	,	148347	,	-26416	,	-24883	,	44.157494	,	65
59,47	,	148380	,	-26419	,	-24885	,	63.62462	,	87
59,47	,	148396	,	-26416	,	-24889	,	77.39435	,	106
59,47	,	148412	,	-26414	,	-24878	,	84.25819	,	119
59,47	,	148444	,	-26443	,	-24899	,	84.19832	,	124
59,47	,	148459	,	-26460	,	-24902	,	77.788315	,	121
59,47	,	148475	,	-26449	,	-24897	,	66.07497	,	114
59,47	,	148508	,	-26425	,	-24890	,	50.996662	,	101
59,47	,	148524	,	-26424	,	-24893	,	35.19758	,	82
59,47	,	148556	,	-26420	,	-24889	,	21.03774	,	60
59,47	,	148572	,	-26445	,	-24896	,	9.783928	,	38
59,47	,	148588	,	-26459	,	-24903	,	1.4657536	,	19
59,47	,	148619	,	-26463	,	-24906	,	-4.6305237	,	6
59,47	,	148635	,	-26466	,	-24909	,	-9.208877	,	0
59,47	,	148651	,	-26488	,	-24908	,	-12.7232275	,	0
59,47	,	148684	,	-26488	,	-24920	,	-15.567835	,	0
59,47	,	148700	,	-26526	,	-24921	,	-18.164824	,	0
59,47	,	148716	,	-26538	,	-24939	,	-21.006212	,	0
59,47	,	148748	,	-26557	,	-24939	,	-24.513395	,	0
59,47	,	148764	,	-26561	,	-24949	,	-28.71687	,	0
59,47	,	148796	,	-26571	,	-24956	,	-33.19771	,	0
59,47	,	148811	,	-26586	,	-24966	,	-37.358574	,	0
59,47	,	148828	,	-26605	,	-24969	,	-40.79048	,	0
59,47	,	148859	,	-26605	,	-24978	,	-43.349945	,	0
59,47	,	148875	,	-26626	,	-24994	,	-44.97773	,	0
59,47	,	148891	,	-26626	,	-24968	,	-45.661316	,	0
59,47	,	148924	,	-26661	,	-25011	,	-45.55372	,	0
59,47	,	148940	,	-26669	,	-25011	,	-45.05916	,	0
59,47	,	148971	,	-26688	,	-25014	,	-44.645844	,	0
59,47	,	148987	,	-26690	,	-25013	,	-44.52021	,	0
59,47	,	149003	,	-26616	,	-24975	,	-44.151962	,	0
59,48	,	149035	,	-26556	,	-24946	,	-41.752285	,	0
59,48	,	149051	,	-26474	,	-24905	,	-34.755325	,	2
59,48	,	149067	,	-26428	,	-24881	,	-21.21101	,	8
59,48	,	149099	,	-26391	,	-24877	,	-0.9126301	,	21
59,48	,	149116	,	-26394	,	-24874	,	24.21509	,	41
59,48	,	149131	,	-26372	,	-24848	,	50.6686	,	66
59,48	,	149163	,	-26347	,	-24855	,	74.776245	,	92
59,48	,	149179	,	-26349	,	-24849	,	93.85563	,	116
59,48	,	149211	,	-26349	,	-24855	,	106.28746	,	135
59,48	,	149227	,	-26379	,	-24865	,	111.16991	,	147
59,48	,	149243	,	-26380	,	-24864	,	108.26311	,	149
59,48	,	149276	,	-26373	,	-24854	,	98.31061	,	143
59,48	,	149291	,	-26362	,	-24851	,	83.24065	,	130
59,48	,	149307	,	-26356	,	-24843	,	65.68465	,	110
59,48	,	149339	,	-26352	,	-24852	,	48.171307	,	85
59,48	,	149355	,	-26346	,	-24867	,	32.595432	,	59
59,48	,	149387	,	-26359	,	-24839	,	20.010311	,	35
59,48	,	149403	,	-26382	,	-24872	,	10.509308	,	16
59,48	,	149419	,	-26379	,	-24886	,	3.4365225	,	4
59,48	,	149451	,	-26394	,	-24880	,	-1.9899998	,	0
59,48	,	149468	,	-26412	,	-24881	,	-6.399597	,	0
59,48	,	149483	,	-26426	,	-24888	,	-10.383674	,	0
59,48	,	149515	,	-26451	,	-24906	,	-14.464667	,	0
59,48	,	149531	,	-26455	,	-24902	,	-18.952993	,	0
59,48	,	149563	,	-26474	,	-24912	,	-23.826662	,	0
59,48	,	149579	,	-26481	,	-24915	,	-28.782837	,	0
59,48	,	149595	,	-26503	,	-24938	,	-33.4669	,	0
59,48	,	149627	,	-26516	,	-24914	,	-37.650726	,	0
59,48	,	149643	,	-26537	,	-24927	,	-41.268238	,	0
59,48	,	149659	,	-26549	,	-24939	,	-44.33907	,	0
59,48	,	149691	,	-26557	,	-24941	,	-46.839638	,	0
59,48	,	149707	,	-26577	,	-24947	,	-48.67174	,	0
59,48	,	149723	,	-26574	,	-24954	,	-49.734627	,	0
59,48	,	149755	,	-26591	,	-24978	,	-49.922035	,	0
59,48	,	149771	,	-26596	,	-24979	,	-49.177544	,	0
59,48	,	149803	,	-26617	,	-24976	,	-47.637352	,	0
59,48	,	149819	,	-26623	,	-24988	,	-45.624363	,	1
59,48	,	149835	,	-26613	,	-24992	,	-43.374283	,	3
59,48	,	149867	,	-26555	,	-24929	,	-40.480507	,	5
59,48	,	149883	,	-26407	,	-24868	,	-35.119682	,	7
59,48	,	149899	,	-26363	,	-24848	,	-24.244917	,	12
59,48	,	149931	,	-26338	,	-24840	,	-5.904501	,	22
59,48	,	149947	,	-26326	,	-24840	,	18.748104	,	40
59,48	,	149979	,	-26302	,	-24825	,	46.187378	,	64
59,48	,	149995	,	-26288	,	-24816	,	72.424774	,	91
59,48	,	150011	,	-26268	,	-24820	,	94.248314	,	116
59,49	,	150043	,	-26266	,	-24823	,	109.6374	,	135
59,49	,	150059	,	-26273	,	-24812	,	117.618484	,	148
59,49	,	150075	,	-26299	,	-24843	,	117.89841	,	153
59,49	,	150107	,	-26292	,	-24813	,	110.787	,	148
59,49	,	150123	,	-26257	,	-24813	,	97.669495	,	138
59,49	,	150139	,	-26263	,	-24813	,	81.09775	,	120
59,49	,	150171	,	-26259	,	-24820	,	63.76699	,	96
59,49	,	150187	,	-26276	,	-24817	,	47.50634	,	69
59,49	,	150219	,	-26274	,	-24816	,	33.187046	,	43
59,49	,	150235	,	-26297	,	-24825	,	21.02922	,	22
59,49	,	150251	,	-26297	,	-24830	,	10.85524	,	7
59,49	,	150283	,	-26314	,	-24823	,	2.3390465	,	0
59,49	,	150299	,	-26322	,	-24848	,	-4.8242702	,	0
59,49	,	150315	,	-26348	,	-24856	,	-10.959181	,	0
59,49	,	150347	,	-26358	,	-24851	,	-16.451328	,	0
59,49	,	150363	,	-26389	,	-24870	,	-21.675034	,	0
59,49	,	150395	,	-26404	,	-24886	,	-26.941963	,	0
59,49	,	150411	,	-26411	,	-24877	,	-32.351738	,	0
59,49	,	150427	,	-26434	,	-24877	,	-37.66339	,	0
59,49	,	150459	,	-26443	,	-24901	,	-42.50332	,	0
59,49	,	150475	,	-26454	,	-24909	,	-46.54475	,	0
59,49	,	150491	,	-26475	,	-24902	,	-49.54447	,	0
59,49	,	150523	,	-26477	,	-24917	,	-51.418716	,	0
59,49	,	150539	,	-26479	,	-24917	,	-52.11164	,	0
59,49	,	150570	,	-26501	,	-24934	,	-51.555542	,	0
59,49	,	150586	,	-26497	,	-24936	,	-49.87332	,	0
59,49	,	150603	,	-26550	,	-24947	,	-47.50499	,	1
59,49	,	150635	,	-26557	,	-24950	,	-45.26584	,	3
59,49	,	150651	,	-26573	,	-24958	,	-43.956367	,	5
59,49	,	150667	,	-26577	,	-24973	,	-43.77279	,	6
59,49	,	150699	,	-26579	,	-24961	,	-44.295677	,	6
59,49	,	150715	,	-26545	,	-24936	,	-44.64135	,	6
59,49	,	150731	,	-26475	,	-24915	,	-43.27287	,	6
59,49	,	150763	,	-26400	,	-24868	,	-37.965584	,	7
59,49	,	150779	,	-26350	,	-24860	,	-26.642536	,	12
59,49	,	150811	,	-26323	,	-24844	,	-8.709196	,	22
59,49	,	150827	,	-26314	,	-24836	,	14.288603	,	37
59,49	,	150843	,	-26284	,	-24830	,	39.268818	,	57
59,49	,	150875	,	-26277	,	-24819	,	62.903645	,	80
59,49	,	150891	,	-26273	,	-24822	,	82.44829	,	103
59,49	,	150907	,	-26281	,	-24831	,	95.91022	,	122
59,49	,	150939	,	-26297	,	-24831	,	102.086075	,	135
59,49	,	150955	,	-26311	,	-24835	,	100.6124	,	140
59,49	,	150987	,	-26299	,	-24823	,	92.12861	,	135
59,49	,	151003	,	-26288	,	-24822	,	78.42868	,	124
59,49	,	151019	,	-26283	,	-24826	,	62.074978	,	107
59,50	,	151050	,	-26274	,	-24828	,	45.596497	,	85
59,50	,	151066	,	-26282	,	-24823	,	30.873737	,	61
59,50	,	151082	,	-26304	,	-24844	,	18.786625	,	38
59,50	,	151115	,	-26313	,	-24850	,	9.216793	,	19
59,50	,	151131	,	-26325	,	-24842	,	1.5510502	,	6
59,50	,	151147	,	-26341	,	-24847	,	-4.8317804	,	0
59,50	,	151179	,	-26363	,	-24851	,	-10.473929	,	0
59,50	,	151194	,	-26380	,	-24861	,	-15.863293	,	0
59,50	,	151226	,	-26392	,	-24875	,	-21.302805	,	0
59,50	,	151242	,	-26407	,	-24880	,	-26.780993	,	0
59,50	,	151258	,	-26415	,	-24881	,	-32.034344	,	0
59,50	,	151290	,	-26442	,	-24890	,	-36.761646	,	0
59,50	,	151306	,	-26451	,	-24898	,	-40.82259	,	0
59,50	,	151322	,	-26472	,	-24908	,	-44.217335	,	0
59,50	,	151354	,	-26479	,	-24925	,	-46.9467	,	0
59,50	,	151370	,	-26498	,	-24926	,	-48.974754	,	0
59,50	,	151403	,	-26505	,	-24924	,	-50.26718	,	0
59,50	,	151419	,	-26514	,	-24938	,	-50.786057	,	0
59,50	,	151434	,	-26530	,	-24951	,	-50.509697	,	0
59,50	,	151466	,	-26538	,	-24939	,	-49.533653	,	0
59,50	,	151482	,	-26561	,	-24949	,	-48.09944	,	0
59,50	,	151498	,	-26561	,	-24974	,	-46.495033	,	1
59,50	,	151531	,	-26579	,	-24966	,	-44.90412	,	2
59,50	,	151546	,	-26564	,	-24950	,	-43.289047	,	3
59,50	,	151578	,	-26460	,	-24910	,	-40.826305	,	4
59,50	,	151594	,	-26408	,	-24886	,	-35.369286	,	6
59,50	,	151610	,	-26381	,	-24869	,	-24.690367	,	11
59,50	,	151642	,	-26368	,	-24861	,	-8.446737	,	21
59,50	,	151658	,	-26356	,	-24862	,	11.544922	,	37
59,50	,	151674	,	-26350	,	-24865	,	32.383076	,	56
59,50	,	151706	,	-26352	,	-24861	,	51.12925	,	75
59,50	,	151722	,	-26353	,	-24857	,	65.427574	,	92
59,50	,	151738	,	-26376	,	-24885	,	73.754555	,	105
59,50	,	151770	,	-26413	,	-24886	,	75.28694	,	112
59,50	,	151786	,	-26415	,	-24887	,	69.85197	,	111
59,50	,	151818	,	-26391	,	-24881	,	58.468582	,	106
59,50	,	151834	,	-26394	,	-24876	,	43.53183	,	96
59,50	,	151850	,	-26389	,	-24875	,	27.857933	,	80
59,50	,	151882	,	-26382	,	-24872	,	13.705164	,	61
59,50	,	151898	,	-26400	,	-24871	,	2.4416714	,	41
59,50	,	151914	,	-26419	,	-24897	,	-5.637475	,	23
59,50	,	151946	,	-26418	,	-24885	,	-11.103704	,	9
59,50	,	151962	,	-26425	,	-24906	,	-14.693449	,	1
59,50	,	151994	,	-26448	,	-24911	,	-17.011614	,	0
59,50	,	152010	,	-26453	,	-24897	,	-18.682224	,	0
59,51	,	152026	,	-26501	,	-24921	,	-20.404812	,	0
59,51	,	152058	,	-26501	,	-24923	,	-22.884848	,	0
59,51	,	152074	,	-26511	,	-24935	,	-26.43137	,	0
59,51	,	152090	,	-26521	,	-24946	,	-30.672646	,	0
59,51	,	152122	,	-26551	,	-24944	,	-35.019432	,	0
59,51	,	152138	,	-26556	,	-24955	,	-39.13499	,	0
59,51	,	152154	,	-26569	,	-24950	,	-42.808716	,	0
59,51	,	152186	,	-26575	,	-24958	,	-45.7441	,	0
59,51	,	152202	,	-26597	,	-24976	,	-47.690292	,	0
59,51	,	152234	,	-26604	,	-24988	,	-48.63381	,	0
59,51	,	152250	,	-26614	,	-24978	,	-48.708057	,	0
59,51	,	152266	,	-26633	,	-24996	,	-48.077538	,	0
59,51	,	152298	,	-26622	,	-24995	,	-46.897644	,	0
59,51	,	152314	,	-26578	,	-24961	,	-44.892273	,	1
59,51	,	152330	,	-26511	,	-24935	,	-40.84458	,	3
59,51	,	152362	,	-26447	,	-24904	,	-32.85977	,	7
59,51	,	152378	,	-26419	,	-24892	,	-19.498592	,	14
59,51	,	152410	,	-26398	,	-24886	,	-0.95199585	,	27
59,51	,	152426	,	-26390	,	-24889	,	20.78501	,	45
59,51	,	152442	,	-26394	,	-24876	,	42.680042	,	66
59,51	,	152474	,	-26386	,	-24891	,	61.636745	,	87
59,51	,	152490	,	-26391	,	-24855	,	75.31692	,	105
59,51	,	152506	,	-26415	,	-24895	,	82.40637	,	117
59,51	,	152538	,	-26416	,	-24902	,	82.47363	,	122
59,51	,	152554	,	-26417	,	-24895	,	76.064064	,	118
59,51	,	152570	,	-26420	,	-24892	,	64.70446	,	111
59,51	,	152602	,	-26404	,	-24886	,	50.500774	,	98
59,51	,	152618	,	-26400	,	-24884	,	35.715584	,	80
59,51	,	152650	,	-26399	,	-24879	,	22.30847	,	59
59,51	,	152666	,	-26411	,	-24889	,	11.44405	,	38
59,51	,	152682	,	-26427	,	-24890	,	3.3168697	,	20
59,51	,	152714	,	-26432	,	-24907	,	-2.5763836	,	7
59,51	,	152730	,	-26439	,	-24894	,	-6.912722	,	0
59,51	,	152746	,	-26469	,	-24922	,	-10.321666	,	0
59,51	,	152778	,	-26486	,	-24912	,	-13.5169935	,	0
59,51	,	152794	,	-26495	,	-24946	,	-17.12174	,	0
59,51	,	152826	,	-26518	,	-24944	,	-21.351517	,	0
59,51	,	152842	,	-26539	,	-24941	,	-26.143827	,	0
59,51	,	152858	,	-26554	,	-24950	,	-31.366833	,	0
59,51	,	152890	,	-26562	,	-24959	,	-36.730404	,	0
59,51	,	152906	,	-26577	,	-24962	,	-41.741028	,	0
59,51	,	152922	,	-26579	,	-24966	,	-45.85919	,	0
59,51	,	152954	,	-26589	,	-24996	,	-48.63127	,	0
59,51	,	152970	,	-26614	,	-24960	,	-49.872963	,	0
59,51	,	153002	,	-26644	,	-24991	,	-49.941147	,	0
59,51	,	153018	,	-26639	,	-24995	,	-49.52082	,	0
59,52	,	153034	,	-26668	,	-25013	,	-49.061676	,	0
59,52	,	153066	,	-26669	,	-25009	,	-48.693836	,	0
59,52	,	153081	,	-26656	,	-24989	,	-48.250065	,	0
59,52	,	153097	,	-26586	,	-24963	,	-46.808395	,	0
59,52	,	153130	,	-26524	,	-24927	,	-42.453667	,	1
59,52	,	153146	,	-26460	,	-24905	,	-33.008835	,	5
59,52	,	153162	,	-26408	,	-24895	,	-17.221428	,	14
59,52	,	153194	,	-26394	,	-24898	,	4.448637	,	29
59,52	,	153210	,	-26383	,	-24870	,	29.673954	,	50
59,52	,	153241	,	-26370	,	-24862	,	54.973984	,	75
59,52	,	153258	,	-26353	,	-24852	,	77.00862	,	100
59,52	,	153274	,	-26355	,	-24851	,	93.42459	,	122
59,52	,	153305	,	-26356	,	-24873	,	102.93075	,	138
59,52	,	153321	,	-26374	,	-24867	,	105.08064	,	146
59,52	,	153338	,	-26378	,	-24867	,	100.1503	,	144
59,52	,	153370	,	-26373	,	-24869	,	89.216995	,	135
59,52	,	153386	,	-26371	,	-24877	,	74.152824	,	120
59,52	,	153417	,	-26365	,	-24862	,	57.22282	,	99
59,52	,	153433	,	-26359	,	-24889	,	40.572357	,	74
59,52	,	153449	,	-26380	,	-24869	,	25.77816	,	49
59,52	,	153481	,	-26397	,	-24886	,	13.462791	,	27
59,52	,	153498	,	-26405	,	-24893	,	3.4244022	,	11
59,52	,	153514	,	-26427	,	-24894	,	-4.8334885	,	2
59,52	,	153546	,	-26442	,	-24898	,	-11.841725	,	0
59,52	,	153561	,	-26444	,	-24902	,	-18.01238	,	0
59,52	,	153577	,	-26476	,	-24915	,	-23.518072	,	0
59,52	,	153609	,	-26482	,	-24915	,	-28.473946	,	0
59,52	,	153625	,	-26497	,	-24929	,	-32.968285	,	0
59,52	,	153658	,	-26505	,	-24939	,	-36.907707	,	0
59,52	,	153673	,	-26525	,	-24953	,	-40.13198	,	0
59,52	,	153689	,	-26536	,	-24944	,	-42.600914	,	0
59,52	,	153721	,	-26578	,	-24954	,	-44.51039	,	0
59,52	,	153737	,	-26588	,	-24964	,	-46.318687	,	0
59,52	,	153753	,	-26597	,	-24971	,	-48.365833	,	0
59,52	,	153785	,	-26622	,	-24984	,	-50.562828	,	0
59,52	,	153801	,	-26628	,	-24983	,	-52.637505	,	0
59,52	,	153833	,	-26631	,	-25000	,	-54.261917	,	0
59,52	,	153849	,	-26658	,	-25004	,	-55.083496	,	0
59,52	,	153866	,	-26660	,	-25000	,	-54.992477	,	0
59,52	,	153898	,	-26621	,	-24996	,	-53.84118	,	0
59,52	,	153913	,	-26581	,	-24967	,	-50.77925	,	1
59,52	,	153929	,	-26487	,	-24923	,	-44.17862	,	4
59,52	,	153961	,	-26413	,	-24895	,	-32.093754	,	10
59,52	,	153977	,	-26392	,	-24893	,	-13.373346	,	22
59,52	,	154009	,	-26391	,	-24885	,	10.916254	,	40
59,53	,	154025	,	-26391	,	-24882	,	37.4151	,	64
59,53	,	154041	,	-26379	,	-24884	,	61.994663	,	90
59,53	,	154073	,	-26362	,	-24879	,	81.412285	,	114
59,53	,	154090	,	-26375	,	-24881	,	93.92984	,	133
59,53	,	154105	,	-26392	,	-24899	,	98.89458	,	144
59,53	,	154137	,	-26398	,	-24900	,	96.34359	,	145
59,53	,	154153	,	-26402	,	-24901	,	87.13901	,	139
59,53	,	154169	,	-26401	,	-24892	,	73.00383	,	127
59,53	,	154201	,	-26390	,	-24880	,	56.208878	,	109
59,53	,	154217	,	-26390	,	-24890	,	39.120758	,	85
59,53	,	154249	,	-26409	,	-24894	,	23.592335	,	59
59,53	,	154265	,	-26413	,	-24899	,	10.538527	,	35
59,53	,	154297	,	-26414	,	-24920	,	0.16621399	,	16
59,53	,	154314	,	-26436	,	-24917	,	-7.6514797	,	4
59,53	,	154329	,	-26435	,	-24921	,	-13.30374	,	0
59,53	,	154361	,	-26457	,	-24923	,	-17.325047	,	0
59,53	,	154377	,	-26474	,	-24938	,	-20.312584	,	0
59,53	,	154409	,	-26486	,	-24936	,	-22.89487	,	0
59,53	,	154425	,	-26500	,	-24951	,	-25.513344	,	0
59,53	,	154441	,	-26522	,	-24947	,	-28.359806	,	0
59,53	,	154473	,	-26545	,	-24951	,	-31.560925	,	0
59,53	,	154489	,	-26554	,	-24953	,	-35.18567	,	0
59,53	,	154505	,	-26566	,	-24971	,	-39.05246	,	0
59,53	,	154537	,	-26567	,	-24976	,	-42.68531	,	0
59,53	,	154553	,	-26580	,	-24974	,	-45.503014	,	0
59,53	,	154569	,	-26600	,	-24978	,	-47.144714	,	0
59,53	,	154601	,	-26617	,	-25007	,	-47.705055	,	0
59,53	,	154617	,	-26639	,	-25006	,	-47.63102	,	0
59,53	,	154649	,	-26652	,	-25013	,	-47.430367	,	0
59,53	,	154665	,	-26666	,	-25019	,	-47.42382	,	0
59,53	,	154681	,	-26660	,	-24995	,	-47.57385	,	0
59,53	,	154713	,	-26609	,	-24985	,	-47.197655	,	0
59,53	,	154729	,	-26549	,	-24956	,	-44.686207	,	0
59,53	,	154745	,	-26481	,	-24925	,	-37.88601	,	2
59,53	,	154777	,	-26451	,	-24904	,	-25.226015	,	8
59,53	,	154793	,	-26428	,	-24904	,	-6.805523	,	20
59,53	,	154825	,	-26418	,	-24883	,	15.420046	,	38
59,53	,	154841	,	-26409	,	-24895	,	38.408123	,	60
59,53	,	154857	,	-26401	,	-24890	,	59.064316	,	82
59,53	,	154889	,	-26402	,	-24894	,	74.98238	,	102
59,53	,	154905	,	-26420	,	-24900	,	84.63941	,	117
59,53	,	154921	,	-26440	,	-24912	,	87.2482	,	126
59,53	,	154953	,	-26444	,	-24907	,	82.80016	,	126
59,53	,	154969	,	-26431	,	-24903	,	72.36925	,	120
59,53	,	154985	,	-26407	,	-24896	,	58.180767	,	108
59,53	,	155017	,	-26407	,	-24894	,	43.017216	,	90
59,54	,	155033	,	-26409	,	-24895	,	29.186447	,	68
59,54	,	155065	,	-26409	,	-24884	,	17.921843	,	46
59,54	,	155081	,	-26408	,	-24888	,	9.56612	,	26
59,54	,	155097	,	-26453	,	-24905	,	3.7567167	,	11
59,54	,	155129	,	-26450	,	-24904	,	-0.52874565	,	2
59,54	,	155145	,	-26468	,	-24914	,	-4.3769135	,	0
59,54	,	155161	,	-26487	,	-24914	,	-8.421733	,	0
59,54	,	155193	,	-26483	,	-24922	,	-12.884241	,	0
59,54	,	155208	,	-26499	,	-24931	,	-17.580807	,	0
59,54	,	155241	,	-26513	,	-24930	,	-22.124186	,	0
59,54	,	155257	,	-26519	,	-24937	,	-26.244389	,	0
59,54	,	155272	,	-26533	,	-24963	,	-29.763672	,	0
59,54	,	155305	,	-26556	,	-24941	,	-32.62155	,	0
59,54	,	155321	,	-26562	,	-24962	,	-34.961884	,	0
59,54	,	155337	,	-26583	,	-24959	,	-36.975964	,	0
59,54	,	155369	,	-26591	,	-24971	,	-38.773933	,	0
59,54	,	155385	,	-26608	,	-24970	,	-40.387398	,	0
59,54	,	155416	,	-26623	,	-24981	,	-41.80818	,	0
59,54	,	155433	,	-26631	,	-24985	,	-43.022297	,	0
59,54	,	155449	,	-26628	,	-24996	,	-43.885193	,	0
59,54	,	155481	,	-26615	,	-24968	,	-43.95388	,	0
59,54	,	155497	,	-26545	,	-24943	,	-42.277004	,	0
59,54	,	155513	,	-26479	,	-24915	,	-37.188423	,	1
59,54	,	155544	,	-26438	,	-24877	,	-26.913338	,	6
59,54	,	155560	,	-26408	,	-24878	,	-10.875771	,	16
59,54	,	155576	,	-26400	,	-24881	,	9.656479	,	32
59,54	,	155609	,	-26393	,	-24875	,	31.98433	,	52
59,54	,	155625	,	-26389	,	-24875	,	52.91787	,	74
59,54	,	155657	,	-26396	,	-24868	,	69.67384	,	94
59,54	,	155673	,	-26412	,	-24887	,	80.29601	,	110
59,54	,	155689	,	-26443	,	-24886	,	83.66746	,	120
59,54	,	155720	,	-26435	,	-24896	,	79.61398	,	122
59,54	,	155736	,	-26430	,	-24885	,	69.249916	,	117
59,54	,	155752	,	-26428	,	-24889	,	54.8369	,	107
59,54	,	155785	,	-26399	,	-24858	,	39.079876	,	91
59,54	,	155801	,	-26416	,	-24874	,	24.44823	,	71
59,54	,	155833	,	-26423	,	-24888	,	12.4752865	,	49
59,54	,	155849	,	-26439	,	-24904	,	3.459776	,	29
59,54	,	155864	,	-26447	,	-24900	,	-3.0929441	,	13
59,54	,	155896	,	-26450	,	-24897	,	-7.8716063	,	3
59,54	,	155912	,	-26466	,	-24920	,	-11.44254	,	0
59,54	,	155929	,	-26479	,	-24917	,	-14.286594	,	0
59,54	,	155961	,	-26485	,	-24917	,	-16.83276	,	0
59,54	,	155977	,	-26501	,	-24925	,	-19.334759	,	0
59,54	,	155993	,	-26527	,	-24955	,	-21.96319	,	0
59,55	,	156024	,	-26523	,	-24921	,	-24.879482	,	0
59,55	,	156040	,	-26566	,	-24943	,	-28.131342	,	0
59,55	,	156072	,	-26566	,	-24961	,	-31.733265	,	0
59,55	,	156088	,	-26579	,	-24973	,	-35.586784	,	0
59,55	,	156104	,	-26597	,	-24966	,	-39.345623	,	0
59,55	,	156136	,	-26612	,	-24969	,	-42.68305	,	0
59,55	,	156152	,	-26623	,	-25007	,	-45.43316	,	0
59,55	,	156168	,	-26617	,	-24986	,	-47.3904	,	0
59,55	,	156200	,	-26633	,	-24989	,	-48.236504	,	0
59,55	,	156216	,	-26629	,	-24984	,	-47.742	,	0
59,55	,	156248	,	-26587	,	-24979	,	-45.6429	,	0
59,55	,	156264	,	-26509	,	-24913	,	-41.00509	,	2
59,55	,	156280	,	-26411	,	-24878	,	-31.962843	,	6
59,55	,	156312	,	-26381	,	-24864	,	-16.676718	,	15
59,55	,	156328	,	-26361	,	-24863	,	4.925371	,	30
59,55	,	156344	,	-26344	,	-24852	,	30.524162	,	51
59,55	,	156376	,	-26337	,	-24859	,	56.500175	,	76
59,55	,	156392	,	-26332	,	-24845	,	79.27255	,	101
59,55	,	156408	,	-26321	,	-24847	,	96.14612	,	123
59,55	,	156440	,	-26356	,	-24849	,	105.56297	,	139
59,55	,	156456	,	-26357	,	-24872	,	106.85402	,	146
59,55	,	156488	,	-26355	,	-24873	,	100.33926	,	143
59,55	,	156504	,	-26344	,	-24832	,	87.62589	,	134
59,55	,	156520	,	-26339	,	-24847	,	71.233475	,	119
59,55	,	156552	,	-26332	,	-24849	,	53.809097	,	98
59,55	,	156568	,	-26331	,	-24843	,	37.526478	,	73
59,55	,	156584	,	-26342	,	-24852	,	23.739864	,	48
59,55	,	156616	,	-26359	,	-24858	,	12.837759	,	26
59,55	,	156632	,	-26361	,	-24860	,	4.4675922	,	10
59,55	,	156664	,	-26366	,	-24868	,	-1.9175329	,	1
59,55	,	156680	,	-26385	,	-24873	,	-6.789897	,	0
59,55	,	156696	,	-26396	,	-24883	,	-10.663018	,	0
59,55	,	156728	,	-26424	,	-24892	,	-14.135063	,	0
59,55	,	156744	,	-26427	,	-24884	,	-17.736385	,	0
59,55	,	156760	,	-26454	,	-24911	,	-21.736904	,	0
59,55	,	156792	,	-26475	,	-24899	,	-26.197166	,	0
59,55	,	156808	,	-26499	,	-24912	,	-31.155193	,	0
59,55	,	156840	,	-26509	,	-24916	,	-36.546284	,	0
59,55	,	156856	,	-26520	,	-24922	,	-42.009537	,	0
59,55	,	156872	,	-26534	,	-24932	,	-46.95534	,	0
59,55	,	156904	,	-26534	,	-24940	,	-50.797577	,	0
59,55	,	156920	,	-26559	,	-24945	,	-53.138527	,	0
59,55	,	156936	,	-26567	,	-24950	,	-53.93992	,	0
59,55	,	156968	,	-26595	,	-24976	,	-53.550003	,	0
59,55	,	156984	,	-26587	,	-24961	,	-52.437256	,	0
59,55	,	157000	,	-26612	,	-24958	,	-50.893806	,	1
59,56	,	157032	,	-26574	,	-24937	,	-48.87693	,	2
59,56	,	157048	,	-26497	,	-24911	,	-45.52896	,	4
59,56	,	157080	,	-26413	,	-24868	,	-38.78324	,	7
59,56	,	157096	,	-26370	,	-24854	,	-26.346167	,	13
59,56	,	157112	,	-26336	,	-24839	,	-7.447937	,	25
59,56	,	157144	,	-26309	,	-24824	,	16.50071	,	43
59,56	,	157160	,	-26301	,	-24824	,	42.574795	,	66
59,56	,	157176	,	-26283	,	-24825	,	67.35802	,	92
59,56	,	157208	,	-26274	,	-24829	,	87.87308	,	115
59,56	,	157224	,	-26261	,	-24796	,	102.18976	,	134
59,56	,	157256	,	-26288	,	-24807	,	109.38896	,	146
59,56	,	157272	,	-26286	,	-24820	,	109.21928	,	150
59,56	,	157288	,	-26274	,	-24810	,	102.229996	,	144
59,56	,	157320	,	-26272	,	-24795	,	90.02342	,	132
59,56	,	157336	,	-26264	,	-24800	,	74.81592	,	114
59,56	,	157352	,	-26256	,	-24819	,	58.797756	,	91
59,56	,	157383	,	-26258	,	-24800	,	43.763317	,	65
59,56	,	157400	,	-26269	,	-24802	,	30.808353	,	41
59,56	,	157416	,	-26272	,	-24821	,	20.244173	,	21
59,56	,	157448	,	-26295	,	-24821	,	11.804878	,	7
59,56	,	157464	,	-26295	,	-24822	,	4.926942	,	0
59,56	,	157496	,	-26330	,	-24825	,	-1.0273314	,	0
59,56	,	157512	,	-26345	,	-24855	,	-6.7169547	,	0
59,56	,	157528	,	-26369	,	-24850	,	-12.720627	,	0
59,56	,	157560	,	-26391	,	-24853	,	-19.330822	,	0
59,56	,	157576	,	-26402	,	-24868	,	-26.490622	,	0
59,56	,	157592	,	-26419	,	-24881	,	-33.807358	,	0
59,56	,	157624	,	-26428	,	-24881	,	-40.67633	,	0
59,56	,	157640	,	-26438	,	-24895	,	-46.47633	,	0
59,56	,	157672	,	-26453	,	-24908	,	-50.73146	,	0
59,56	,	157688	,	-26466	,	-24902	,	-53.263756	,	0
59,56	,	157704	,	-26489	,	-24912	,	-54.247196	,	0
59,56	,	157736	,	-26502	,	-24923	,	-54.12889	,	0
59,56	,	157751	,	-26521	,	-24918	,	-53.430954	,	0
59,56	,	157767	,	-26542	,	-24927	,	-52.60086	,	0
59,56	,	157800	,	-26550	,	-24933	,	-51.955524	,	0
59,56	,	157815	,	-26572	,	-24949	,	-51.611088	,	0
59,56	,	157848	,	-26588	,	-24953	,	-51.557102	,	0
59,56	,	157864	,	-26599	,	-24971	,	-51.74739	,	0
59,56	,	157880	,	-26604	,	-24961	,	-51.994576	,	0
59,56	,	157912	,	-26567	,	-24954	,	-51.72727	,	0
59,56	,	157928	,	-26513	,	-24926	,	-49.677746	,	0
59,56	,	157944	,	-26434	,	-24889	,	-43.894875	,	2
59,56	,	157975	,	-26332	,	-24842	,	-32.213444	,	7
59,56	,	157991	,	-26310	,	-24849	,	-13.242903	,	18
59,56	,	158007	,	-26289	,	-24837	,	12.24967	,	36
59,57	,	158040	,	-26285	,	-24828	,	41.06616	,	61
59,57	,	158056	,	-26278	,	-24819	,	68.90719	,	89
59,57	,	158088	,	-26278	,	-24812	,	91.86509	,	116
59,57	,	158104	,	-26270	,	-24820	,	107.305725	,	138
59,57	,	158120	,	-26295	,	-24829	,	114.065506	,	153
59,57	,	158151	,	-26306	,	-24835	,	112.10023	,	157
59,57	,	158167	,	-26300	,	-24831	,	102.32113	,	152
59,57	,	158184	,	-26295	,	-24828	,	86.704704	,	141
59,57	,	158215	,	-26275	,	-24813	,	68.02226	,	123
59,57	,	158231	,	-26270	,	-24811	,	49.186928	,	98
59,57	,	158264	,	-26285	,	-24817	,	32.458206	,	70
59,57	,	158280	,	-26292	,	-24826	,	18.879004	,	43
59,57	,	158296	,	-26308	,	-24829	,	8.423288	,	21
59,57	,	158327	,	-26320	,	-24836	,	0.49773788	,	6
59,57	,	158343	,	-26344	,	-24843	,	-5.7218657	,	0
59,57	,	158359	,	-26345	,	-24834	,	-11.01677	,	0
59,57	,	158391	,	-26361	,	-24856	,	-15.837859	,	0
59,57	,	158407	,	-26374	,	-24855	,	-20.31336	,	0
59,57	,	158423	,	-26398	,	-24857	,	-24.524227	,	0
59,57	,	158455	,	-26425	,	-24875	,	-28.687443	,	0
59,57	,	158471	,	-26441	,	-24882	,	-33.093407	,	0
59,57	,	158503	,	-26471	,	-24882	,	-37.91084	,	0
59,57	,	158519	,	-26464	,	-24888	,	-43.008648	,	0
59,57	,	158535	,	-26471	,	-24892	,	-47.794907	,	0
59,57	,	158567	,	-26488	,	-24901	,	-51.452568	,	0
59,57	,	158583	,	-26504	,	-24916	,	-53.53859	,	0
59,57	,	158599	,	-26509	,	-24894	,	-54.10614	,	0
59,57	,	158631	,	-26521	,	-24931	,	-53.379974	,	0
59,57	,	158647	,	-26528	,	-24917	,	-51.602074	,	0
59,57	,	158679	,	-26562	,	-24944	,	-49.15764	,	1
59,57	,	158695	,	-26592	,	-24939	,	-46.778954	,	3
59,57	,	158711	,	-26596	,	-24950	,	-45.31099	,	5
59,57	,	158743	,	-26577	,	-24943	,	-44.93112	,	6
59,57	,	158759	,	-26531	,	-24915	,	-44.614777	,	6
59,57	,	158775	,	-26464	,	-24894	,	-42.29772	,	6
59,57	,	158807	,	-26403	,	-24866	,	-35.58625	,	8
59,57	,	158823	,	-26367	,	-24854	,	-22.8698	,	14
59,57	,	158839	,	-26355	,	-24858	,	-4.3434696	,	26
59,57	,	158871	,	-26351	,	-24850	,	17.817038	,	43
59,57	,	158887	,	-26345	,	-24843	,	40.29446	,	63
59,57	,	158919	,	-26343	,	-24835	,	59.83626	,	83
59,57	,	158935	,	-26349	,	-24846	,	74.05119	,	101
59,57	,	158951	,	-26379	,	-24851	,	81.51767	,	115
59,57	,	158983	,	-26394	,	-24860	,	81.60529	,	122
59,57	,	158999	,	-26393	,	-24858	,	74.62511	,	120
59,57	,	159015	,	-26369	,	-24855	,	62.180325	,	114
59,58	,	159047	,	-26360	,	-24844	,	46.965363	,	102
59,58	,	159063	,	-26352	,	-24838	,	31.84407	,	84
59,58	,	159095	,	-26362	,	-24856	,	18.887327	,	62
59,58	,	159111	,	-26374	,	-24866	,	8.947725	,	40
59,58	,	159127	,	-26385	,	-24844	,	1.8293514	,	21
59,58	,	159159	,	-26390	,	-24851	,	-3.1745262	,	7
59,58	,	159175	,	-26420	,	-24864	,	-6.8872538	,	0
59,58	,	159191	,	-26438	,	-24869	,	-10.201186	,	0
59,58	,	159223	,	-26436	,	-24875	,	-13.832346	,	0
59,58	,	159239	,	-26456	,	-24865	,	-17.941097	,	0
59,58	,	159255	,	-26467	,	-24872	,	-22.298548	,	0
59,58	,	159287	,	-26458	,	-24867	,	-26.538206	,	0
59,58	,	159303	,	-26473	,	-24856	,	-30.125164	,	0
59,58	,	159335	,	-26461	,	-24858	,	-32.51303	,	0
59,58	,	159351	,	-26465	,	-24870	,	-33.308475	,	0
59,58	,	159367	,	-26484	,	-24845	,	-32.43232	,	0
59,58	,	159399	,	-26473	,	-24861	,	-30.247406	,	0
59,58	,	159415	,	-26495	,	-24867	,	-27.305214	,	2
59,58	,	159431	,	-26496	,	-24871	,	-24.169773	,	4
59,58	,	159463	,	-26508	,	-24871	,	-21.382687	,	7
59,58	,	159479	,	-26524	,	-24873	,	-19.365623	,	9
59,58	,	159511	,	-26518	,	-24866	,	-18.353245	,	11
59,58	,	159527	,	-26491	,	-24848	,	-18.078465	,	12
59,58	,	159543	,	-26434	,	-24820	,	-17.396135	,	12
59,58	,	159575	,	-26366	,	-24806	,	-14.356153	,	12
59,58	,	159591	,	-26324	,	-24787	,	-6.958951	,	15
59,58	,	159607	,	-26303	,	-24762	,	5.6297016	,	20
59,58	,	159639	,	-26287	,	-24765	,	22.411505	,	30
59,58	,	159655	,	-26281	,	-24768	,	41.00084	,	43
59,58	,	159671	,	-26285	,	-24758	,	58.522503	,	59
59,58	,	159703	,	-26285	,	-24760	,	72.35961	,	74
59,58	,	159719	,	-26314	,	-24782	,	80.59823	,	86
59,58	,	159751	,	-26327	,	-24786	,	82.140526	,	94
59,58	,	159767	,	-26326	,	-24787	,	76.90045	,	95
59,58	,	159783	,	-26317	,	-24783	,	66.07222	,	92
59,58	,	159815	,	-26312	,	-24771	,	51.852654	,	85
59,58	,	159831	,	-26298	,	-24769	,	36.73719	,	73
59,58	,	159847	,	-26300	,	-24768	,	22.892572	,	57
59,58	,	159879	,	-26310	,	-24768	,	11.668474	,	39
59,58	,	159895	,	-26339	,	-24787	,	3.302744	,	22
59,58	,	159927	,	-26347	,	-24793	,	-2.8912134	,	9
59,58	,	159943	,	-26364	,	-24800	,	-7.873012	,	1
59,58	,	159959	,	-26365	,	-24791	,	-12.307661	,	0
59,58	,	159991	,	-26374	,	-24793	,	-16.408064	,	0
59,58	,	160007	,	-26390	,	-24812	,	-20.12164	,	0
59,59	,	160023	,	-26404	,	-24824	,	-23.437956	,	0
59,59	,	160054	,	-26417	,	-24832	,	-26.464594	,	0
59,59	,	160071	,	-26426	,	-24833	,	-29.279821	,	0
59,59	,	160103	,	-26454	,	-24831	,	-31.923603	,	0
59,59	,	160119	,	-26458	,	-24840	,	-34.487694	,	0
59,59	,	160135	,	-26484	,	-24857	,	-37.041977	,	0
59,59	,	160167	,	-26503	,	-24849	,	-39.629395	,	0
59,59	,	160183	,	-26508	,	-24864	,	-42.27455	,	0
59,59	,	160199	,	-26504	,	-24868	,	-44.71586	,	0
59,59	,	160230	,	-26503	,	-24861	,	-46.31218	,	0
59,59	,	160246	,	-26452	,	-24823	,	-46.142372	,	0
59,59	,	160263	,	-26403	,	-24820	,	-42.906265	,	0
59,59	,	160295	,	-26336	,	-24780	,	-35.086212	,	3
59,59	,	160311	,	-26307	,	-24783	,	-21.701185	,	10
59,59	,	160343	,	-26284	,	-24764	,	-3.144514	,	23
59,59	,	160359	,	-26279	,	-24779	,	18.60582	,	41
59,59	,	160374	,	-26267	,	-24775	,	40.62031	,	62
59,59	,	160407	,	-26279	,	-24761	,	59.91222	,	84
59,59	,	160422	,	-26273	,	-24765	,	74.081474	,	103
59,59	,	160439	,	-26296	,	-24783	,	81.672386	,	117
59,59	,	160471	,	-26318	,	-24779	,	82.14532	,	124
59,59	,	160487	,	-26321	,	-24778	,	75.76866	,	121
59,59	,	160518	,	-26296	,	-24775	,	63.89681	,	114
59,59	,	160535	,	-26303	,	-24769	,	48.937984	,	101
59,59	,	160551	,	-26296	,	-24779	,	33.469166	,	83
59,59	,	160582	,	-26308	,	-24755	,	19.40127	,	62
59,59	,	160598	,	-26315	,	-24782	,	7.7487106	,	40
59,59	,	160614	,	-26330	,	-24778	,	-1.2873058	,	21
59,59	,	160646	,	-26349	,	-24798	,	-8.103786	,	7
59,59	,	160663	,	-26353	,	-24785	,	-13.361183	,	0
59,59	,	160679	,	-26369	,	-24797	,	-17.617453	,	0
59,59	,	160711	,	-26373	,	-24798	,	-21.190851	,	0
59,59	,	160727	,	-26391	,	-24820	,	-24.241581	,	0
59,59	,	160758	,	-26411	,	-24831	,	-26.92832	,	0
59,59	,	160774	,	-26408	,	-24831	,	-29.416775	,	0
59,59	,	160790	,	-26417	,	-24841	,	-31.64021	,	0
59,59	,	160822	,	-26441	,	-24828	,	-33.39794	,	0
59,59	,	160838	,	-26471	,	-24840	,	-34.827614	,	0
59,59	,	160854	,	-26478	,	-24851	,	-36.403275	,	0
59,59	,	160886	,	-26483	,	-24855	,	-38.370544	,	0
59,59	,	160902	,	-26501	,	-24855	,	-40.509216	,	0
59,59	,	160934	,	-26507	,	-24865	,	-42.455612	,	0
59,59	,	160950	,	-26504	,	-24860	,	-43.8515	,	0
59,59	,	160966	,	-26477	,	-24844	,	-44.116783	,	0
59,59	,	160998	,	-26409	,	-24829	,	-42.136658	,	0
59,59	,	161014	,	-26351	,	-24788	,	-36.22753	,	1
0,0	,	161030	,	-26288	,	-24781	,	-24.801126	,	6
0,0	,	161062	,	-26249	,	-24739	,	-7.314972	,	17
0,0	,	161078	,	-26231	,	-24739	,	15.172228	,	34
0,0	,	161094	,	-26225	,	-24738	,	40.041973	,	56
0,0	,	161127	,	-26190	,	-24724	,	63.98364	,	80
0,0	,	161142	,	-26179	,	-24722	,	84.23581	,	103
0,0	,	161174	,	-26172	,	-24718	,	99.07018	,	123
0,0	,	161190	,	-26195	,	-24732	,	107.45017	,	137
0,0	,	161206	,	-26208	,	-24729	,	108.72798	,	144
0,0	,	161238	,	-26211	,	-24734	,	102.87281	,	140
0,0	,	161254	,	-26193	,	-24729	,	90.96261	,	129
0,0	,	161270	,	-26184	,	-24726	,	75.20267	,	112
0,0	,	161302	,	-26188	,	-24712	,	58.17534	,	90
0,0	,	161318	,	-26211	,	-24731	,	41.84596	,	66
0,0	,	161350	,	-26222	,	-24739	,	27.114735	,	43
0,0	,	161366	,	-26246	,	-24765	,	14.087833	,	23
0,0	,	161382	,	-26258	,	-24782	,	2.5396729	,	9
0,0	,	161414	,	-26288	,	-24801	,	-7.8261223	,	1
0,0	,	161430	,	-26322	,	-24814	,	-17.388105	,	0
0,0	,	161446	,	-26342	,	-24825	,	-26.595945	,	0
0,0	,	161478	,	-26387	,	-24855	,	-35.785442	,	0
0,0	,	161494	,	-26395	,	-24869	,	-45.049053	,	0
0,0	,	161526	,	-26432	,	-24909	,	-54.1557	,	0
0,0	,	161542	,	-26458	,	-24894	,	-62.699203	,	0
0,0	,	161558	,	-26498	,	-24946	,	-70.42796	,	0
0,0	,	161590	,	-26492	,	-24943	,	-77.14809	,	0
0,0	,	161606	,	-26525	,	-24952	,	-82.42385	,	0
0,0	,	161622	,	-26530	,	-24964	,	-85.75812	,	0
0,0	,	161654	,	-26541	,	-24958	,	-86.86331	,	0
0,0	,	161670	,	-26543	,	-24958	,	-85.60216	,	0
0,0	,	161686	,	-26572	,	-24963	,	-82.079605	,	1
0,0	,	161718	,	-26568	,	-24967	,	-76.79468	,	4
0,0	,	161734	,	-26530	,	-24944	,	-70.144684	,	9
0,0	,	161766	,	-26478	,	-24919	,	-61.678864	,	15
0,0	,	161782	,	-26391	,	-24851	,	-50.035023	,	23
0,0	,	161798	,	-26313	,	-24829	,	-33.514	,	34
0,0	,	161830	,	-26288	,	-24817	,	-11.186245	,	50
0,0	,	161846	,	-26262	,	-24808	,	15.933722	,	72
0,0	,	161862	,	-26244	,	-24793	,	44.96728	,	99
0,0	,	161894	,	-26221	,	-24786	,	72.42597	,	127
0,0	,	161910	,	-26214	,	-24779	,	95.314606	,	151
0,0	,	161942	,	-26199	,	-24769	,	111.60658	,	168
0,0	,	161958	,	-26216	,	-24768	,	120.272675	,	178
0,0	,	161974	,	-26208	,	-24760	,	121.12184	,	178
0,0	,	162006	,	-26194	,	-24758	,	114.883194	,	167
0,1	,	162022	,	-26187	,	-24721	,	103.27765	,	151
0,1	,	162038	,	-26165	,	-24724	,	88.60065	,	129
0,1	,	162070	,	-26166	,	-24726	,	73.12384	,	102
0,1	,	162086	,	-26179	,	-24725	,	58.4947	,	73
0,1	,	162102	,	-26191	,	-24721	,	45.3683	,	46
0,1	,	162134	,	-26202	,	-24732	,	33.668518	,	24
0,1	,	162150	,	-26219	,	-24743	,	23.069416	,	8
0,1	,	162182	,	-26231	,	-24748	,	13.240883	,	0
0,1	,	162198	,	-26258	,	-24748	,	3.9045525	,	0
0,1	,	162214	,	-26275	,	-24758	,	-5.185646	,	0
0,1	,	162246	,	-26278	,	-24785	,	-14.086671	,	0
0,1	,	162262	,	-26303	,	-24767	,	-22.517347	,	0
0,1	,	162278	,	-26345	,	-24794	,	-30.259092	,	0
0,1	,	162310	,	-26349	,	-24805	,	-37.4579	,	0
0,1	,	162326	,	-26366	,	-24808	,	-44.168922	,	0
0,1	,	162358	,	-26390	,	-24805	,	-50.11847	,	0
0,1	,	162374	,	-26389	,	-24816	,	-54.9738	,	0
0,1	,	162390	,	-26399	,	-24827	,	-58.37237	,	0
0,1	,	162422	,	-26415	,	-24825	,	-59.992073	,	0
0,1	,	162438	,	-26425	,	-24830	,	-59.830666	,	0
0,1	,	162454	,	-26432	,	-24834	,	-58.170982	,	0
0,1	,	162485	,	-26453	,	-24844	,	-55.417027	,	1
0,1	,	162502	,	-26466	,	-24837	,	-52.11213	,	3
0,1	,	162518	,	-26481	,	-24848	,	-48.854607	,	6
0,1	,	162550	,	-26488	,	-24849	,	-46.059093	,	9
0,1	,	162566	,	-26479	,	-24832	,	-43.75134	,	11
0,1	,	162598	,	-26425	,	-24815	,	-41.269207	,	13
0,1	,	162614	,	-26349	,	-24764	,	-36.957863	,	15
0,1	,	162630	,	-26289	,	-24764	,	-28.551199	,	19
0,1	,	162662	,	-26257	,	-24760	,	-14.475533	,	27
0,1	,	162678	,	-26242	,	-24754	,	4.946764	,	40
0,1	,	162694	,	-26228	,	-24771	,	27.47751	,	57
0,1	,	162725	,	-26234	,	-24779	,	49.893055	,	76
0,1	,	162742	,	-26227	,	-24757	,	69.00793	,	95
0,1	,	162773	,	-26216	,	-24758	,	82.52129	,	112
0,1	,	162789	,	-26229	,	-24768	,	89.40634	,	123
0,1	,	162806	,	-26244	,	-24775	,	89.57542	,	127
0,1	,	162838	,	-26246	,	-24781	,	83.53336	,	123
0,1	,	162854	,	-26249	,	-24780	,	72.44505	,	115
0,1	,	162870	,	-26239	,	-24769	,	58.105366	,	101
0,1	,	162901	,	-26223	,	-24774	,	42.681557	,	82
0,1	,	162917	,	-26233	,	-24771	,	28.255417	,	60
0,1	,	162950	,	-26226	,	-24783	,	16.232765	,	38
0,1	,	162966	,	-26234	,	-24779	,	7.162403	,	19
0,1	,	162982	,	-26245	,	-24772	,	0.91770554	,	6
0,1	,	163014	,	-26279	,	-24785	,	-3.2433114	,	0
0,2	,	163030	,	-26290	,	-24802	,	-6.5101795	,	0
0,2	,	163046	,	-26303	,	-24799	,	-9.944439	,	0
0,2	,	163077	,	-26314	,	-24795	,	-14.007443	,	0
0,2	,	163093	,	-26327	,	-24796	,	-18.628452	,	0
0,2	,	163109	,	-26346	,	-24806	,	-23.522287	,	0
0,2	,	163141	,	-26359	,	-24817	,	-28.42027	,	0
0,2	,	163157	,	-26380	,	-24822	,	-33.133907	,	0
0,2	,	163190	,	-26391	,	-24823	,	-37.524426	,	0
0,2	,	163205	,	-26408	,	-24848	,	-41.451622	,	0
0,2	,	163221	,	-26419	,	-24838	,	-44.755608	,	0
0,2	,	163253	,	-26444	,	-24841	,	-47.348454	,	0
0,2	,	163269	,	-26460	,	-24854	,	-49.323494	,	0
0,2	,	163285	,	-26469	,	-24870	,	-50.846115	,	0
0,2	,	163317	,	-26483	,	-24857	,	-51.93673	,	0
0,2	,	163333	,	-26498	,	-24874	,	-52.512604	,	0
0,2	,	163365	,	-26515	,	-24881	,	-52.577076	,	0
0,2	,	163382	,	-26521	,	-24873	,	-52.216305	,	0
0,2	,	163397	,	-26501	,	-24863	,	-51.31208	,	0
0,2	,	163429	,	-26439	,	-24842	,	-49.057438	,	0
0,2	,	163445	,	-26367	,	-24815	,	-43.723495	,	2
0,2	,	163461	,	-26314	,	-24788	,	-33.3069	,	7
0,2	,	163493	,	-26286	,	-24771	,	-16.854313	,	17
0,2	,	163509	,	-26274	,	-24778	,	4.645338	,	33
0,2	,	163525	,	-26267	,	-24767	,	28.492367	,	54
0,2	,	163557	,	-26266	,	-24759	,	51.28192	,	77
0,2	,	163574	,	-26265	,	-24763	,	69.94196	,	99
0,2	,	163605	,	-26277	,	-24763	,	82.33812	,	117
0,2	,	163621	,	-26307	,	-24778	,	87.32596	,	129
0,2	,	163637	,	-26304	,	-24778	,	84.68539	,	131
0,2	,	163669	,	-26305	,	-24780	,	75.344315	,	126
0,2	,	163685	,	-26290	,	-24777	,	61.375385	,	116
0,2	,	163701	,	-26268	,	-24770	,	45.51057	,	100
0,2	,	163733	,	-26279	,	-24762	,	30.402145	,	79
0,2	,	163749	,	-26299	,	-24776	,	17.705992	,	56
0,2	,	163781	,	-26303	,	-24777	,	7.755026	,	34
0,2	,	163797	,	-26320	,	-24777	,	0.12990284	,	16
0,2	,	163813	,	-26323	,	-24797	,	-5.7578173	,	4
0,2	,	163845	,	-26346	,	-24797	,	-10.469047	,	0
0,2	,	163861	,	-26356	,	-24789	,	-14.523836	,	0
0,2	,	163877	,	-26370	,	-24803	,	-18.334833	,	0
0,2	,	163909	,	-26379	,	-24809	,	-22.075895	,	0
0,2	,	163925	,	-26395	,	-24802	,	-25.713284	,	0
0,2	,	163957	,	-26396	,	-24831	,	-29.101858	,	0
0,2	,	163973	,	-26426	,	-24838	,	-32.090317	,	0
0,2	,	163989	,	-26437	,	-24843	,	-34.709347	,	0
0,3	,	164021	,	-26451	,	-24847	,	-37.116364	,	0
0,3	,	164037	,	-26469	,	-24853	,	-39.380325	,	0
0,3	,	164053	,	-26490	,	-24852	,	-41.53527	,	0
0,3	,	164085	,	-26493	,	-24855	,	-43.610703	,	0
0,3	,	164101	,	-26496	,	-24868	,	-45.412693	,	0
0,3	,	164117	,	-26505	,	-24864	,	-46.512024	,	0
0,3	,	164149	,	-26504	,	-24862	,	-46.52004	,	0
0,3	,	164165	,	-26463	,	-24834	,	-45.020184	,	0
0,3	,	164197	,	-26411	,	-24812	,	-41.115	,	1
0,3	,	164213	,	-26336	,	-24784	,	-33.357548	,	4
0,3	,	164229	,	-26312	,	-24782	,	-20.49938	,	11
0,3	,	164261	,	-26306	,	-24770	,	-2.7100124	,	23
0,3	,	164277	,	-26298	,	-24782	,	17.957872	,	40
0,3	,	164293	,	-26311	,	-24781	,	38.38411	,	60
0,3	,	164325	,	-26311	,	-24780	,	55.482273	,	80
0,3	,	164341	,	-26347	,	-24797	,	66.85889	,	97
0,3	,	164373	,	-26353	,	-24796	,	71.0898	,	108
0,3	,	164389	,	-26366	,	-24817	,	67.95276	,	111
0,3	,	164405	,	-26361	,	-24791	,	58.551292	,	108
0,3	,	164437	,	-26348	,	-24801	,	45.050884	,	101
0,3	,	164453	,	-26336	,	-24798	,	30.151173	,	89
0,3	,	164469	,	-26348	,	-24802	,	16.311249	,	72
0,3	,	164501	,	-26349	,	-24808	,	5.0324497	,	52
0,3	,	164517	,	-26357	,	-24804	,	-3.2246666	,	32
0,3	,	164533	,	-26361	,	-24798	,	-8.666359	,	15
0,3	,	164565	,	-26376	,	-24807	,	-11.866572	,	4
0,3	,	164581	,	-26386	,	-24813	,	-13.610292	,	0
0,3	,	164613	,	-26399	,	-24834	,	-14.709427	,	0
0,3	,	164629	,	-26414	,	-24841	,	-15.828878	,	0
0,3	,	164645	,	-26415	,	-24826	,	-17.357521	,	0
0,3	,	164677	,	-26438	,	-24853	,	-19.374939	,	0
0,3	,	164693	,	-26453	,	-24855	,	-21.86356	,	0
0,3	,	164709	,	-26464	,	-24858	,	-24.83068	,	0
0,3	,	164741	,	-26471	,	-24858	,	-28.128738	,	0
0,3	,	164757	,	-26494	,	-24861	,	-31.461273	,	0
0,3	,	164789	,	-26496	,	-24865	,	-34.579903	,	0
0,3	,	164805	,	-26506	,	-24853	,	-37.250046	,	0
0,3	,	164821	,	-26513	,	-24872	,	-39.1937	,	0
0,3	,	164853	,	-26530	,	-24879	,	-40.25653	,	0
0,3	,	164869	,	-26532	,	-24898	,	-40.493797	,	0
0,3	,	164885	,	-26513	,	-24856	,	-39.888924	,	0
0,3	,	164917	,	-26457	,	-24841	,	-37.839897	,	0
0,3	,	164933	,	-26324	,	-24797	,	-32.606388	,	2
0,3	,	164949	,	-26293	,	-24777	,	-21.648115	,	7
0,3	,	164981	,	-26275	,	-24772	,	-3.706787	,	17
0,3	,	164997	,	-26256	,	-24764	,	19.655537	,	34
0,4	,	165028	,	-26243	,	-24757	,	44.997707	,	57
0,4	,	165044	,	-26220	,	-24731	,	68.71057	,	82
0,4	,	165061	,	-26210	,	-24746	,	88.02347	,	105
0,4	,	165093	,	-26202	,	-24737	,	101.29167	,	124
0,4	,	165109	,	-26212	,	-24753	,	107.799934	,	137
0,4	,	165125	,	-26234	,	-24737	,	107.410416	,	141
0,4	,	165156	,	-26219	,	-24740	,	100.51085	,	136
0,4	,	165173	,	-26201	,	-24732	,	88.42691	,	126
0,4	,	165204	,	-26197	,	-24727	,	73.41003	,	109
0,4	,	165220	,	-26198	,	-24737	,	57.785496	,	86
0,4	,	165236	,	-26205	,	-24749	,	43.183487	,	61
0,4	,	165269	,	-26209	,	-24743	,	30.413631	,	38
0,4	,	165285	,	-26216	,	-24739	,	19.714186	,	19
0,4	,	165300	,	-26228	,	-24760	,	10.981613	,	6
0,4	,	165332	,	-26236	,	-24748	,	3.8824348	,	0
0,4	,	165349	,	-26241	,	-24760	,	-1.9739847	,	0
0,4	,	165365	,	-26260	,	-24755	,	-6.910981	,	0
0,4	,	165397	,	-26287	,	-24778	,	-11.325645	,	0
0,4	,	165412	,	-26308	,	-24784	,	-15.783304	,	0
0,4	,	165444	,	-26325	,	-24784	,	-20.76766	,	0
0,4	,	165460	,	-26338	,	-24792	,	-26.383415	,	0
0,4	,	165477	,	-26350	,	-24794	,	-32.319122	,	0
0,4	,	165508	,	-26354	,	-24801	,	-37.98812	,	0
0,4	,	165524	,	-26375	,	-24807	,	-42.772118	,	0
0,4	,	165540	,	-26374	,	-24821	,	-46.25375	,	0
0,4	,	165572	,	-26388	,	-24828	,	-48.225353	,	0
0,4	,	165588	,	-26413	,	-24842	,	-48.73996	,	0
0,4	,	165620	,	-26416	,	-24829	,	-48.1932	,	0
0,4	,	165636	,	-26435	,	-24847	,	-47.06378	,	0
0,4	,	165652	,	-26413	,	-24824	,	-45.551495	,	1
0,4	,	165684	,	-26342	,	-24805	,	-43.067963	,	2
0,4	,	165700	,	-26267	,	-24777	,	-37.827446	,	4
0,4	,	165716	,	-26223	,	-24751	,	-27.638529	,	9
0,4	,	165748	,	-26198	,	-24745	,	-11.550652	,	19
0,4	,	165764	,	-26180	,	-24728	,	9.3274975	,	35
0,4	,	165796	,	-26168	,	-24728	,	32.35744	,	55
0,4	,	165812	,	-26140	,	-24725	,	54.511284	,	78
0,4	,	165828	,	-26131	,	-24738	,	73.33329	,	100
0,4	,	165860	,	-26123	,	-24702	,	87.2382	,	117
0,4	,	165876	,	-26137	,	-24721	,	95.297	,	129
0,4	,	165892	,	-26157	,	-24722	,	96.99107	,	135
0,4	,	165924	,	-26132	,	-24716	,	92.40262	,	131
0,4	,	165940	,	-26129	,	-24701	,	82.69428	,	121
0,4	,	165956	,	-26119	,	-24699	,	69.89677	,	105
0,4	,	165988	,	-26112	,	-24696	,	56.124016	,	85
0,4	,	166004	,	-26121	,	-24706	,	43.026302	,	62
0,5	,	166036	,	-26141	,	-24716	,	31.442116	,	40
0,5	,	166052	,	-26135	,	-24714	,	21.45048	,	22
0,5	,	166068	,	-26143	,	-24734	,	12.913404	,	9
0,5	,	166100	,	-26157	,	-24714	,	5.7226725	,	1
0,5	,	166116	,	-26187	,	-24740	,	-0.4520588	,	0
0,5	,	166132	,	-26189	,	-24739	,	-6.1761317	,	0
0,5	,	166164	,	-26213	,	-24765	,	-11.86479	,	0
0,5	,	166180	,	-26232	,	-24761	,	-17.670504	,	0
0,5	,	166212	,	-26241	,	-24762	,	-23.603464	,	0
0,5	,	166228	,	-26263	,	-24757	,	-29.497063	,	0
0,5	,	166244	,	-26273	,	-24781	,	-35.065914	,	0
0,5	,	166276	,	-26278	,	-24784	,	-39.975075	,	0
0,5	,	166292	,	-26306	,	-24773	,	-43.90072	,	0
0,5	,	166308	,	-26315	,	-24801	,	-46.756954	,	0
0,5	,	166340	,	-26325	,	-24781	,	-48.654022	,	0
0,5	,	166356	,	-26354	,	-24810	,	-49.7406	,	0
0,5	,	166388	,	-26372	,	-24814	,	-50.329075	,	0
0,5	,	166404	,	-26375	,	-24814	,	-50.77074	,	0
0,5	,	166420	,	-26389	,	-24828	,	-51.106873	,	0
0,5	,	166452	,	-26401	,	-24829	,	-51.153244	,	0
0,5	,	166468	,	-26414	,	-24835	,	-50.787743	,	0
0,5	,	166484	,	-26416	,	-24846	,	-49.96469	,	0
0,5	,	166516	,	-26378	,	-24827	,	-48.38392	,	0
0,5	,	166532	,	-26319	,	-24799	,	-45.012875	,	1
0,5	,	166548	,	-26247	,	-24782	,	-38.07682	,	4
0,5	,	166580	,	-26217	,	-24738	,	-25.952326	,	10
0,5	,	166596	,	-26171	,	-24739	,	-8.3145275	,	22
0,5	,	166628	,	-26160	,	-24708	,	13.525972	,	39
0,5	,	166644	,	-26153	,	-24724	,	37.01445	,	60
0,5	,	166660	,	-26145	,	-24726	,	59.0356	,	83
0,5	,	166692	,	-26155	,	-24720	,	76.75073	,	105
0,5	,	166708	,	-26175	,	-24739	,	88.06396	,	122
0,5	,	166724	,	-26186	,	-24739	,	91.76327	,	132
0,5	,	166756	,	-26177	,	-24745	,	87.83984	,	132
0,5	,	166772	,	-26168	,	-24728	,	77.69237	,	126
0,5	,	166804	,	-26157	,	-24738	,	63.72602	,	114
0,5	,	166820	,	-26155	,	-24719	,	48.548424	,	97
0,5	,	166836	,	-26171	,	-24722	,	34.189655	,	76
0,5	,	166867	,	-26179	,	-24734	,	21.679178	,	53
0,5	,	166884	,	-26192	,	-24741	,	11.207235	,	31
0,5	,	166900	,	-26206	,	-24748	,	2.5351086	,	14
0,5	,	166932	,	-26222	,	-24745	,	-4.75408	,	3
0,5	,	166948	,	-26241	,	-24756	,	-11.128672	,	0
0,5	,	166964	,	-26245	,	-24771	,	-16.949764	,	0
0,5	,	166996	,	-26256	,	-24764	,	-22.289103	,	0
0,5	,	167012	,	-26278	,	-24772	,	-27.026697	,	0
0,6	,	167043	,	-26289	,	-24786	,	-31.134462	,	0
0,6	,	167059	,	-26307	,	-24788	,	-34.69504	,	0
0,6	,	167075	,	-26331	,	-24803	,	-37.839836	,	0
0,6	,	167108	,	-26332	,	-24805	,	-40.704308	,	0
0,6	,	167124	,	-26351	,	-24806	,	-43.25106	,	0
0,6	,	167139	,	-26358	,	-24813	,	-45.289665	,	0
0,6	,	167172	,	-26377	,	-24822	,	-46.68274	,	0
0,6	,	167188	,	-26394	,	-24829	,	-47.463028	,	0
0,6	,	167220	,	-26404	,	-24827	,	-47.807243	,	0
0,6	,	167236	,	-26417	,	-24833	,	-47.863846	,	0
0,6	,	167252	,	-26424	,	-24839	,	-47.651825	,	0
0,6	,	167283	,	-26445	,	-24850	,	-47.155632	,	0
0,6	,	167299	,	-26444	,	-24842	,	-46.40416	,	0
0,6	,	167315	,	-26394	,	-24824	,	-45.087696	,	0
0,6	,	167348	,	-26321	,	-24796	,	-41.88604	,	1
0,6	,	167364	,	-26274	,	-24772	,	-34.705906	,	4
0,6	,	167380	,	-26238	,	-24765	,	-22.05799	,	11
0,6	,	167412	,	-26218	,	-24751	,	-4.1561604	,	23
0,6	,	167427	,	-26222	,	-24750	,	17.028801	,	40
0,6	,	167460	,	-26207	,	-24743	,	38.471825	,	61
0,6	,	167475	,	-26187	,	-24754	,	57.28433	,	82
0,6	,	167491	,	-26185	,	-24738	,	71.58503	,	100
0,6	,	167524	,	-26207	,	-24750	,	80.34653	,	114
0,6	,	167539	,	-26219	,	-24736	,	82.946915	,	121
0,6	,	167555	,	-26245	,	-24760	,	79.20407	,	120
0,6	,	167588	,	-26196	,	-24741	,	69.86589	,	113
0,6	,	167603	,	-26194	,	-24743	,	57.00255	,	101
0,6	,	167635	,	-26193	,	-24742	,	43.278553	,	84
0,6	,	167651	,	-26204	,	-24753	,	30.643482	,	63
0,6	,	167667	,	-26189	,	-24746	,	20.032345	,	42
0,6	,	167700	,	-26226	,	-24764	,	11.686411	,	24
0,6	,	167715	,	-26235	,	-24763	,	5.174224	,	10
0,6	,	167731	,	-26249	,	-24760	,	-0.3466444	,	2
0,6	,	167763	,	-26257	,	-24785	,	-5.5268455	,	0
0,6	,	167779	,	-26268	,	-24780	,	-10.602418	,	0
0,6	,	167795	,	-26290	,	-24789	,	-15.58678	,	0
0,6	,	167827	,	-26307	,	-24802	,	-20.518248	,	0
0,6	,	167843	,	-26318	,	-24800	,	-25.451298	,	0
0,6	,	167875	,	-26329	,	-24805	,	-30.262203	,	0
0,6	,	167891	,	-26344	,	-24815	,	-34.670418	,	0
0,6	,	167907	,	-26363	,	-24831	,	-38.45921	,	0
0,6	,	167939	,	-26364	,	-24830	,	-41.53233	,	0
0,6	,	167955	,	-26375	,	-24838	,	-43.752094	,	0
0,6	,	167971	,	-26388	,	-24833	,	-44.96166	,	0
0,6	,	168003	,	-26400	,	-24840	,	-45.185036	,	0
0,7	,	168019	,	-26404	,	-24845	,	-44.597694	,	0
0,7	,	168051	,	-26452	,	-24852	,	-43.54211	,	0
0,7	,	168068	,	-26451	,	-24861	,	-42.640858	,	1
0,7	,	168083	,	-26460	,	-24862	,	-42.36313	,	1
0,7	,	168115	,	-26481	,	-24869	,	-42.661545	,	1
0,7	,	168131	,	-26492	,	-24870	,	-43.31685	,	1
0,7	,	168147	,	-26509	,	-24877	,	-44.184753	,	1
0,7	,	168179	,	-26464	,	-24867	,	-44.867302	,	1
0,7	,	168195	,	-26406	,	-24829	,	-44.101585	,	1
0,7	,	168227	,	-26332	,	-24803	,	-39.711258	,	1
0,7	,	168243	,	-26280	,	-24796	,	-29.578428	,	5
0,7	,	168259	,	-26255	,	-24776	,	-12.938139	,	14
0,7	,	168291	,	-26214	,	-24759	,	9.060362	,	30
0,7	,	168307	,	-26196	,	-24755	,	33.915188	,	51
0,7	,	168323	,	-26183	,	-24738	,	58.617813	,	75
0,7	,	168355	,	-26173	,	-24739	,	80.237564	,	99
0,7	,	168371	,	-26176	,	-24733	,	96.42429	,	120
0,7	,	168387	,	-26181	,	-24738	,	105.68696	,	136
0,7	,	168419	,	-26186	,	-24748	,	107.46893	,	145
0,7	,	168435	,	-26178	,	-24746	,	102.23627	,	142
0,7	,	168467	,	-26166	,	-24739	,	91.47897	,	132
0,7	,	168483	,	-26166	,	-24727	,	77.346146	,	116
0,7	,	168499	,	-26167	,	-24730	,	61.96564	,	95
0,7	,	168531	,	-26169	,	-24716	,	46.95731	,	71
0,7	,	168547	,	-26181	,	-24732	,	33.320194	,	47
0,7	,	168563	,	-26198	,	-24736	,	21.43506	,	26
0,7	,	168595	,	-26201	,	-24744	,	11.220444	,	10
0,7	,	168611	,	-26225	,	-24754	,	2.4192276	,	1
0,7	,	168643	,	-26238	,	-24755	,	-5.3053427	,	0
0,7	,	168659	,	-26250	,	-24759	,	-12.292547	,	0
0,7	,	168675	,	-26262	,	-24757	,	-18.68843	,	0
0,7	,	168707	,	-26287	,	-24771	,	-24.496897	,	0
0,7	,	168723	,	-26297	,	-24777	,	-29.762005	,	0
0,7	,	168739	,	-26303	,	-24781	,	-34.463932	,	0
0,7	,	168771	,	-26327	,	-24789	,	-38.4408	,	0
0,7	,	168787	,	-26345	,	-24796	,	-41.648636	,	0
0,7	,	168803	,	-26357	,	-24800	,	-44.240433	,	0
0,7	,	168835	,	-26354	,	-24806	,	-46.24776	,	0
0,7	,	168851	,	-26372	,	-24805	,	-47.452644	,	0
0,7	,	168883	,	-26389	,	-24823	,	-47.72792	,	0
0,7	,	168899	,	-26385	,	-24825	,	-47.198486	,	0
0,7	,	168916	,	-26406	,	-24828	,	-46.00766	,	0
0,7	,	168947	,	-26423	,	-24834	,	-44.36349	,	1
0,7	,	168963	,	-26424	,	-24831	,	-42.616188	,	2
0,7	,	168979	,	-26431	,	-24846	,	-40.948326	,	3
0,7	,	169011	,	-26460	,	-24844	,	-39.385674	,	4
0,8	,	169027	,	-26476	,	-24844	,	-38.16622	,	5
0,8	,	169059	,	-26488	,	-24863	,	-37.657417	,	6
0,8	,	169075	,	-26500	,	-24866	,	-37.980415	,	6
0,8	,	169091	,	-26505	,	-24857	,	-38.919888	,	6
0,8	,	169123	,	-26452	,	-24830	,	-39.754105	,	6
0,8	,	169139	,	-26388	,	-24809	,	-38.824345	,	5
0,8	,	169155	,	-26302	,	-24780	,	-33.669323	,	4
0,8	,	169186	,	-26260	,	-24764	,	-22.127811	,	8
0,8	,	169203	,	-26225	,	-24724	,	-3.6982288	,	18
0,8	,	169235	,	-26209	,	-24739	,	19.95686	,	35
0,8	,	169251	,	-26181	,	-24725	,	45.72714	,	57
0,8	,	169267	,	-26165	,	-24724	,	70.25622	,	82
0,8	,	169299	,	-26156	,	-24715	,	90.757164	,	106
0,8	,	169315	,	-26139	,	-24709	,	105.3423	,	126
0,8	,	169331	,	-26170	,	-24716	,	113.003204	,	140
0,8	,	169363	,	-26167	,	-24711	,	113.34177	,	147
0,8	,	169379	,	-26155	,	-24710	,	106.73468	,	142
0,8	,	169395	,	-26150	,	-24706	,	94.68292	,	131
0,8	,	169427	,	-26146	,	-24717	,	79.39509	,	113
0,8	,	169443	,	-26155	,	-24690	,	62.988247	,	90
0,8	,	169474	,	-26148	,	-24708	,	47.05982	,	65
0,8	,	169490	,	-26156	,	-24706	,	32.690655	,	41
0,8	,	169506	,	-26176	,	-24704	,	20.43157	,	21
0,8	,	169538	,	-26181	,	-24717	,	10.245018	,	7
0,8	,	169555	,	-26201	,	-24716	,	1.7544403	,	0
0,8	,	169570	,	-26208	,	-24736	,	-5.46218	,	0
0,8	,	169603	,	-26225	,	-24726	,	-11.748708	,	0
0,8	,	169619	,	-26238	,	-24744	,	-17.33839	,	0
0,8	,	169651	,	-26255	,	-24740	,	-22.39192	,	0
0,8	,	169667	,	-26268	,	-24755	,	-27.01333	,	0
0,8	,	169683	,	-26285	,	-24740	,	-31.249092	,	0
0,8	,	169714	,	-26310	,	-24781	,	-35.1587	,	0
0,8	,	169730	,	-26327	,	-24784	,	-38.880424	,	0
0,8	,	169746	,	-26341	,	-24787	,	-42.51445	,	0
0,8	,	169779	,	-26340	,	-24798	,	-45.894608	,	0
0,8	,	169795	,	-26359	,	-24790	,	-48.598473	,	0
0,8	,	169811	,	-26378	,	-24790	,	-50.32344	,	0
0,8	,	169842	,	-26393	,	-24817	,	-51.142952	,	0
0,8	,	169859	,	-26388	,	-24818	,	-51.237328	,	0
0,8	,	169891	,	-26417	,	-24822	,	-50.6521	,	0
0,8	,	169907	,	-26436	,	-24843	,	-49.57249	,	0
0,8	,	169923	,	-26440	,	-24832	,	-48.40015	,	1
0,8	,	169955	,	-26477	,	-24850	,	-47.47173	,	2
0,8	,	169970	,	-26482	,	-24851	,	-47.055008	,	2
0,8	,	169986	,	-26502	,	-24855	,	-47.303623	,	2
0,8	,	170019	,	-26515	,	-24863	,	-48.117973	,	2
0,9	,	170034	,	-26508	,	-24872	,	-49.15042	,	2
0,9	,	170066	,	-26475	,	-24859	,	-49.600742	,	2
