Data recorded on Wed Jul 26 14-42-54 CAT 2017
Time: 14:43:1
Time		Millis		IR PPG		Red PPG		Filtered		SSF
43,10	,	22574	,	-17578	,	-13838	,	-2.783224	,	9
43,10	,	22590	,	-17561	,	-13835	,	5.518081	,	16
43,10	,	22622	,	-17559	,	-13834	,	14.260434	,	24
43,10	,	22638	,	-17541	,	-13837	,	22.63926	,	32
43,10	,	22654	,	-17540	,	-13833	,	29.929285	,	40
43,10	,	22686	,	-17544	,	-13826	,	35.532845	,	47
43,10	,	22702	,	-17528	,	-13834	,	38.994728	,	52
43,10	,	22734	,	-17543	,	-13837	,	40.15473	,	54
43,10	,	22749	,	-17541	,	-13818	,	39.06505	,	52
43,10	,	22765	,	-17554	,	-13834	,	35.853622	,	47
43,10	,	22798	,	-17543	,	-13827	,	30.84604	,	40
43,10	,	22814	,	-17547	,	-13826	,	24.68003	,	32
43,10	,	22830	,	-17548	,	-13831	,	18.154003	,	24
43,10	,	22862	,	-17551	,	-13832	,	11.931212	,	16
43,10	,	22878	,	-17553	,	-13835	,	6.4276886	,	9
43,10	,	22909	,	-17566	,	-13838	,	1.812479	,	4
43,10	,	22926	,	-17563	,	-13835	,	-1.9675455	,	1
43,10	,	22941	,	-17563	,	-13834	,	-4.986925	,	0
43,10	,	22974	,	-17575	,	-13845	,	-7.255999	,	0
43,10	,	22990	,	-17574	,	-13838	,	-8.87579	,	0
43,10	,	23006	,	-17584	,	-13841	,	-10.039753	,	0
43,10	,	23038	,	-17592	,	-13848	,	-10.957895	,	0
43,10	,	23054	,	-17595	,	-13854	,	-11.83777	,	0
43,10	,	23086	,	-17604	,	-13848	,	-12.798035	,	0
43,10	,	23101	,	-17610	,	-13851	,	-13.857677	,	0
43,10	,	23117	,	-17616	,	-13855	,	-14.995918	,	0
43,10	,	23149	,	-17626	,	-13860	,	-16.179209	,	0
43,10	,	23165	,	-17619	,	-13863	,	-17.328754	,	0
43,10	,	23181	,	-17637	,	-13858	,	-18.299057	,	0
43,10	,	23214	,	-17631	,	-13874	,	-18.983704	,	0
43,10	,	23230	,	-17649	,	-13857	,	-19.377419	,	0
43,10	,	23246	,	-17656	,	-13870	,	-19.5967	,	0
43,10	,	23278	,	-17659	,	-13877	,	-19.828209	,	0
43,10	,	23294	,	-17653	,	-13869	,	-20.076956	,	0
43,10	,	23325	,	-17652	,	-13865	,	-20.065624	,	0
43,10	,	23341	,	-17627	,	-13865	,	-19.338844	,	0
43,10	,	23357	,	-17617	,	-13858	,	-17.348408	,	0
43,10	,	23390	,	-17601	,	-13854	,	-13.668636	,	1
43,10	,	23406	,	-17591	,	-13853	,	-8.252834	,	4
43,10	,	23422	,	-17577	,	-13841	,	-1.4449692	,	9
43,10	,	23454	,	-17574	,	-13848	,	6.1415315	,	15
43,10	,	23470	,	-17571	,	-13829	,	13.704801	,	22
43,10	,	23501	,	-17553	,	-13832	,	20.457905	,	29
43,10	,	23517	,	-17555	,	-13838	,	25.897196	,	35
43,10	,	23533	,	-17561	,	-13834	,	29.711372	,	40
43,10	,	23566	,	-17563	,	-13836	,	31.573856	,	43
43,11	,	23582	,	-17558	,	-13835	,	31.31684	,	43
43,11	,	23598	,	-17565	,	-13840	,	29.133533	,	40
43,11	,	23630	,	-17560	,	-13832	,	25.473	,	35
43,11	,	23645	,	-17555	,	-13837	,	20.92723	,	29
43,11	,	23662	,	-17565	,	-13831	,	16.124119	,	22
43,11	,	23694	,	-17563	,	-13842	,	11.510598	,	15
43,11	,	23709	,	-17562	,	-13825	,	7.341915	,	9
43,11	,	23741	,	-17575	,	-13840	,	3.7626524	,	4
43,11	,	23757	,	-17582	,	-13842	,	0.71301746	,	1
43,11	,	23773	,	-17577	,	-13845	,	-1.9810429	,	0
43,11	,	23805	,	-17595	,	-13845	,	-4.4113383	,	0
43,11	,	23821	,	-17596	,	-13847	,	-6.661742	,	0
43,11	,	23837	,	-17589	,	-13851	,	-8.760633	,	0
43,11	,	23869	,	-17608	,	-13848	,	-10.574648	,	0
43,11	,	23885	,	-17605	,	-13855	,	-12.032732	,	0
43,11	,	23917	,	-17612	,	-13850	,	-13.181542	,	0
43,11	,	23933	,	-17624	,	-13857	,	-14.079706	,	0
43,11	,	23949	,	-17631	,	-13853	,	-14.875014	,	0
43,11	,	23981	,	-17631	,	-13853	,	-15.720188	,	0
43,11	,	23997	,	-17646	,	-13863	,	-16.631947	,	0
43,11	,	24013	,	-17653	,	-13862	,	-17.609573	,	0
43,11	,	24046	,	-17652	,	-13866	,	-18.655613	,	0
43,11	,	24062	,	-17663	,	-13863	,	-19.652979	,	0
43,11	,	24077	,	-17668	,	-13867	,	-20.460407	,	0
43,11	,	24109	,	-17675	,	-13867	,	-21.034088	,	0
43,11	,	24125	,	-17668	,	-13860	,	-21.325932	,	0
43,11	,	24157	,	-17654	,	-13861	,	-21.095116	,	0
43,11	,	24173	,	-17640	,	-13868	,	-19.869116	,	0
43,11	,	24189	,	-17624	,	-13853	,	-17.15607	,	1
43,11	,	24221	,	-17619	,	-13850	,	-12.738806	,	3
43,11	,	24237	,	-17599	,	-13846	,	-6.789571	,	7
43,11	,	24253	,	-17590	,	-13839	,	0.27113914	,	12
43,11	,	24285	,	-17591	,	-13840	,	7.8440094	,	19
43,11	,	24301	,	-17576	,	-13839	,	15.154621	,	26
43,11	,	24333	,	-17571	,	-13829	,	21.518969	,	33
43,11	,	24349	,	-17579	,	-13836	,	26.468203	,	39
43,11	,	24365	,	-17580	,	-13833	,	29.57809	,	43
43,11	,	24397	,	-17576	,	-13834	,	30.553343	,	45
43,11	,	24413	,	-17584	,	-13836	,	29.44037	,	43
43,11	,	24429	,	-17585	,	-13835	,	26.550606	,	39
43,11	,	24461	,	-17578	,	-13835	,	22.36008	,	34
43,11	,	24477	,	-17596	,	-13838	,	17.43676	,	27
43,11	,	24509	,	-17595	,	-13838	,	12.218153	,	20
43,11	,	24525	,	-17593	,	-13839	,	7.027567	,	13
43,11	,	24541	,	-17594	,	-13841	,	2.2652006	,	7
43,11	,	24573	,	-17607	,	-13842	,	-1.7350297	,	3
43,12	,	24590	,	-17597	,	-13843	,	-4.872978	,	0
43,12	,	24605	,	-17608	,	-13842	,	-7.1524873	,	0
43,12	,	24637	,	-17609	,	-13847	,	-8.634227	,	0
43,12	,	24653	,	-17617	,	-13850	,	-9.50526	,	0
43,12	,	24669	,	-17625	,	-13853	,	-10.040239	,	0
43,12	,	24701	,	-17632	,	-13849	,	-10.531909	,	0
43,12	,	24717	,	-17645	,	-13858	,	-11.235584	,	0
43,12	,	24749	,	-17649	,	-13852	,	-12.320287	,	0
43,12	,	24765	,	-17650	,	-13854	,	-13.774189	,	0
43,12	,	24781	,	-17665	,	-13862	,	-15.408574	,	0
43,12	,	24813	,	-17663	,	-13861	,	-17.030436	,	0
43,12	,	24829	,	-17672	,	-13863	,	-18.480415	,	0
43,12	,	24845	,	-17681	,	-13866	,	-19.636358	,	0
43,12	,	24877	,	-17688	,	-13875	,	-20.502224	,	0
43,12	,	24893	,	-17686	,	-13869	,	-21.118132	,	0
43,12	,	24925	,	-17698	,	-13880	,	-21.44861	,	0
43,12	,	24941	,	-17701	,	-13867	,	-21.482426	,	0
43,12	,	24957	,	-17681	,	-13871	,	-21.160484	,	0
43,12	,	24989	,	-17660	,	-13864	,	-20.068756	,	0
43,12	,	25005	,	-17651	,	-13854	,	-17.549852	,	1
43,12	,	25021	,	-17629	,	-13855	,	-13.175614	,	3
43,12	,	25053	,	-17626	,	-13846	,	-6.9788876	,	7
43,12	,	25069	,	-17616	,	-13847	,	0.5326586	,	13
43,12	,	25085	,	-17609	,	-13841	,	8.523013	,	20
43,12	,	25117	,	-17594	,	-13838	,	16.162956	,	27
43,12	,	25133	,	-17583	,	-13841	,	22.884693	,	34
43,12	,	25165	,	-17577	,	-13844	,	28.38456	,	40
43,12	,	25181	,	-17577	,	-13822	,	32.45513	,	45
43,12	,	25197	,	-17586	,	-13828	,	34.82995	,	48
43,12	,	25229	,	-17585	,	-13833	,	35.218063	,	48
43,12	,	25245	,	-17583	,	-13831	,	33.54968	,	44
43,12	,	25261	,	-17579	,	-13830	,	30.154184	,	38
43,12	,	25293	,	-17589	,	-13829	,	25.606592	,	31
43,12	,	25309	,	-17587	,	-13836	,	20.442295	,	24
43,12	,	25341	,	-17585	,	-13833	,	15.114694	,	17
43,12	,	25357	,	-17588	,	-13829	,	10.067492	,	11
43,12	,	25373	,	-17594	,	-13833	,	5.625842	,	6
43,12	,	25405	,	-17593	,	-13843	,	1.9112754	,	2
43,12	,	25421	,	-17602	,	-13826	,	-1.0857625	,	0
43,12	,	25437	,	-17602	,	-13840	,	-3.4519563	,	0
43,12	,	25469	,	-17620	,	-13842	,	-5.3664637	,	0
43,12	,	25485	,	-17615	,	-13843	,	-7.069425	,	0
43,12	,	25500	,	-17626	,	-13852	,	-8.713608	,	0
43,12	,	25533	,	-17625	,	-13855	,	-10.299864	,	0
43,12	,	25549	,	-17634	,	-13852	,	-11.759453	,	0
43,13	,	25581	,	-17646	,	-13850	,	-13.070945	,	0
43,13	,	25597	,	-17649	,	-13859	,	-14.319955	,	0
43,13	,	25613	,	-17646	,	-13861	,	-15.534073	,	0
43,13	,	25645	,	-17664	,	-13867	,	-16.601273	,	0
43,13	,	25661	,	-17662	,	-13853	,	-17.464111	,	0
43,13	,	25677	,	-17676	,	-13866	,	-18.171227	,	0
43,13	,	25709	,	-17691	,	-13869	,	-18.847385	,	0
43,13	,	25725	,	-17689	,	-13870	,	-19.658903	,	0
43,13	,	25757	,	-17695	,	-13871	,	-20.600136	,	0
43,13	,	25773	,	-17704	,	-13871	,	-21.485697	,	0
43,13	,	25789	,	-17701	,	-13877	,	-22.142448	,	0
43,13	,	25821	,	-17692	,	-13868	,	-22.34309	,	0
43,13	,	25837	,	-17674	,	-13867	,	-21.659641	,	0
43,13	,	25853	,	-17665	,	-13862	,	-19.580757	,	0
43,13	,	25885	,	-17646	,	-13857	,	-15.777131	,	2
43,13	,	25901	,	-17640	,	-13845	,	-10.258689	,	5
43,13	,	25917	,	-17629	,	-13842	,	-3.405591	,	10
43,13	,	25949	,	-17607	,	-13843	,	4.1946115	,	16
43,13	,	25965	,	-17607	,	-13836	,	11.976233	,	23
43,13	,	25996	,	-17589	,	-13842	,	19.393965	,	30
43,13	,	26013	,	-17585	,	-13835	,	25.92864	,	37
43,13	,	26028	,	-17578	,	-13831	,	31.175941	,	43
43,13	,	26061	,	-17590	,	-13834	,	34.773712	,	48
43,13	,	26077	,	-17588	,	-13831	,	36.340786	,	49
43,13	,	26093	,	-17581	,	-13835	,	35.704845	,	47
43,13	,	26125	,	-17582	,	-13838	,	33.13874	,	42
43,13	,	26141	,	-17590	,	-13833	,	29.167576	,	36
43,13	,	26172	,	-17579	,	-13835	,	24.317957	,	29
43,13	,	26188	,	-17587	,	-13839	,	19.13567	,	22
43,13	,	26204	,	-17589	,	-13838	,	14.094685	,	15
43,13	,	26236	,	-17601	,	-13839	,	9.411459	,	9
43,13	,	26252	,	-17599	,	-13836	,	5.1005545	,	4
43,13	,	26269	,	-17606	,	-13842	,	1.1747112	,	1
43,13	,	26301	,	-17606	,	-13841	,	-2.2853093	,	0
43,13	,	26317	,	-17617	,	-13844	,	-5.218047	,	0
43,13	,	26333	,	-17622	,	-13843	,	-7.673792	,	0
43,13	,	26364	,	-17621	,	-13849	,	-9.74463	,	0
43,13	,	26380	,	-17634	,	-13853	,	-11.455454	,	0
43,13	,	26412	,	-17637	,	-13848	,	-12.846284	,	0
43,13	,	26428	,	-17651	,	-13855	,	-14.050373	,	0
43,13	,	26444	,	-17654	,	-13854	,	-15.227818	,	0
43,13	,	26477	,	-17661	,	-13860	,	-16.45645	,	0
43,13	,	26493	,	-17666	,	-13858	,	-17.683708	,	0
43,13	,	26509	,	-17669	,	-13864	,	-18.78589	,	0
43,13	,	26540	,	-17671	,	-13858	,	-19.61412	,	0
43,13	,	26556	,	-17679	,	-13864	,	-20.040375	,	0
43,14	,	26588	,	-17688	,	-13866	,	-20.065739	,	0
43,14	,	26604	,	-17691	,	-13873	,	-19.833296	,	0
43,14	,	26620	,	-17698	,	-13879	,	-19.49884	,	0
43,14	,	26652	,	-17701	,	-13868	,	-19.142624	,	0
43,14	,	26668	,	-17705	,	-13871	,	-18.771885	,	0
43,14	,	26684	,	-17684	,	-13866	,	-18.239119	,	0
43,14	,	26716	,	-17668	,	-13863	,	-17.090391	,	0
43,14	,	26732	,	-17655	,	-13858	,	-14.700274	,	1
43,14	,	26764	,	-17648	,	-13856	,	-10.698805	,	3
43,14	,	26780	,	-17634	,	-13848	,	-5.1924486	,	7
43,14	,	26796	,	-17624	,	-13846	,	1.379313	,	12
43,14	,	26828	,	-17623	,	-13845	,	8.401958	,	18
43,14	,	26844	,	-17609	,	-13844	,	15.168499	,	25
43,14	,	26860	,	-17603	,	-13847	,	21.079573	,	31
43,14	,	26893	,	-17603	,	-13829	,	25.74533	,	36
43,14	,	26908	,	-17594	,	-13833	,	28.91621	,	40
43,14	,	26924	,	-17608	,	-13833	,	30.43753	,	42
43,14	,	26956	,	-17611	,	-13832	,	30.17089	,	41
43,14	,	26972	,	-17600	,	-13832	,	28.117306	,	37
43,14	,	27004	,	-17598	,	-13831	,	24.686089	,	32
43,14	,	27020	,	-17599	,	-13833	,	20.552258	,	26
43,14	,	27036	,	-17596	,	-13835	,	16.311222	,	19
43,14	,	27068	,	-17603	,	-13828	,	12.350489	,	13
43,14	,	27084	,	-17596	,	-13832	,	8.870625	,	8
43,14	,	27100	,	-17603	,	-13845	,	5.963239	,	4
43,14	,	27132	,	-17616	,	-13820	,	3.568252	,	1
43,14	,	27148	,	-17618	,	-13841	,	1.4182048	,	0
43,14	,	27180	,	-17623	,	-13845	,	-0.74649024	,	0
43,14	,	27196	,	-17629	,	-13837	,	-3.0011	,	0
43,14	,	27212	,	-17646	,	-13837	,	-5.369894	,	0
43,14	,	27244	,	-17636	,	-13842	,	-7.8817472	,	0
43,14	,	27260	,	-17646	,	-13848	,	-10.386353	,	0
43,14	,	27276	,	-17653	,	-13847	,	-12.619852	,	0
43,14	,	27308	,	-17660	,	-13852	,	-14.469761	,	0
43,14	,	27324	,	-17666	,	-13854	,	-15.97303	,	0
43,14	,	27340	,	-17664	,	-13864	,	-17.152103	,	0
43,14	,	27372	,	-17670	,	-13846	,	-17.935904	,	0
43,14	,	27388	,	-17680	,	-13862	,	-18.275593	,	0
43,14	,	27420	,	-17685	,	-13859	,	-18.286617	,	0
43,14	,	27436	,	-17693	,	-13864	,	-18.17255	,	0
43,14	,	27452	,	-17691	,	-13861	,	-18.0555	,	0
43,14	,	27484	,	-17696	,	-13869	,	-17.902334	,	0
43,14	,	27500	,	-17708	,	-13865	,	-17.652962	,	0
43,14	,	27517	,	-17698	,	-13863	,	-17.31476	,	0
43,14	,	27548	,	-17686	,	-13858	,	-16.738544	,	0
43,14	,	27564	,	-17668	,	-13857	,	-15.466135	,	0
43,15	,	27596	,	-17651	,	-13862	,	-12.931571	,	1
43,15	,	27612	,	-17649	,	-13841	,	-8.812069	,	3
43,15	,	27628	,	-17640	,	-13841	,	-3.2932158	,	7
43,15	,	27660	,	-17626	,	-13842	,	3.0528994	,	12
43,15	,	27676	,	-17623	,	-13842	,	9.596241	,	18
43,15	,	27692	,	-17623	,	-13845	,	15.714476	,	24
43,15	,	27724	,	-17622	,	-13838	,	20.764872	,	30
43,15	,	27740	,	-17616	,	-13837	,	24.251348	,	35
43,15	,	27756	,	-17634	,	-13839	,	25.908825	,	38
43,15	,	27788	,	-17627	,	-13840	,	25.612965	,	38
43,15	,	27804	,	-17619	,	-13836	,	23.526077	,	36
43,15	,	27836	,	-17629	,	-13839	,	20.191814	,	32
43,15	,	27852	,	-17630	,	-13833	,	16.187954	,	27
43,15	,	27868	,	-17626	,	-13829	,	11.939076	,	21
43,15	,	27900	,	-17631	,	-13832	,	7.83002	,	15
43,15	,	27916	,	-17631	,	-13836	,	4.176751	,	9
43,15	,	27932	,	-17642	,	-13836	,	1.1122298	,	4
43,15	,	27964	,	-17639	,	-13837	,	-1.4100192	,	1
43,15	,	27980	,	-17653	,	-13839	,	-3.5236316	,	0
43,15	,	28012	,	-17654	,	-13841	,	-5.3943076	,	0
43,15	,	28028	,	-17651	,	-13836	,	-7.1100364	,	0
43,15	,	28044	,	-17649	,	-13843	,	-8.541547	,	0
43,15	,	28076	,	-17657	,	-13843	,	-9.47742	,	0
43,15	,	28092	,	-17672	,	-13845	,	-9.939299	,	0
43,15	,	28108	,	-17676	,	-13847	,	-10.24808	,	0
43,15	,	28140	,	-17677	,	-13855	,	-10.722496	,	0
43,15	,	28156	,	-17679	,	-13852	,	-11.411835	,	0
43,15	,	28172	,	-17687	,	-13853	,	-12.183753	,	0
43,15	,	28204	,	-17693	,	-13851	,	-12.94146	,	0
43,15	,	28220	,	-17691	,	-13859	,	-13.641695	,	0
43,15	,	28252	,	-17702	,	-13860	,	-14.219749	,	0
43,15	,	28268	,	-17708	,	-13867	,	-14.664471	,	0
43,15	,	28284	,	-17705	,	-13862	,	-15.020165	,	0
43,15	,	28316	,	-17704	,	-13858	,	-15.214903	,	0
43,15	,	28332	,	-17693	,	-13858	,	-15.007404	,	0
43,15	,	28348	,	-17684	,	-13852	,	-14.064245	,	0
43,15	,	28380	,	-17652	,	-13841	,	-11.972391	,	0
43,15	,	28396	,	-17649	,	-13840	,	-8.310003	,	2
43,15	,	28428	,	-17633	,	-13840	,	-2.9676166	,	5
43,15	,	28444	,	-17628	,	-13835	,	3.6581855	,	10
43,15	,	28460	,	-17624	,	-13834	,	10.817131	,	16
43,15	,	28492	,	-17611	,	-13832	,	17.670954	,	23
43,15	,	28508	,	-17609	,	-13831	,	23.554432	,	29
43,15	,	28524	,	-17608	,	-13823	,	28.021124	,	34
43,15	,	28556	,	-17605	,	-13822	,	30.76173	,	38
43,16	,	28572	,	-17611	,	-13835	,	31.623207	,	40
43,16	,	28604	,	-17613	,	-13826	,	30.605862	,	38
43,16	,	28620	,	-17616	,	-13834	,	27.862873	,	35
43,16	,	28636	,	-17613	,	-13827	,	23.756964	,	30
43,16	,	28668	,	-17621	,	-13828	,	18.811619	,	24
43,16	,	28684	,	-17619	,	-13828	,	13.558777	,	17
43,16	,	28699	,	-17622	,	-13829	,	8.464463	,	11
43,16	,	28732	,	-17622	,	-13830	,	3.9117327	,	6
43,16	,	28748	,	-17630	,	-13826	,	0.1266818	,	2
43,16	,	28764	,	-17638	,	-13827	,	-2.8987122	,	0
43,16	,	28796	,	-17641	,	-13825	,	-5.3473315	,	0
43,16	,	28811	,	-17645	,	-13841	,	-7.392207	,	0
43,16	,	28843	,	-17653	,	-13824	,	-9.12402	,	0
43,16	,	28859	,	-17659	,	-13846	,	-10.628239	,	0
43,16	,	28875	,	-17669	,	-13840	,	-12.019442	,	0
43,16	,	28908	,	-17668	,	-13837	,	-13.371085	,	0
43,16	,	28924	,	-17678	,	-13844	,	-14.649735	,	0
43,16	,	28940	,	-17678	,	-13841	,	-15.766098	,	0
43,16	,	28972	,	-17687	,	-13845	,	-16.65078	,	0
43,16	,	28987	,	-17684	,	-13848	,	-17.250715	,	0
43,16	,	29019	,	-17688	,	-13852	,	-17.488367	,	0
43,16	,	29035	,	-17696	,	-13854	,	-17.312479	,	0
43,16	,	29051	,	-17695	,	-13862	,	-16.78455	,	0
43,16	,	29084	,	-17708	,	-13849	,	-16.05538	,	0
43,16	,	29100	,	-17713	,	-13865	,	-15.345462	,	0
43,16	,	29116	,	-17699	,	-13858	,	-14.795061	,	0
43,16	,	29148	,	-17680	,	-13838	,	-14.1328335	,	0
43,16	,	29163	,	-17661	,	-13838	,	-12.66642	,	0
43,16	,	29179	,	-17658	,	-13835	,	-9.757029	,	1
43,16	,	29211	,	-17639	,	-13832	,	-5.241495	,	3
43,16	,	29227	,	-17636	,	-13826	,	0.58627224	,	7
43,16	,	29259	,	-17614	,	-13828	,	7.207217	,	12
43,16	,	29275	,	-17608	,	-13825	,	14.079239	,	18
43,16	,	29292	,	-17607	,	-13825	,	20.65099	,	24
43,16	,	29323	,	-17591	,	-13804	,	26.335955	,	30
43,16	,	29339	,	-17592	,	-13813	,	30.697742	,	35
43,16	,	29356	,	-17594	,	-13810	,	33.47538	,	39
43,16	,	29388	,	-17601	,	-13813	,	34.426163	,	40
43,16	,	29403	,	-17596	,	-13809	,	33.405098	,	38
43,16	,	29435	,	-17597	,	-13808	,	30.57122	,	34
43,16	,	29451	,	-17600	,	-13807	,	26.375656	,	29
43,16	,	29467	,	-17596	,	-13816	,	21.382282	,	23
43,16	,	29499	,	-17599	,	-13809	,	16.15987	,	17
43,16	,	29515	,	-17602	,	-13813	,	11.1857	,	11
43,16	,	29531	,	-17603	,	-13820	,	6.7561703	,	6
43,16	,	29563	,	-17606	,	-13809	,	3.0133605	,	2
43,17	,	29581	,	-17618	,	-13815	,	-0.0487113	,	0
43,17	,	29595	,	-17615	,	-13816	,	-2.5723572	,	0
43,17	,	29627	,	-17622	,	-13818	,	-4.6875477	,	0
43,17	,	29643	,	-17633	,	-13816	,	-6.4870744	,	0
43,17	,	29675	,	-17640	,	-13819	,	-8.140891	,	0
43,17	,	29691	,	-17642	,	-13818	,	-9.8112	,	0
43,17	,	29707	,	-17643	,	-13824	,	-11.479016	,	0
43,17	,	29740	,	-17644	,	-13822	,	-12.948523	,	0
43,17	,	29755	,	-17655	,	-13823	,	-14.027012	,	0
43,17	,	29771	,	-17655	,	-13827	,	-14.682018	,	0
43,17	,	29803	,	-17658	,	-13826	,	-14.973457	,	0
43,17	,	29819	,	-17665	,	-13825	,	-14.955627	,	0
43,17	,	29851	,	-17677	,	-13832	,	-14.762865	,	0
43,17	,	29867	,	-17684	,	-13831	,	-14.649427	,	0
43,17	,	29883	,	-17686	,	-13832	,	-14.824503	,	0
43,17	,	29919	,	-17695	,	-13830	,	-15.318211	,	0
43,17	,	29931	,	-17694	,	-13843	,	-16.020573	,	0
43,17	,	29947	,	-17700	,	-13834	,	-16.744202	,	0
43,17	,	29979	,	-17705	,	-13838	,	-17.30341	,	0
43,17	,	29995	,	-17687	,	-13832	,	-17.509018	,	0
43,17	,	30011	,	-17667	,	-13820	,	-16.946444	,	0
43,17	,	30043	,	-17647	,	-13821	,	-14.951739	,	0
43,17	,	30059	,	-17637	,	-13808	,	-11.003749	,	1
43,17	,	30091	,	-17614	,	-13810	,	-5.044821	,	4
43,17	,	30108	,	-17606	,	-13806	,	2.5493336	,	9
43,17	,	30123	,	-17602	,	-13799	,	11.047823	,	16
43,17	,	30155	,	-17590	,	-13796	,	19.475166	,	24
43,17	,	30171	,	-17590	,	-13794	,	26.89493	,	32
43,17	,	30187	,	-17588	,	-13790	,	32.57709	,	39
43,17	,	30219	,	-17593	,	-13782	,	36.004974	,	44
43,17	,	30235	,	-17582	,	-13785	,	36.969383	,	47
43,17	,	30267	,	-17581	,	-13789	,	35.69352	,	46
43,17	,	30283	,	-17588	,	-13794	,	32.6905	,	43
43,17	,	30299	,	-17585	,	-13776	,	28.473755	,	38
43,17	,	30331	,	-17580	,	-13787	,	23.548279	,	31
43,17	,	30347	,	-17586	,	-13788	,	18.464836	,	23
43,17	,	30363	,	-17587	,	-13784	,	13.65059	,	15
43,17	,	30395	,	-17602	,	-13792	,	9.263314	,	8
43,17	,	30411	,	-17595	,	-13792	,	5.266569	,	3
43,17	,	30443	,	-17603	,	-13795	,	1.6482935	,	0
43,17	,	30459	,	-17607	,	-13797	,	-1.5283666	,	0
43,17	,	30475	,	-17615	,	-13796	,	-4.2640057	,	0
43,17	,	30507	,	-17612	,	-13790	,	-6.6106195	,	0
43,17	,	30523	,	-17620	,	-13805	,	-8.559389	,	0
43,17	,	30539	,	-17619	,	-13790	,	-10.060924	,	0
43,17	,	30571	,	-17633	,	-13801	,	-11.134825	,	0
43,18	,	30587	,	-17639	,	-13807	,	-11.950624	,	0
43,18	,	30603	,	-17642	,	-13812	,	-12.7364235	,	0
43,18	,	30635	,	-17654	,	-13811	,	-13.618089	,	0
43,18	,	30651	,	-17660	,	-13816	,	-14.641882	,	0
43,18	,	30683	,	-17666	,	-13816	,	-15.817255	,	0
43,18	,	30699	,	-17665	,	-13814	,	-17.043255	,	0
43,18	,	30715	,	-17667	,	-13818	,	-18.088093	,	0
43,18	,	30747	,	-17681	,	-13819	,	-18.750666	,	0
43,18	,	30763	,	-17676	,	-13833	,	-19.0037	,	0
43,18	,	30779	,	-17687	,	-13814	,	-18.898808	,	0
43,18	,	30811	,	-17676	,	-13823	,	-18.437843	,	0
43,18	,	30827	,	-17665	,	-13817	,	-17.469055	,	0
43,18	,	30859	,	-17655	,	-13813	,	-15.668401	,	0
43,18	,	30875	,	-17640	,	-13812	,	-12.72976	,	1
43,18	,	30891	,	-17629	,	-13805	,	-8.52101	,	3
43,18	,	30923	,	-17613	,	-13810	,	-3.1159854	,	7
43,18	,	30939	,	-17612	,	-13801	,	3.1727777	,	12
43,18	,	30955	,	-17605	,	-13797	,	9.767393	,	18
43,18	,	30987	,	-17605	,	-13791	,	15.934228	,	24
43,18	,	31003	,	-17597	,	-13799	,	21.019667	,	30
43,18	,	31019	,	-17597	,	-13780	,	24.61414	,	35
43,18	,	31051	,	-17600	,	-13783	,	26.533533	,	38
43,18	,	31067	,	-17601	,	-13791	,	26.725037	,	38
43,18	,	31098	,	-17596	,	-13793	,	25.30111	,	36
43,18	,	31115	,	-17597	,	-13788	,	22.611626	,	32
43,18	,	31131	,	-17595	,	-13784	,	19.150585	,	27
43,18	,	31163	,	-17596	,	-13783	,	15.396083	,	21
43,18	,	31179	,	-17594	,	-13788	,	11.72936	,	15
43,18	,	31195	,	-17602	,	-13786	,	8.390272	,	9
43,18	,	31227	,	-17595	,	-13786	,	5.4828873	,	4
43,18	,	31243	,	-17601	,	-13794	,	3.064629	,	1
43,18	,	31275	,	-17608	,	-13778	,	1.1275427	,	0
43,18	,	31291	,	-17614	,	-13791	,	-0.49279428	,	0
43,18	,	31307	,	-17613	,	-13796	,	-2.0023866	,	0
43,18	,	31339	,	-17622	,	-13798	,	-3.494098	,	0
43,18	,	31355	,	-17625	,	-13795	,	-4.9961534	,	0
43,18	,	31371	,	-17626	,	-13796	,	-6.510228	,	0
43,18	,	31403	,	-17635	,	-13794	,	-7.9826064	,	0
43,18	,	31419	,	-17639	,	-13805	,	-9.372997	,	0
43,18	,	31435	,	-17635	,	-13806	,	-10.638369	,	0
43,18	,	31467	,	-17645	,	-13805	,	-11.657213	,	0
43,18	,	31483	,	-17655	,	-13817	,	-12.38804	,	0
43,18	,	31515	,	-17656	,	-13806	,	-12.968546	,	0
43,18	,	31531	,	-17663	,	-13807	,	-13.530543	,	0
43,18	,	31547	,	-17668	,	-13811	,	-14.10364	,	0
43,19	,	31578	,	-17678	,	-13811	,	-14.706522	,	0
43,19	,	31595	,	-17674	,	-13814	,	-15.347965	,	0
43,19	,	31611	,	-17660	,	-13816	,	-15.838152	,	0
43,19	,	31643	,	-17651	,	-13806	,	-15.696323	,	0
43,19	,	31659	,	-17636	,	-13794	,	-14.367815	,	0
43,19	,	31690	,	-17627	,	-13800	,	-11.503902	,	1
43,19	,	31706	,	-17613	,	-13790	,	-7.0831876	,	3
43,19	,	31722	,	-17604	,	-13794	,	-1.381774	,	7
43,19	,	31755	,	-17608	,	-13789	,	5.0518036	,	12
43,19	,	31771	,	-17605	,	-13784	,	11.403254	,	18
43,19	,	31787	,	-17604	,	-13782	,	16.811886	,	24
43,19	,	31819	,	-17592	,	-13780	,	20.719706	,	29
43,19	,	31835	,	-17594	,	-13782	,	23.006052	,	32
43,19	,	31851	,	-17594	,	-13783	,	23.795633	,	34
43,19	,	31882	,	-17602	,	-13783	,	23.214962	,	33
43,19	,	31898	,	-17606	,	-13785	,	21.34877	,	31
43,19	,	31931	,	-17606	,	-13781	,	18.343805	,	27
43,19	,	31947	,	-17606	,	-13787	,	14.521183	,	22
43,19	,	31963	,	-17606	,	-13786	,	10.352385	,	16
43,19	,	31995	,	-17597	,	-13786	,	6.3555984	,	10
43,19	,	32010	,	-17608	,	-13776	,	2.970274	,	5
43,19	,	32027	,	-17603	,	-13782	,	0.39706182	,	2
43,19	,	32058	,	-17609	,	-13789	,	-1.3948336	,	0
43,19	,	32074	,	-17623	,	-13786	,	-2.607735	,	0
43,19	,	32106	,	-17632	,	-13794	,	-3.6424344	,	0
43,19	,	32123	,	-17632	,	-13800	,	-4.9034157	,	0
43,19	,	32139	,	-17642	,	-13799	,	-6.534906	,	0
43,19	,	32171	,	-17642	,	-13807	,	-8.451784	,	0
43,19	,	32187	,	-17641	,	-13800	,	-10.432319	,	0
43,19	,	32202	,	-17648	,	-13807	,	-12.176643	,	0
43,19	,	32234	,	-17665	,	-13823	,	-13.53991	,	0
43,19	,	32250	,	-17665	,	-13802	,	-14.651849	,	0
43,19	,	32266	,	-17689	,	-13820	,	-15.753347	,	0
43,19	,	32298	,	-17692	,	-13829	,	-17.084238	,	0
43,19	,	32315	,	-17713	,	-13842	,	-18.831923	,	0
43,19	,	32347	,	-17699	,	-13841	,	-20.970943	,	0
43,19	,	32362	,	-17703	,	-13843	,	-23.09898	,	0
43,19	,	32378	,	-17695	,	-13837	,	-24.567436	,	0
43,19	,	32410	,	-17689	,	-13843	,	-24.80563	,	0
43,19	,	32426	,	-17676	,	-13829	,	-23.44395	,	0
43,19	,	32442	,	-17658	,	-13834	,	-20.271955	,	1
43,19	,	32474	,	-17645	,	-13838	,	-15.232348	,	4
43,19	,	32490	,	-17644	,	-13819	,	-8.568849	,	9
43,19	,	32522	,	-17621	,	-13825	,	-0.8737259	,	15
43,19	,	32539	,	-17616	,	-13819	,	7.183046	,	22
43,19	,	32554	,	-17606	,	-13818	,	15.001892	,	30
43,20	,	32586	,	-17595	,	-13810	,	22.029287	,	37
43,20	,	32602	,	-17594	,	-13813	,	27.814295	,	44
43,20	,	32618	,	-17598	,	-13810	,	31.968288	,	49
43,20	,	32650	,	-17594	,	-13815	,	34.149826	,	52
43,20	,	32666	,	-17587	,	-13814	,	34.280655	,	51
43,20	,	32698	,	-17581	,	-13808	,	32.68359	,	46
43,20	,	32714	,	-17592	,	-13816	,	29.862267	,	40
43,20	,	32730	,	-17591	,	-13797	,	26.180256	,	33
43,20	,	32762	,	-17582	,	-13806	,	21.922031	,	25
43,20	,	32778	,	-17591	,	-13806	,	17.485558	,	18
43,20	,	32794	,	-17586	,	-13806	,	13.248507	,	11
43,20	,	32826	,	-17590	,	-13805	,	9.436717	,	6
43,20	,	32842	,	-17601	,	-13806	,	6.1233683	,	2
43,20	,	32858	,	-17606	,	-13803	,	3.1882167	,	0
43,20	,	32890	,	-17608	,	-13806	,	0.43713713	,	0
43,20	,	32906	,	-17620	,	-13809	,	-2.2358081	,	0
43,20	,	32938	,	-17615	,	-13813	,	-4.835337	,	0
43,20	,	32954	,	-17623	,	-13821	,	-7.2544065	,	0
43,20	,	32970	,	-17630	,	-13809	,	-9.359982	,	0
43,20	,	33002	,	-17627	,	-13817	,	-11.089443	,	0
43,20	,	33018	,	-17652	,	-13821	,	-12.468923	,	0
43,20	,	33034	,	-17654	,	-13828	,	-13.707005	,	0
43,20	,	33066	,	-17656	,	-13827	,	-15.0318985	,	0
43,20	,	33082	,	-17666	,	-13822	,	-16.43299	,	0
43,20	,	33114	,	-17667	,	-13834	,	-17.771133	,	0
43,20	,	33130	,	-17668	,	-13830	,	-18.88416	,	0
43,20	,	33146	,	-17677	,	-13827	,	-19.599396	,	0
43,20	,	33178	,	-17675	,	-13834	,	-19.827581	,	0
43,20	,	33194	,	-17662	,	-13838	,	-19.471916	,	0
43,20	,	33210	,	-17663	,	-13825	,	-18.315289	,	0
43,20	,	33242	,	-17635	,	-13819	,	-16.09991	,	1
43,20	,	33258	,	-17616	,	-13810	,	-12.502534	,	3
43,20	,	33274	,	-17600	,	-13806	,	-7.209317	,	6
43,20	,	33306	,	-17581	,	-13796	,	-0.22142172	,	11
43,20	,	33322	,	-17575	,	-13792	,	8.023188	,	17
43,20	,	33354	,	-17575	,	-13794	,	16.684053	,	25
43,20	,	33370	,	-17565	,	-13785	,	24.69677	,	33
43,20	,	33386	,	-17552	,	-13784	,	31.208187	,	41
43,20	,	33418	,	-17549	,	-13785	,	35.831676	,	47
43,20	,	33434	,	-17543	,	-13785	,	38.493496	,	50
43,20	,	33450	,	-17543	,	-13784	,	39.25405	,	50
43,20	,	33482	,	-17554	,	-13781	,	38.211433	,	47
43,20	,	33498	,	-17541	,	-13780	,	35.49523	,	42
43,20	,	33530	,	-17547	,	-13778	,	31.432135	,	36
43,20	,	33546	,	-17544	,	-13782	,	26.533628	,	28
43,20	,	33562	,	-17537	,	-13779	,	21.343132	,	20
43,21	,	33594	,	-17541	,	-13785	,	16.383484	,	12
43,21	,	33610	,	-17545	,	-13784	,	12.008199	,	6
43,21	,	33626	,	-17545	,	-13787	,	8.310486	,	2
43,21	,	33658	,	-17554	,	-13781	,	5.223209	,	0
43,21	,	33674	,	-17561	,	-13787	,	2.5694437	,	0
43,21	,	33690	,	-17565	,	-13794	,	0.11746192	,	0
43,21	,	33722	,	-17577	,	-13784	,	-2.3184414	,	0
43,21	,	33738	,	-17586	,	-13789	,	-4.8835645	,	0
43,21	,	33770	,	-17591	,	-13789	,	-7.66809	,	0
43,21	,	33786	,	-17601	,	-13792	,	-10.6265	,	0
43,21	,	33802	,	-17607	,	-13793	,	-13.612826	,	0
43,21	,	33834	,	-17612	,	-13797	,	-16.444801	,	0
43,21	,	33850	,	-17616	,	-13806	,	-18.909668	,	0
43,21	,	33866	,	-17616	,	-13802	,	-20.78468	,	0
43,21	,	33898	,	-17634	,	-13805	,	-21.943766	,	0
43,21	,	33914	,	-17628	,	-13809	,	-22.450453	,	0
43,21	,	33945	,	-17641	,	-13817	,	-22.4472	,	0
43,21	,	33962	,	-17640	,	-13808	,	-22.050035	,	0
43,21	,	33978	,	-17645	,	-13815	,	-21.351269	,	0
43,21	,	34010	,	-17639	,	-13804	,	-20.36533	,	0
43,21	,	34026	,	-17628	,	-13810	,	-18.95399	,	0
43,21	,	34042	,	-17611	,	-13804	,	-16.801006	,	1
43,21	,	34074	,	-17590	,	-13796	,	-13.481939	,	3
43,21	,	34090	,	-17580	,	-13794	,	-8.671577	,	6
43,21	,	34106	,	-17576	,	-13788	,	-2.444848	,	10
43,21	,	34138	,	-17566	,	-13781	,	4.6337132	,	16
43,21	,	34154	,	-17567	,	-13780	,	11.75295	,	23
43,21	,	34185	,	-17550	,	-13787	,	18.159933	,	30
43,21	,	34202	,	-17540	,	-13768	,	23.410849	,	36
43,21	,	34218	,	-17527	,	-13769	,	27.435146	,	41
43,21	,	34250	,	-17531	,	-13769	,	30.305902	,	44
43,21	,	34266	,	-17533	,	-13771	,	31.960413	,	44
43,21	,	34282	,	-17533	,	-13771	,	32.196716	,	42
43,21	,	34314	,	-17539	,	-13766	,	30.88482	,	38
43,21	,	34330	,	-17531	,	-13769	,	28.121088	,	32
43,21	,	34362	,	-17537	,	-13769	,	24.259684	,	25
43,21	,	34378	,	-17542	,	-13769	,	19.748594	,	18
43,21	,	34394	,	-17536	,	-13766	,	14.97221	,	12
43,21	,	34426	,	-17529	,	-13785	,	10.358846	,	7
43,21	,	34441	,	-17537	,	-13768	,	6.3737154	,	3
43,21	,	34457	,	-17550	,	-13769	,	3.2012053	,	1
43,21	,	34489	,	-17557	,	-13775	,	0.6015854	,	0
43,21	,	34506	,	-17560	,	-13777	,	-1.7994583	,	0
43,21	,	34538	,	-17564	,	-13783	,	-4.1841607	,	0
43,21	,	34554	,	-17573	,	-13778	,	-6.545689	,	0
43,21	,	34570	,	-17574	,	-13787	,	-8.828382	,	0
43,22	,	34602	,	-17579	,	-13786	,	-10.938434	,	0
43,22	,	34618	,	-17584	,	-13786	,	-12.749645	,	0
43,22	,	34633	,	-17580	,	-13793	,	-14.13504	,	0
43,22	,	34665	,	-17603	,	-13797	,	-15.036144	,	0
43,22	,	34681	,	-17598	,	-13784	,	-15.587803	,	0
43,22	,	34698	,	-17616	,	-13798	,	-16.03357	,	0
43,22	,	34730	,	-17619	,	-13797	,	-16.575943	,	0
43,22	,	34746	,	-17629	,	-13798	,	-17.338133	,	0
43,22	,	34777	,	-17637	,	-13802	,	-18.338366	,	0
43,22	,	34793	,	-17642	,	-13810	,	-19.518272	,	0
43,22	,	34809	,	-17648	,	-13807	,	-20.754309	,	0
43,22	,	34841	,	-17643	,	-13801	,	-21.82153	,	0
43,22	,	34857	,	-17632	,	-13793	,	-22.341759	,	0
43,22	,	34873	,	-17608	,	-13791	,	-21.743996	,	0
43,22	,	34906	,	-17598	,	-13790	,	-19.40302	,	0
43,22	,	34922	,	-17592	,	-13773	,	-15.023623	,	2
43,22	,	34953	,	-17569	,	-13778	,	-8.828404	,	6
43,22	,	34970	,	-17558	,	-13772	,	-1.298336	,	12
43,22	,	34986	,	-17561	,	-13768	,	6.9284606	,	19
43,22	,	35017	,	-17553	,	-13762	,	14.953484	,	27
43,22	,	35033	,	-17546	,	-13765	,	21.872774	,	35
43,22	,	35049	,	-17542	,	-13763	,	27.112926	,	41
43,22	,	35082	,	-17545	,	-13762	,	30.40847	,	46
43,22	,	35098	,	-17545	,	-13761	,	31.65517	,	49
43,22	,	35113	,	-17554	,	-13761	,	30.872944	,	48
43,22	,	35145	,	-17543	,	-13774	,	28.271053	,	44
43,22	,	35161	,	-17543	,	-13766	,	24.35027	,	38
43,22	,	35193	,	-17545	,	-13762	,	19.788462	,	31
43,22	,	35209	,	-17554	,	-13768	,	15.115739	,	23
43,22	,	35225	,	-17557	,	-13766	,	10.577598	,	15
43,22	,	35258	,	-17558	,	-13764	,	6.284605	,	9
43,22	,	35273	,	-17554	,	-13759	,	2.4073968	,	4
43,22	,	35290	,	-17569	,	-13767	,	-0.8641076	,	1
43,22	,	35321	,	-17574	,	-13767	,	-3.5448992	,	0
43,22	,	35337	,	-17578	,	-13772	,	-5.8322754	,	0
43,22	,	35369	,	-17583	,	-13776	,	-7.874603	,	0
43,22	,	35385	,	-17577	,	-13779	,	-9.655111	,	0
43,22	,	35401	,	-17596	,	-13772	,	-11.074567	,	0
43,22	,	35433	,	-17596	,	-13777	,	-12.164123	,	0
43,22	,	35449	,	-17607	,	-13786	,	-13.08971	,	0
43,22	,	35466	,	-17618	,	-13784	,	-14.01951	,	0
43,22	,	35497	,	-17614	,	-13787	,	-15.06229	,	0
43,22	,	35513	,	-17628	,	-13785	,	-16.185701	,	0
43,22	,	35529	,	-17626	,	-13789	,	-17.264776	,	0
43,22	,	35561	,	-17639	,	-13785	,	-18.193575	,	0
43,23	,	35577	,	-17634	,	-13790	,	-18.890377	,	0
43,23	,	35609	,	-17636	,	-13794	,	-19.231735	,	0
43,23	,	35625	,	-17637	,	-13788	,	-19.04432	,	0
43,23	,	35641	,	-17635	,	-13794	,	-18.215366	,	0
43,23	,	35673	,	-17620	,	-13781	,	-16.671772	,	0
43,23	,	35689	,	-17591	,	-13779	,	-14.165438	,	1
43,23	,	35705	,	-17585	,	-13771	,	-10.281704	,	3
43,23	,	35737	,	-17575	,	-13773	,	-4.8641768	,	6
43,23	,	35753	,	-17566	,	-13769	,	1.7218266	,	11
43,23	,	35785	,	-17564	,	-13767	,	8.772499	,	17
43,23	,	35801	,	-17556	,	-13762	,	15.496989	,	24
43,23	,	35817	,	-17557	,	-13769	,	21.19439	,	30
43,23	,	35849	,	-17560	,	-13763	,	25.318644	,	35
43,23	,	35865	,	-17557	,	-13766	,	27.502491	,	39
43,23	,	35881	,	-17565	,	-13770	,	27.639818	,	40
43,23	,	35913	,	-17570	,	-13757	,	25.853397	,	38
43,23	,	35929	,	-17563	,	-13765	,	22.453465	,	35
43,23	,	35945	,	-17572	,	-13763	,	17.96176	,	30
43,23	,	35977	,	-17570	,	-13769	,	12.975734	,	24
43,23	,	35993	,	-17569	,	-13772	,	8.039721	,	17
43,23	,	36025	,	-17577	,	-13773	,	3.5961866	,	11
43,23	,	36041	,	-17575	,	-13766	,	-0.11014986	,	6
43,23	,	36057	,	-17582	,	-13772	,	-3.0187893	,	2
43,23	,	36089	,	-17583	,	-13770	,	-5.1729155	,	0
43,23	,	36105	,	-17588	,	-13774	,	-6.6849585	,	0
43,23	,	36121	,	-17591	,	-13787	,	-7.704115	,	0
43,23	,	36153	,	-17599	,	-13771	,	-8.407642	,	0
43,23	,	36169	,	-17606	,	-13779	,	-9.004194	,	0
43,23	,	36201	,	-17624	,	-13779	,	-9.750589	,	0
43,23	,	36217	,	-17617	,	-13785	,	-10.873432	,	0
43,23	,	36233	,	-17623	,	-13786	,	-12.339839	,	0
43,23	,	36265	,	-17628	,	-13789	,	-13.869475	,	0
43,23	,	36281	,	-17637	,	-13792	,	-15.232541	,	0
43,23	,	36297	,	-17643	,	-13800	,	-16.375938	,	0
43,23	,	36329	,	-17644	,	-13796	,	-17.308935	,	0
43,23	,	36345	,	-17652	,	-13795	,	-18.000435	,	0
43,23	,	36361	,	-17660	,	-13806	,	-18.438917	,	0
43,23	,	36393	,	-17664	,	-13793	,	-18.695316	,	0
43,23	,	36409	,	-17662	,	-13798	,	-18.80672	,	0
43,23	,	36441	,	-17652	,	-13791	,	-18.621395	,	0
43,23	,	36457	,	-17631	,	-13786	,	-17.732391	,	0
43,23	,	36473	,	-17603	,	-13784	,	-15.50342	,	0
43,23	,	36505	,	-17604	,	-13779	,	-11.38117	,	2
43,23	,	36521	,	-17585	,	-13772	,	-5.360243	,	6
43,23	,	36537	,	-17577	,	-13763	,	2.0153537	,	12
43,23	,	36569	,	-17567	,	-13765	,	9.985075	,	19
43,24	,	36585	,	-17564	,	-13761	,	17.735247	,	26
43,24	,	36617	,	-17552	,	-13768	,	24.515482	,	33
43,24	,	36633	,	-17545	,	-13753	,	29.81991	,	39
43,24	,	36649	,	-17544	,	-13756	,	33.4183	,	44
43,24	,	36681	,	-17546	,	-13756	,	35.20652	,	47
43,24	,	36697	,	-17548	,	-13755	,	35.126846	,	46
43,24	,	36713	,	-17545	,	-13757	,	33.258068	,	42
43,24	,	36745	,	-17550	,	-13753	,	29.882195	,	36
43,24	,	36761	,	-17550	,	-13759	,	25.407053	,	29
43,24	,	36777	,	-17550	,	-13754	,	20.291676	,	22
43,24	,	36809	,	-17544	,	-13755	,	15.055985	,	15
43,24	,	36825	,	-17550	,	-13759	,	10.2163	,	9
43,24	,	36857	,	-17553	,	-13760	,	6.098255	,	4
43,24	,	36873	,	-17563	,	-13752	,	2.7281933	,	1
43,24	,	36889	,	-17568	,	-13763	,	-0.088774204	,	0
43,24	,	36921	,	-17581	,	-13769	,	-2.6323366	,	0
43,24	,	36937	,	-17577	,	-13771	,	-5.114685	,	0
43,24	,	36953	,	-17587	,	-13764	,	-7.5521894	,	0
43,24	,	36985	,	-17587	,	-13758	,	-9.820372	,	0
43,24	,	37001	,	-17593	,	-13768	,	-11.781159	,	0
43,24	,	37033	,	-17595	,	-13770	,	-13.327075	,	0
43,24	,	37049	,	-17598	,	-13775	,	-14.390202	,	0
43,24	,	37065	,	-17610	,	-13777	,	-14.985731	,	0
43,24	,	37097	,	-17617	,	-13780	,	-15.28721	,	0
43,24	,	37113	,	-17616	,	-13786	,	-15.517244	,	0
43,24	,	37129	,	-17625	,	-13778	,	-15.751308	,	0
43,24	,	37161	,	-17640	,	-13786	,	-16.02503	,	0
43,24	,	37177	,	-17642	,	-13789	,	-16.480045	,	0
43,24	,	37209	,	-17656	,	-13790	,	-17.238026	,	0
43,24	,	37225	,	-17647	,	-13796	,	-18.248451	,	0
43,24	,	37240	,	-17646	,	-13786	,	-19.203173	,	0
43,24	,	37273	,	-17629	,	-13783	,	-19.554745	,	0
43,24	,	37289	,	-17609	,	-13766	,	-18.650028	,	0
43,24	,	37305	,	-17609	,	-13771	,	-15.97692	,	0
43,24	,	37337	,	-17581	,	-13775	,	-11.423745	,	2
43,24	,	37353	,	-17574	,	-13772	,	-5.2113132	,	6
43,24	,	37369	,	-17563	,	-13755	,	2.2217999	,	12
43,24	,	37401	,	-17553	,	-13751	,	10.197082	,	19
43,24	,	37417	,	-17535	,	-13746	,	17.991325	,	26
43,24	,	37448	,	-17537	,	-13739	,	25.020893	,	33
43,24	,	37464	,	-17528	,	-13734	,	30.778234	,	40
43,24	,	37480	,	-17526	,	-13734	,	34.840748	,	45
43,24	,	37513	,	-17529	,	-13735	,	36.960556	,	49
43,24	,	37529	,	-17529	,	-13739	,	37.043095	,	49
43,24	,	37545	,	-17539	,	-13736	,	35.126263	,	45
43,24	,	37577	,	-17530	,	-13731	,	31.441631	,	39
43,25	,	37592	,	-17525	,	-13737	,	26.522823	,	32
43,25	,	37624	,	-17532	,	-13728	,	21.10465	,	25
43,25	,	37641	,	-17527	,	-13738	,	15.803702	,	18
43,25	,	37657	,	-17530	,	-13732	,	11.01274	,	11
43,25	,	37688	,	-17540	,	-13731	,	6.9194527	,	6
43,25	,	37704	,	-17549	,	-13736	,	3.4460564	,	2
43,25	,	37720	,	-17546	,	-13738	,	0.37631035	,	0
43,25	,	37752	,	-17550	,	-13741	,	-2.3808374	,	0
43,25	,	37769	,	-17564	,	-13740	,	-4.8153853	,	0
43,25	,	37801	,	-17559	,	-13743	,	-6.973469	,	0
43,25	,	37817	,	-17563	,	-13745	,	-8.854105	,	0
43,25	,	37832	,	-17575	,	-13759	,	-10.388366	,	0
43,25	,	37864	,	-17575	,	-13742	,	-11.609487	,	0
43,25	,	37880	,	-17597	,	-13752	,	-12.677156	,	0
43,25	,	37896	,	-17596	,	-13754	,	-13.820038	,	0
43,25	,	37928	,	-17603	,	-13756	,	-15.173831	,	0
43,25	,	37945	,	-17604	,	-13761	,	-16.632032	,	0
43,25	,	37961	,	-17616	,	-13761	,	-17.98464	,	0
43,25	,	37993	,	-17616	,	-13760	,	-19.095942	,	0
43,25	,	38009	,	-17624	,	-13763	,	-19.894035	,	0
43,25	,	38040	,	-17629	,	-13763	,	-20.34296	,	0
43,25	,	38056	,	-17633	,	-13765	,	-20.46194	,	0
43,25	,	38073	,	-17641	,	-13774	,	-20.31031	,	0
43,25	,	38104	,	-17647	,	-13766	,	-19.979877	,	0
43,25	,	38120	,	-17619	,	-13747	,	-19.423819	,	0
43,25	,	38136	,	-17617	,	-13750	,	-18.234097	,	0
43,25	,	38168	,	-17597	,	-13744	,	-15.868422	,	1
43,25	,	38184	,	-17584	,	-13747	,	-11.99684	,	3
43,25	,	38217	,	-17574	,	-13745	,	-6.597419	,	6
43,25	,	38233	,	-17562	,	-13739	,	0.012815475	,	11
43,25	,	38248	,	-17563	,	-13738	,	7.220523	,	17
43,25	,	38280	,	-17557	,	-13729	,	14.223419	,	24
43,25	,	38296	,	-17542	,	-13732	,	20.283491	,	31
43,25	,	38312	,	-17540	,	-13739	,	25.00364	,	37
43,25	,	38344	,	-17527	,	-13722	,	28.29829	,	41
43,25	,	38360	,	-17546	,	-13728	,	30.14875	,	43
43,25	,	38376	,	-17547	,	-13729	,	30.383186	,	42
43,25	,	38408	,	-17542	,	-13726	,	28.841526	,	39
43,25	,	38424	,	-17538	,	-13730	,	25.75985	,	34
43,25	,	38456	,	-17548	,	-13728	,	21.685825	,	28
43,25	,	38472	,	-17535	,	-13728	,	17.167261	,	21
43,25	,	38488	,	-17542	,	-13730	,	12.707507	,	14
43,25	,	38520	,	-17550	,	-13730	,	8.667157	,	8
43,25	,	38536	,	-17540	,	-13734	,	5.1699333	,	4
43,25	,	38552	,	-17542	,	-13740	,	2.3083982	,	1
43,26	,	38584	,	-17556	,	-13727	,	0.14318514	,	0
43,26	,	38600	,	-17561	,	-13736	,	-1.5308099	,	0
43,26	,	38632	,	-17568	,	-13737	,	-3.0778425	,	0
43,26	,	38648	,	-17561	,	-13732	,	-4.694585	,	0
43,26	,	38664	,	-17572	,	-13740	,	-6.308941	,	0
43,26	,	38696	,	-17579	,	-13739	,	-7.812132	,	0
43,26	,	38712	,	-17582	,	-13739	,	-9.225226	,	0
43,26	,	38728	,	-17591	,	-13743	,	-10.592629	,	0
43,26	,	38760	,	-17596	,	-13747	,	-11.929608	,	0
43,26	,	38776	,	-17589	,	-13749	,	-13.1831875	,	0
43,26	,	38792	,	-17608	,	-13751	,	-14.215653	,	0
43,26	,	38824	,	-17605	,	-13740	,	-14.981825	,	0
43,26	,	38840	,	-17615	,	-13748	,	-15.5507145	,	0
43,26	,	38872	,	-17624	,	-13753	,	-16.007374	,	0
43,26	,	38888	,	-17628	,	-13753	,	-16.460802	,	0
43,26	,	38904	,	-17626	,	-13754	,	-16.935799	,	0
43,26	,	38936	,	-17608	,	-13753	,	-17.183142	,	0
43,26	,	38952	,	-17606	,	-13745	,	-16.707743	,	0
43,26	,	38968	,	-17575	,	-13739	,	-14.976753	,	0
43,26	,	39000	,	-17575	,	-13735	,	-11.589077	,	1
43,26	,	39016	,	-17558	,	-13733	,	-6.488346	,	4
43,26	,	39048	,	-17542	,	-13737	,	-0.016085625	,	9
43,26	,	39064	,	-17548	,	-13715	,	7.235671	,	15
43,26	,	39080	,	-17548	,	-13726	,	14.397345	,	22
43,26	,	39112	,	-17547	,	-13721	,	20.4579	,	29
43,26	,	39128	,	-17536	,	-13726	,	24.716187	,	35
43,26	,	39144	,	-17538	,	-13722	,	26.99201	,	39
43,26	,	39176	,	-17543	,	-13728	,	27.404642	,	41
43,26	,	39192	,	-17550	,	-13723	,	26.101206	,	40
43,26	,	39208	,	-17545	,	-13727	,	23.280464	,	37
43,26	,	39240	,	-17548	,	-13726	,	19.339508	,	32
43,26	,	39256	,	-17538	,	-13724	,	14.868409	,	26
43,26	,	39288	,	-17542	,	-13727	,	10.504235	,	19
43,26	,	39304	,	-17541	,	-13721	,	6.725197	,	12
43,26	,	39320	,	-17548	,	-13722	,	3.7172022	,	6
43,26	,	39352	,	-17556	,	-13727	,	1.384975	,	2
43,26	,	39368	,	-17560	,	-13733	,	-0.53995204	,	0
43,26	,	39384	,	-17573	,	-13734	,	-2.3604505	,	0
43,26	,	39416	,	-17569	,	-13737	,	-4.2917933	,	0
43,26	,	39432	,	-17574	,	-13740	,	-6.336727	,	0
43,26	,	39464	,	-17578	,	-13740	,	-8.312862	,	0
43,26	,	39480	,	-17580	,	-13740	,	-10.033589	,	0
43,26	,	39496	,	-17589	,	-13741	,	-11.406656	,	0
43,26	,	39528	,	-17593	,	-13747	,	-12.451735	,	0
43,26	,	39544	,	-17594	,	-13748	,	-13.235426	,	0
43,26	,	39560	,	-17604	,	-13738	,	-13.801842	,	0
43,27	,	39592	,	-17615	,	-13752	,	-14.251369	,	0
43,27	,	39608	,	-17627	,	-13748	,	-14.801903	,	0
43,27	,	39624	,	-17624	,	-13749	,	-15.635358	,	0
43,27	,	39656	,	-17629	,	-13751	,	-16.687672	,	0
43,27	,	39672	,	-17636	,	-13757	,	-17.711414	,	0
43,27	,	39704	,	-17640	,	-13759	,	-18.513662	,	0
43,27	,	39720	,	-17639	,	-13750	,	-18.994198	,	0
43,27	,	39736	,	-17617	,	-13748	,	-18.935303	,	0
43,27	,	39768	,	-17604	,	-13740	,	-17.847965	,	0
43,27	,	39784	,	-17602	,	-13746	,	-15.248323	,	1
43,27	,	39800	,	-17582	,	-13730	,	-11.036685	,	3
43,27	,	39832	,	-17561	,	-13729	,	-5.3826885	,	7
43,27	,	39848	,	-17549	,	-13725	,	1.4929581	,	12
43,27	,	39880	,	-17537	,	-13723	,	9.210878	,	18
43,27	,	39896	,	-17537	,	-13722	,	17.114952	,	25
43,27	,	39912	,	-17524	,	-13716	,	24.392519	,	32
43,27	,	39944	,	-17514	,	-13711	,	30.380157	,	39
43,27	,	39960	,	-17526	,	-13712	,	34.666107	,	44
43,27	,	39976	,	-17519	,	-13711	,	36.92511	,	47
43,27	,	40008	,	-17516	,	-13712	,	37.017258	,	47
43,27	,	40024	,	-17530	,	-13722	,	35.1054	,	43
43,27	,	40056	,	-17525	,	-13701	,	31.47107	,	38
43,27	,	40072	,	-17523	,	-13707	,	26.523006	,	32
43,27	,	40088	,	-17520	,	-13704	,	20.905485	,	25
43,27	,	40119	,	-17524	,	-13713	,	15.311526	,	18
43,27	,	40136	,	-17531	,	-13714	,	10.207093	,	11
43,27	,	40151	,	-17525	,	-13711	,	5.787756	,	6
43,27	,	40183	,	-17535	,	-13715	,	2.1223793	,	2
43,27	,	40200	,	-17539	,	-13715	,	-0.8203664	,	0
43,27	,	40216	,	-17548	,	-13714	,	-3.2117472	,	0
43,27	,	40248	,	-17541	,	-13713	,	-5.22615	,	0
43,27	,	40264	,	-17560	,	-13724	,	-6.942024	,	0
43,27	,	40295	,	-17558	,	-13702	,	-8.4561	,	0
43,27	,	40312	,	-17567	,	-13720	,	-9.887606	,	0
43,27	,	40328	,	-17572	,	-13723	,	-11.277256	,	0
43,27	,	40359	,	-17576	,	-13728	,	-12.608053	,	0
43,27	,	40376	,	-17588	,	-13727	,	-13.861071	,	0
43,27	,	40392	,	-17586	,	-13724	,	-15.031647	,	0
43,27	,	40423	,	-17585	,	-13727	,	-16.030577	,	0
43,27	,	40439	,	-17596	,	-13735	,	-16.680855	,	0
43,27	,	40471	,	-17602	,	-13736	,	-16.942202	,	0
43,27	,	40488	,	-17608	,	-13727	,	-16.960613	,	0
43,27	,	40504	,	-17609	,	-13754	,	-16.881039	,	0
43,27	,	40536	,	-17623	,	-13734	,	-16.782837	,	0
43,27	,	40551	,	-17615	,	-13741	,	-16.70976	,	0
43,27	,	40567	,	-17598	,	-13731	,	-16.489147	,	0
43,28	,	40600	,	-17592	,	-13724	,	-15.63201	,	0
43,28	,	40616	,	-17559	,	-13721	,	-13.545127	,	0
43,28	,	40632	,	-17564	,	-13718	,	-9.793995	,	2
43,28	,	40664	,	-17549	,	-13719	,	-4.4074764	,	5
43,28	,	40680	,	-17538	,	-13714	,	2.102528	,	10
43,28	,	40711	,	-17533	,	-13710	,	9.064762	,	16
43,28	,	40727	,	-17524	,	-13704	,	15.800017	,	22
43,28	,	40743	,	-17511	,	-13707	,	21.732481	,	28
43,28	,	40775	,	-17510	,	-13693	,	26.51603	,	33
43,28	,	40792	,	-17503	,	-13701	,	29.956636	,	37
43,28	,	40808	,	-17512	,	-13705	,	31.888397	,	40
43,28	,	40839	,	-17504	,	-13701	,	32.174606	,	39
43,28	,	40856	,	-17504	,	-13704	,	30.86039	,	36
43,28	,	40887	,	-17512	,	-13701	,	28.204216	,	31
43,28	,	40903	,	-17507	,	-13701	,	24.52248	,	25
43,28	,	40919	,	-17510	,	-13703	,	20.178165	,	19
43,28	,	40951	,	-17521	,	-13702	,	15.539238	,	13
43,28	,	40967	,	-17527	,	-13704	,	10.807284	,	8
43,28	,	40983	,	-17519	,	-13706	,	6.125787	,	4
43,28	,	41016	,	-17529	,	-13707	,	1.7729425	,	1
43,28	,	41032	,	-17526	,	-13704	,	-1.9621825	,	0
43,28	,	41048	,	-17546	,	-13716	,	-4.990097	,	0
43,28	,	41080	,	-17549	,	-13713	,	-7.4816704	,	0
43,28	,	41095	,	-17551	,	-13712	,	-9.680588	,	0
43,28	,	41127	,	-17558	,	-13715	,	-11.656546	,	0
43,28	,	41143	,	-17560	,	-13714	,	-13.345072	,	0
43,28	,	41159	,	-17566	,	-13724	,	-14.679708	,	0
43,28	,	41191	,	-17568	,	-13722	,	-15.623286	,	0
43,28	,	41207	,	-17579	,	-13726	,	-16.197914	,	0
43,28	,	41223	,	-17569	,	-13724	,	-16.448595	,	0
43,28	,	41255	,	-17579	,	-13729	,	-16.340551	,	0
43,28	,	41271	,	-17585	,	-13718	,	-15.859844	,	0
43,28	,	41303	,	-17583	,	-13733	,	-15.132265	,	0
43,28	,	41319	,	-17606	,	-13728	,	-14.366058	,	0
43,28	,	41335	,	-17606	,	-13735	,	-13.856722	,	0
43,28	,	41367	,	-17605	,	-13734	,	-13.820106	,	0
43,28	,	41383	,	-17605	,	-13734	,	-14.1357975	,	0
43,28	,	41399	,	-17604	,	-13725	,	-14.457027	,	0
43,28	,	41431	,	-17586	,	-13716	,	-14.368996	,	0
43,28	,	41447	,	-17568	,	-13713	,	-13.344049	,	0
43,28	,	41463	,	-17555	,	-13715	,	-10.842066	,	1
43,28	,	41495	,	-17538	,	-13715	,	-6.589143	,	3
43,28	,	41511	,	-17538	,	-13699	,	-0.7577429	,	7
43,28	,	41543	,	-17515	,	-13707	,	6.0898337	,	12
43,28	,	41559	,	-17513	,	-13701	,	13.270639	,	18
43,29	,	41575	,	-17503	,	-13703	,	20.13633	,	25
43,29	,	41607	,	-17492	,	-13696	,	26.11297	,	31
43,29	,	41623	,	-17500	,	-13696	,	30.75428	,	36
43,29	,	41639	,	-17502	,	-13695	,	33.643627	,	40
43,29	,	41671	,	-17510	,	-13696	,	34.395905	,	41
43,29	,	41687	,	-17512	,	-13692	,	32.86248	,	39
43,29	,	41719	,	-17503	,	-13698	,	29.296207	,	35
43,29	,	41735	,	-17502	,	-13698	,	24.369444	,	30
43,29	,	41751	,	-17499	,	-13686	,	18.939022	,	24
43,29	,	41783	,	-17498	,	-13696	,	13.741715	,	17
43,29	,	41799	,	-17509	,	-13690	,	9.220444	,	11
43,29	,	41815	,	-17510	,	-13701	,	5.4706154	,	6
43,29	,	41847	,	-17516	,	-13694	,	2.3685884	,	2
43,29	,	41863	,	-17521	,	-13698	,	-0.26199436	,	0
43,29	,	41879	,	-17525	,	-13701	,	-2.584013	,	0
43,29	,	41911	,	-17540	,	-13704	,	-4.74651	,	0
43,29	,	41927	,	-17537	,	-13706	,	-6.8847528	,	0
43,29	,	41959	,	-17534	,	-13708	,	-8.965904	,	0
43,29	,	41975	,	-17543	,	-13721	,	-10.749092	,	0
43,29	,	41991	,	-17554	,	-13710	,	-12.093046	,	0
43,29	,	42023	,	-17560	,	-13712	,	-13.126289	,	0
43,29	,	42039	,	-17562	,	-13714	,	-14.0402355	,	0
43,29	,	42055	,	-17566	,	-13725	,	-14.882891	,	0
43,29	,	42087	,	-17569	,	-13721	,	-15.576464	,	0
43,29	,	42103	,	-17577	,	-13721	,	-16.042133	,	0
43,29	,	42135	,	-17580	,	-13717	,	-16.28056	,	0
43,29	,	42151	,	-17579	,	-13721	,	-16.314138	,	0
43,29	,	42167	,	-17591	,	-13726	,	-16.137	,	0
43,29	,	42199	,	-17583	,	-13726	,	-15.761995	,	0
43,29	,	42215	,	-17566	,	-13718	,	-15.072651	,	0
43,29	,	42231	,	-17558	,	-13708	,	-13.677959	,	0
43,29	,	42263	,	-17536	,	-13711	,	-11.116314	,	1
43,29	,	42279	,	-17520	,	-13701	,	-7.0684714	,	3
43,29	,	42295	,	-17517	,	-13697	,	-1.5159616	,	7
43,29	,	42327	,	-17503	,	-13695	,	5.1161275	,	12
43,29	,	42343	,	-17512	,	-13702	,	12.052967	,	18
43,29	,	42375	,	-17503	,	-13696	,	18.379488	,	24
43,29	,	42391	,	-17497	,	-13693	,	23.346233	,	30
43,29	,	42407	,	-17501	,	-13692	,	26.586033	,	34
43,29	,	42439	,	-17505	,	-13694	,	27.962416	,	37
43,29	,	42455	,	-17507	,	-13692	,	27.437458	,	37
43,29	,	42471	,	-17506	,	-13693	,	25.169775	,	35
43,29	,	42503	,	-17509	,	-13693	,	21.557259	,	31
43,29	,	42519	,	-17510	,	-13696	,	17.122856	,	26
43,29	,	42551	,	-17512	,	-13696	,	12.385174	,	20
43,29	,	42567	,	-17508	,	-13697	,	7.812258	,	14
43,30	,	42583	,	-17528	,	-13689	,	3.7142744	,	8
43,30	,	42615	,	-17528	,	-13694	,	0.10181618	,	4
43,30	,	42631	,	-17515	,	-13699	,	-3.0745747	,	1
43,30	,	42647	,	-17530	,	-13697	,	-5.649336	,	0
43,30	,	42679	,	-17532	,	-13703	,	-7.5028067	,	0
43,30	,	42695	,	-17532	,	-13704	,	-8.733194	,	0
43,30	,	42711	,	-17543	,	-13712	,	-9.495715	,	0
43,30	,	42743	,	-17543	,	-13704	,	-9.970591	,	0
43,30	,	42759	,	-17554	,	-13708	,	-10.352405	,	0
43,30	,	42791	,	-17564	,	-13713	,	-10.830345	,	0
43,30	,	42807	,	-17562	,	-13710	,	-11.561924	,	0
43,30	,	42822	,	-17564	,	-13711	,	-12.514195	,	0
43,30	,	42855	,	-17578	,	-13712	,	-13.510478	,	0
43,30	,	42871	,	-17587	,	-13723	,	-14.503042	,	0
43,30	,	42887	,	-17578	,	-13724	,	-15.517687	,	0
43,30	,	42918	,	-17589	,	-13722	,	-16.410158	,	0
43,30	,	42934	,	-17589	,	-13729	,	-16.972206	,	0
43,30	,	42966	,	-17601	,	-13732	,	-17.153791	,	0
43,30	,	42982	,	-17580	,	-13713	,	-16.963938	,	0
43,30	,	42999	,	-17547	,	-13706	,	-16.06512	,	0
43,30	,	43031	,	-17536	,	-13702	,	-13.689287	,	0
43,30	,	43047	,	-17522	,	-13696	,	-9.250698	,	2
43,30	,	43063	,	-17515	,	-13695	,	-2.8477287	,	6
43,30	,	43095	,	-17503	,	-13692	,	4.85246	,	12
43,30	,	43111	,	-17501	,	-13687	,	12.92507	,	19
43,30	,	43126	,	-17494	,	-13685	,	20.419949	,	27
43,30	,	43158	,	-17480	,	-13683	,	26.602037	,	34
43,30	,	43174	,	-17477	,	-13686	,	31.123455	,	40
43,30	,	43207	,	-17480	,	-13691	,	33.87683	,	44
43,30	,	43223	,	-17481	,	-13671	,	34.773254	,	46
43,30	,	43239	,	-17486	,	-13681	,	33.77084	,	44
43,30	,	43270	,	-17476	,	-13677	,	31.03954	,	40
43,30	,	43287	,	-17482	,	-13677	,	27.030874	,	34
43,30	,	43303	,	-17480	,	-13683	,	22.310005	,	27
43,30	,	43335	,	-17470	,	-13676	,	17.426128	,	19
43,30	,	43351	,	-17488	,	-13674	,	12.859899	,	12
43,30	,	43382	,	-17492	,	-13686	,	8.78588	,	6
43,30	,	43399	,	-17488	,	-13680	,	5.1141376	,	2
43,30	,	43414	,	-17497	,	-13683	,	1.8161912	,	0
43,30	,	43446	,	-17507	,	-13696	,	-1.1112323	,	0
43,30	,	43463	,	-17510	,	-13681	,	-3.782191	,	0
43,30	,	43479	,	-17510	,	-13688	,	-6.2664165	,	0
43,30	,	43511	,	-17514	,	-13689	,	-8.469314	,	0
43,30	,	43526	,	-17524	,	-13700	,	-10.280367	,	0
43,30	,	43542	,	-17529	,	-13696	,	-11.735213	,	0
43,30	,	43575	,	-17543	,	-13699	,	-12.993247	,	0
43,31	,	43591	,	-17544	,	-13700	,	-14.23117	,	0
43,31	,	43622	,	-17555	,	-13707	,	-15.536117	,	0
43,31	,	43639	,	-17557	,	-13708	,	-16.877823	,	0
43,31	,	43654	,	-17559	,	-13703	,	-18.131708	,	0
43,31	,	43686	,	-17563	,	-13714	,	-19.098108	,	0
43,31	,	43702	,	-17572	,	-13706	,	-19.627104	,	0
43,31	,	43718	,	-17584	,	-13715	,	-19.774004	,	0
43,31	,	43750	,	-17583	,	-13716	,	-19.737286	,	0
43,31	,	43767	,	-17571	,	-13709	,	-19.54868	,	0
43,31	,	43798	,	-17557	,	-13708	,	-18.86168	,	0
43,31	,	43814	,	-17536	,	-13691	,	-17.080935	,	0
43,31	,	43830	,	-17518	,	-13696	,	-13.643401	,	1
43,31	,	43862	,	-17517	,	-13687	,	-8.342687	,	4
43,31	,	43878	,	-17496	,	-13689	,	-1.5087104	,	9
43,31	,	43894	,	-17497	,	-13682	,	6.17264	,	15
43,31	,	43926	,	-17466	,	-13682	,	13.978875	,	22
43,31	,	43942	,	-17471	,	-13671	,	21.347609	,	29
43,31	,	43974	,	-17474	,	-13675	,	27.732405	,	36
43,31	,	43990	,	-17463	,	-13676	,	32.48885	,	42
43,31	,	44006	,	-17464	,	-13676	,	35.193348	,	46
43,31	,	44038	,	-17481	,	-13677	,	35.71321	,	47
43,31	,	44054	,	-17467	,	-13679	,	34.041527	,	44
43,31	,	44070	,	-17468	,	-13678	,	30.490093	,	39
43,31	,	44102	,	-17469	,	-13675	,	25.725515	,	33
43,31	,	44118	,	-17466	,	-13675	,	20.455425	,	26
43,31	,	44134	,	-17458	,	-13678	,	15.312164	,	19
43,31	,	44166	,	-17456	,	-13682	,	10.864448	,	12
43,31	,	44182	,	-17466	,	-13680	,	7.4457827	,	6
43,31	,	44214	,	-17471	,	-13676	,	4.975727	,	2
43,31	,	44230	,	-17480	,	-13681	,	3.0628319	,	0
43,31	,	44246	,	-17481	,	-13687	,	1.2955716	,	0
43,31	,	44278	,	-17485	,	-13686	,	-0.5495596	,	0
43,31	,	44294	,	-17493	,	-13687	,	-2.5172815	,	0
43,31	,	44310	,	-17495	,	-13693	,	-4.5886726	,	0
43,31	,	44342	,	-17509	,	-13694	,	-6.7388773	,	0
43,31	,	44358	,	-17507	,	-13693	,	-8.941246	,	0
43,31	,	44390	,	-17513	,	-13689	,	-11.099708	,	0
43,31	,	44406	,	-17521	,	-13691	,	-13.057462	,	0
43,31	,	44422	,	-17523	,	-13700	,	-14.711952	,	0
43,31	,	44454	,	-17539	,	-13699	,	-16.05503	,	0
43,31	,	44470	,	-17543	,	-13701	,	-17.18326	,	0
43,31	,	44486	,	-17552	,	-13704	,	-18.228203	,	0
43,31	,	44518	,	-17550	,	-13702	,	-19.207771	,	0
43,31	,	44534	,	-17557	,	-13714	,	-19.995213	,	0
43,31	,	44550	,	-17569	,	-13710	,	-20.478962	,	0
43,32	,	44582	,	-17572	,	-13717	,	-20.70942	,	0
43,32	,	44598	,	-17556	,	-13712	,	-20.698772	,	0
43,32	,	44630	,	-17558	,	-13710	,	-20.177483	,	0
43,32	,	44646	,	-17535	,	-13703	,	-18.72035	,	0
43,32	,	44662	,	-17519	,	-13700	,	-15.907961	,	1
43,32	,	44694	,	-17508	,	-13682	,	-11.446892	,	3
43,32	,	44710	,	-17484	,	-13687	,	-5.3362474	,	7
43,32	,	44726	,	-17472	,	-13676	,	2.1573324	,	13
43,32	,	44758	,	-17459	,	-13674	,	10.551419	,	20
43,32	,	44774	,	-17459	,	-13676	,	19.100744	,	28
43,32	,	44806	,	-17449	,	-13661	,	26.893652	,	36
43,32	,	44822	,	-17438	,	-13666	,	33.16229	,	43
43,32	,	44838	,	-17439	,	-13668	,	37.49693	,	49
43,32	,	44870	,	-17441	,	-13666	,	39.71759	,	52
43,32	,	44886	,	-17433	,	-13667	,	39.779343	,	52
43,32	,	44902	,	-17447	,	-13679	,	37.837135	,	48
43,32	,	44934	,	-17443	,	-13665	,	34.16944	,	42
43,32	,	44950	,	-17443	,	-13668	,	29.15688	,	35
43,32	,	44966	,	-17441	,	-13673	,	23.362312	,	27
43,32	,	44998	,	-17445	,	-13669	,	17.419943	,	19
43,32	,	45014	,	-17454	,	-13675	,	11.802616	,	12
43,32	,	45046	,	-17462	,	-13675	,	6.68635	,	6
43,32	,	45062	,	-17467	,	-13672	,	2.0383005	,	2
43,32	,	45078	,	-17469	,	-13674	,	-2.1649594	,	0
43,32	,	45110	,	-17467	,	-13680	,	-5.811928	,	0
43,32	,	45126	,	-17489	,	-13682	,	-8.788847	,	0
43,32	,	45142	,	-17490	,	-13694	,	-11.202265	,	0
43,32	,	45174	,	-17492	,	-13678	,	-13.240311	,	0
43,32	,	45190	,	-17507	,	-13695	,	-14.96798	,	0
43,32	,	45222	,	-17518	,	-13697	,	-16.48689	,	0
43,32	,	45238	,	-17522	,	-13697	,	-17.981531	,	0
43,32	,	45254	,	-17527	,	-13695	,	-19.500473	,	0
43,32	,	45286	,	-17529	,	-13697	,	-20.894665	,	0
43,32	,	45302	,	-17535	,	-13706	,	-21.944506	,	0
43,32	,	45318	,	-17539	,	-13705	,	-22.492912	,	0
43,32	,	45350	,	-17541	,	-13707	,	-22.483143	,	0
43,32	,	45366	,	-17554	,	-13704	,	-21.96608	,	0
43,32	,	45382	,	-17552	,	-13720	,	-21.109615	,	0
43,32	,	45413	,	-17556	,	-13707	,	-20.07168	,	0
43,32	,	45430	,	-17568	,	-13716	,	-18.951275	,	1
43,32	,	45462	,	-17561	,	-13706	,	-17.860998	,	2
43,32	,	45478	,	-17533	,	-13709	,	-16.67408	,	3
43,32	,	45494	,	-17527	,	-13700	,	-14.821971	,	4
43,32	,	45526	,	-17512	,	-13698	,	-11.7083645	,	5
43,32	,	45542	,	-17503	,	-13689	,	-7.1412506	,	8
43,32	,	45558	,	-17498	,	-13690	,	-1.361485	,	12
43,33	,	45590	,	-17487	,	-13686	,	5.080388	,	17
43,33	,	45606	,	-17483	,	-13686	,	11.524145	,	23
43,33	,	45637	,	-17470	,	-13682	,	17.396399	,	28
43,33	,	45653	,	-17468	,	-13672	,	22.303574	,	32
43,33	,	45669	,	-17460	,	-13681	,	26.015291	,	35
43,33	,	45701	,	-17465	,	-13672	,	28.37864	,	37
43,33	,	45718	,	-17468	,	-13676	,	29.241184	,	38
43,33	,	45734	,	-17468	,	-13676	,	28.492702	,	35
43,33	,	45766	,	-17459	,	-13677	,	26.26193	,	31
43,33	,	45782	,	-17468	,	-13676	,	22.965235	,	26
43,33	,	45798	,	-17466	,	-13680	,	19.06725	,	20
43,33	,	45830	,	-17454	,	-13676	,	14.990239	,	14
43,33	,	45846	,	-17463	,	-13679	,	11.18034	,	9
43,33	,	45877	,	-17463	,	-13684	,	7.9336185	,	5
43,33	,	45894	,	-17463	,	-13671	,	5.291816	,	2
43,33	,	45910	,	-17469	,	-13677	,	3.1842608	,	0
43,33	,	45942	,	-17481	,	-13682	,	1.4373724	,	0
43,33	,	45958	,	-17489	,	-13688	,	-0.27194667	,	0
43,33	,	45974	,	-17485	,	-13688	,	-2.213019	,	0
43,33	,	46005	,	-17503	,	-13689	,	-4.421145	,	0
43,33	,	46021	,	-17495	,	-13690	,	-6.7947245	,	0
43,33	,	46053	,	-17507	,	-13694	,	-9.161366	,	0
43,33	,	46070	,	-17520	,	-13697	,	-11.371457	,	0
43,33	,	46086	,	-17518	,	-13697	,	-13.412759	,	0
43,33	,	46118	,	-17524	,	-13700	,	-15.251787	,	0
43,33	,	46134	,	-17517	,	-13698	,	-16.701027	,	0
43,33	,	46150	,	-17534	,	-13699	,	-17.559336	,	0
43,33	,	46181	,	-17546	,	-13709	,	-17.882887	,	0
43,33	,	46198	,	-17551	,	-13710	,	-18.010353	,	0
43,33	,	46229	,	-17563	,	-13712	,	-18.269726	,	0
43,33	,	46246	,	-17563	,	-13711	,	-18.795181	,	0
43,33	,	46261	,	-17556	,	-13712	,	-19.447636	,	0
43,33	,	46294	,	-17551	,	-13710	,	-19.794884	,	0
43,33	,	46310	,	-17531	,	-13706	,	-19.265427	,	0
43,33	,	46326	,	-17521	,	-13701	,	-17.316332	,	0
43,33	,	46357	,	-17504	,	-13695	,	-13.608026	,	1
43,33	,	46373	,	-17502	,	-13702	,	-8.195911	,	4
43,33	,	46389	,	-17494	,	-13687	,	-1.5851221	,	9
43,33	,	46421	,	-17482	,	-13689	,	5.473377	,	15
43,33	,	46437	,	-17474	,	-13685	,	12.307309	,	22
43,33	,	46470	,	-17467	,	-13683	,	18.430222	,	28
43,33	,	46485	,	-17485	,	-13688	,	23.366066	,	34
43,33	,	46501	,	-17488	,	-13692	,	26.498652	,	38
43,33	,	46533	,	-17477	,	-13693	,	27.37383	,	41
43,33	,	46549	,	-17488	,	-13693	,	26.07965	,	40
43,33	,	46565	,	-17484	,	-13694	,	23.073645	,	37
43,34	,	46597	,	-17478	,	-13690	,	18.945675	,	32
43,34	,	46613	,	-17490	,	-13702	,	14.349213	,	26
43,34	,	46645	,	-17490	,	-13683	,	9.778068	,	19
43,34	,	46661	,	-17486	,	-13692	,	5.5281324	,	13
43,34	,	46677	,	-17498	,	-13694	,	1.826489	,	7
43,34	,	46709	,	-17503	,	-13698	,	-1.2644601	,	3
43,34	,	46725	,	-17509	,	-13698	,	-3.8795822	,	0
43,34	,	46741	,	-17510	,	-13695	,	-6.1592045	,	0
43,34	,	46773	,	-17518	,	-13691	,	-8.147874	,	0
43,34	,	46789	,	-17518	,	-13696	,	-9.843213	,	0
43,34	,	46805	,	-17525	,	-13697	,	-11.227742	,	0
43,34	,	46837	,	-17530	,	-13702	,	-12.296871	,	0
43,34	,	46853	,	-17533	,	-13715	,	-13.088261	,	0
43,34	,	46885	,	-17537	,	-13700	,	-13.639622	,	0
43,34	,	46901	,	-17552	,	-13717	,	-14.019917	,	0
43,34	,	46917	,	-17555	,	-13718	,	-14.406313	,	0
43,34	,	46949	,	-17568	,	-13721	,	-14.999698	,	0
43,34	,	46965	,	-17565	,	-13724	,	-15.872395	,	0
43,34	,	46981	,	-17572	,	-13718	,	-16.898483	,	0
43,34	,	47013	,	-17574	,	-13728	,	-17.838064	,	0
43,34	,	47029	,	-17587	,	-13723	,	-18.529974	,	0
43,34	,	47061	,	-17576	,	-13721	,	-18.916576	,	0
43,34	,	47077	,	-17563	,	-13723	,	-18.796104	,	0
43,34	,	47093	,	-17554	,	-13720	,	-17.726828	,	0
43,34	,	47126	,	-17545	,	-13715	,	-15.32189	,	1
43,34	,	47141	,	-17521	,	-13707	,	-11.435598	,	3
43,34	,	47157	,	-17516	,	-13703	,	-6.099745	,	6
43,34	,	47189	,	-17512	,	-13697	,	0.37360954	,	11
43,34	,	47205	,	-17498	,	-13703	,	7.345259	,	17
43,34	,	47221	,	-17499	,	-13697	,	14.093849	,	23
43,34	,	47253	,	-17483	,	-13699	,	20.017817	,	29
43,34	,	47269	,	-17470	,	-13695	,	24.787834	,	34
43,34	,	47301	,	-17490	,	-13693	,	28.26546	,	38
43,34	,	47317	,	-17480	,	-13697	,	30.191696	,	40
43,34	,	47333	,	-17485	,	-13699	,	30.322525	,	39
43,34	,	47365	,	-17482	,	-13687	,	28.723036	,	36
43,34	,	47381	,	-17488	,	-13694	,	25.69629	,	31
43,34	,	47397	,	-17480	,	-13691	,	21.67532	,	25
43,34	,	47429	,	-17502	,	-13700	,	17.10357	,	19
43,34	,	47445	,	-17489	,	-13693	,	12.285686	,	13
43,34	,	47477	,	-17500	,	-13703	,	7.49156	,	8
43,34	,	47493	,	-17498	,	-13701	,	3.0391836	,	4
43,34	,	47509	,	-17508	,	-13699	,	-0.84322214	,	1
43,34	,	47541	,	-17514	,	-13705	,	-4.104459	,	0
43,34	,	47557	,	-17521	,	-13704	,	-6.837157	,	0
43,34	,	47573	,	-17524	,	-13710	,	-9.162095	,	0
43,35	,	47605	,	-17525	,	-13714	,	-11.111364	,	0
43,35	,	47621	,	-17533	,	-13710	,	-12.641416	,	0
43,35	,	47637	,	-17542	,	-13713	,	-13.773157	,	0
43,35	,	47669	,	-17557	,	-13716	,	-14.69785	,	0
43,35	,	47685	,	-17558	,	-13718	,	-15.678734	,	0
43,35	,	47717	,	-17562	,	-13718	,	-16.815582	,	0
43,35	,	47733	,	-17571	,	-13723	,	-17.998413	,	0
43,35	,	47749	,	-17574	,	-13721	,	-19.079187	,	0
43,35	,	47781	,	-17580	,	-13729	,	-19.946798	,	0
43,35	,	47797	,	-17581	,	-13731	,	-20.502163	,	0
43,35	,	47813	,	-17581	,	-13731	,	-20.638443	,	0
43,35	,	47845	,	-17583	,	-13742	,	-20.247246	,	0
43,35	,	47861	,	-17599	,	-13732	,	-19.354626	,	0
43,35	,	47893	,	-17589	,	-13741	,	-18.167862	,	0
43,35	,	47909	,	-17587	,	-13729	,	-16.800926	,	1
43,35	,	47925	,	-17559	,	-13726	,	-15.0241	,	2
43,35	,	47957	,	-17548	,	-13717	,	-12.331891	,	3
43,35	,	47973	,	-17541	,	-13707	,	-8.316231	,	5
43,35	,	47989	,	-17525	,	-13710	,	-2.9948053	,	9
43,35	,	48021	,	-17517	,	-13718	,	3.2723918	,	14
43,35	,	48037	,	-17512	,	-13708	,	9.946093	,	20
43,35	,	48053	,	-17499	,	-13710	,	16.394905	,	26
43,35	,	48085	,	-17499	,	-13709	,	22.056221	,	32
43,35	,	48101	,	-17486	,	-13687	,	26.526646	,	36
43,35	,	48133	,	-17471	,	-13694	,	29.662388	,	39
43,35	,	48149	,	-17476	,	-13695	,	31.578571	,	41
43,35	,	48165	,	-17482	,	-13695	,	32.31855	,	40
43,35	,	48197	,	-17478	,	-13696	,	31.729256	,	36
43,35	,	48213	,	-17481	,	-13694	,	29.752338	,	31
43,35	,	48229	,	-17470	,	-13700	,	26.618847	,	25
43,35	,	48261	,	-17476	,	-13699	,	22.783268	,	19
43,35	,	48277	,	-17480	,	-13700	,	18.682709	,	13
43,35	,	48309	,	-17492	,	-13703	,	14.515633	,	8
43,35	,	48325	,	-17498	,	-13714	,	10.258921	,	4
43,35	,	48341	,	-17497	,	-13686	,	5.8890533	,	1
43,35	,	48373	,	-17498	,	-13708	,	1.5906606	,	0
43,35	,	48389	,	-17514	,	-13712	,	-2.3617358	,	0
43,35	,	48405	,	-17514	,	-13714	,	-5.8609343	,	0
43,35	,	48437	,	-17529	,	-13718	,	-8.948728	,	0
43,35	,	48453	,	-17537	,	-13722	,	-11.725886	,	0
43,35	,	48469	,	-17532	,	-13716	,	-14.256147	,	0
43,35	,	48501	,	-17547	,	-13719	,	-16.451696	,	0
43,35	,	48517	,	-17553	,	-13722	,	-18.224396	,	0
43,35	,	48548	,	-17555	,	-13729	,	-19.593704	,	0
43,35	,	48564	,	-17553	,	-13738	,	-20.517994	,	0
43,36	,	48581	,	-17567	,	-13720	,	-20.89444	,	0
43,36	,	48613	,	-17586	,	-13738	,	-20.845406	,	0
43,36	,	48629	,	-17592	,	-13742	,	-20.787529	,	0
43,36	,	48645	,	-17591	,	-13744	,	-21.038914	,	0
43,36	,	48677	,	-17603	,	-13746	,	-21.559946	,	0
43,36	,	48693	,	-17606	,	-13750	,	-22.163286	,	0
43,36	,	48724	,	-17609	,	-13754	,	-22.684845	,	0
43,36	,	48741	,	-17596	,	-13752	,	-22.875492	,	0
43,36	,	48756	,	-17601	,	-13744	,	-22.370644	,	0
43,36	,	48789	,	-17575	,	-13735	,	-20.814182	,	0
43,36	,	48805	,	-17563	,	-13739	,	-17.867783	,	1
43,36	,	48821	,	-17550	,	-13723	,	-13.287341	,	3
43,36	,	48853	,	-17545	,	-13719	,	-7.1832542	,	7
43,36	,	48869	,	-17526	,	-13717	,	-0.036938667	,	13
43,36	,	48884	,	-17515	,	-13716	,	7.57179	,	20
43,36	,	48917	,	-17504	,	-13714	,	15.117945	,	27
43,36	,	48933	,	-17493	,	-13708	,	22.1187	,	34
43,36	,	48965	,	-17491	,	-13705	,	28.132196	,	41
43,36	,	48981	,	-17491	,	-13707	,	32.729	,	47
43,36	,	48997	,	-17493	,	-13708	,	35.492813	,	50
43,36	,	49028	,	-17487	,	-13704	,	36.182068	,	50
43,36	,	49044	,	-17492	,	-13712	,	34.868587	,	46
43,36	,	49060	,	-17498	,	-13700	,	31.829502	,	40
43,36	,	49093	,	-17491	,	-13705	,	27.440233	,	33
43,36	,	49108	,	-17497	,	-13706	,	22.21939	,	26
43,36	,	49140	,	-17497	,	-13708	,	16.73408	,	19
43,36	,	49156	,	-17498	,	-13707	,	11.448975	,	12
43,36	,	49173	,	-17508	,	-13711	,	6.6696405	,	6
43,36	,	49204	,	-17502	,	-13719	,	2.534649	,	2
43,36	,	49221	,	-17512	,	-13715	,	-0.89808846	,	0
43,36	,	49236	,	-17519	,	-13716	,	-3.6599529	,	0
43,36	,	49268	,	-17518	,	-13722	,	-5.895481	,	0
43,36	,	49284	,	-17529	,	-13720	,	-7.7352552	,	0
43,36	,	49300	,	-17541	,	-13727	,	-9.323231	,	0
43,36	,	49332	,	-17534	,	-13729	,	-10.830352	,	0
43,36	,	49349	,	-17558	,	-13728	,	-12.333072	,	0
43,36	,	49381	,	-17553	,	-13730	,	-13.8725815	,	0
43,36	,	49396	,	-17558	,	-13733	,	-15.421644	,	0
43,36	,	49412	,	-17569	,	-13736	,	-16.822018	,	0
43,36	,	49444	,	-17574	,	-13742	,	-17.977375	,	0
43,36	,	49460	,	-17580	,	-13737	,	-18.900053	,	0
43,36	,	49476	,	-17589	,	-13740	,	-19.617298	,	0
43,36	,	49508	,	-17593	,	-13741	,	-20.170532	,	0
43,36	,	49524	,	-17587	,	-13747	,	-20.530087	,	0
43,36	,	49557	,	-17601	,	-13751	,	-20.556005	,	0
43,36	,	49573	,	-17606	,	-13749	,	-20.208385	,	0
43,37	,	49589	,	-17612	,	-13757	,	-19.639256	,	0
43,37	,	49620	,	-17603	,	-13752	,	-18.962158	,	0
43,37	,	49636	,	-17581	,	-13739	,	-17.96485	,	0
43,37	,	49652	,	-17570	,	-13741	,	-16.090435	,	0
43,37	,	49684	,	-17570	,	-13730	,	-12.8734045	,	1
43,37	,	49700	,	-17550	,	-13730	,	-8.3109455	,	4
43,37	,	49732	,	-17543	,	-13725	,	-2.6982617	,	8
43,37	,	49748	,	-17534	,	-13725	,	3.5713696	,	13
43,37	,	49764	,	-17530	,	-13725	,	9.976549	,	19
43,37	,	49796	,	-17525	,	-13727	,	15.914585	,	25
43,37	,	49812	,	-17515	,	-13709	,	20.876068	,	30
43,37	,	49844	,	-17506	,	-13720	,	24.604982	,	34
43,37	,	49860	,	-17513	,	-13714	,	27.037441	,	37
43,37	,	49876	,	-17516	,	-13720	,	28.070118	,	38
43,37	,	49908	,	-17521	,	-13714	,	27.543324	,	36
43,37	,	49924	,	-17520	,	-13714	,	25.44451	,	32
43,37	,	49940	,	-17514	,	-13720	,	22.059334	,	27
43,37	,	49972	,	-17519	,	-13716	,	17.92451	,	21
43,37	,	49988	,	-17512	,	-13718	,	13.617187	,	15
43,37	,	50004	,	-17510	,	-13718	,	9.631209	,	10
43,37	,	50036	,	-17523	,	-13727	,	6.2812033	,	6
43,37	,	50052	,	-17526	,	-13710	,	3.5558076	,	3
43,37	,	50068	,	-17522	,	-13722	,	1.2693119	,	1
43,37	,	50100	,	-17541	,	-13730	,	-0.7252543	,	0
43,37	,	50116	,	-17549	,	-13727	,	-2.6547291	,	0
43,37	,	50148	,	-17554	,	-13724	,	-4.811351	,	0
43,37	,	50164	,	-17554	,	-13733	,	-7.2666907	,	0
43,37	,	50180	,	-17556	,	-13735	,	-9.792734	,	0
43,37	,	50212	,	-17567	,	-13732	,	-12.0835705	,	0
43,37	,	50228	,	-17571	,	-13734	,	-13.984374	,	0
43,37	,	50244	,	-17573	,	-13735	,	-15.468193	,	0
43,37	,	50276	,	-17574	,	-13734	,	-16.488861	,	0
43,37	,	50292	,	-17583	,	-13739	,	-16.998032	,	0
43,37	,	50324	,	-17596	,	-13743	,	-17.09849	,	0
43,37	,	50340	,	-17597	,	-13750	,	-17.0509	,	0
43,37	,	50356	,	-17609	,	-13746	,	-17.087215	,	0
43,37	,	50388	,	-17611	,	-13753	,	-17.313963	,	0
43,37	,	50404	,	-17610	,	-13748	,	-17.689995	,	0
43,37	,	50420	,	-17614	,	-13753	,	-18.012056	,	0
43,37	,	50452	,	-17593	,	-13746	,	-17.94315	,	0
43,37	,	50468	,	-17579	,	-13743	,	-16.973728	,	0
43,37	,	50484	,	-17570	,	-13740	,	-14.568482	,	0
43,37	,	50516	,	-17571	,	-13729	,	-10.578462	,	2
43,37	,	50532	,	-17558	,	-13735	,	-5.370508	,	5
43,37	,	50564	,	-17537	,	-13723	,	0.5430093	,	10
43,38	,	50580	,	-17532	,	-13720	,	6.812892	,	15
43,38	,	50596	,	-17529	,	-13716	,	13.082836	,	21
43,38	,	50628	,	-17526	,	-13719	,	18.805017	,	27
43,38	,	50644	,	-17527	,	-13720	,	23.37965	,	32
43,38	,	50660	,	-17529	,	-13720	,	26.329607	,	36
43,38	,	50692	,	-17528	,	-13721	,	27.397419	,	38
43,38	,	50708	,	-17535	,	-13728	,	26.588999	,	37
43,38	,	50740	,	-17528	,	-13725	,	24.15203	,	34
43,38	,	50756	,	-17532	,	-13722	,	20.545479	,	29
43,38	,	50772	,	-17538	,	-13717	,	16.293484	,	24
43,38	,	50804	,	-17537	,	-13721	,	11.810083	,	18
43,38	,	50820	,	-17545	,	-13720	,	7.4007406	,	12
43,38	,	50836	,	-17544	,	-13724	,	3.2959127	,	7
43,38	,	50868	,	-17541	,	-13729	,	-0.2998662	,	3
43,38	,	50884	,	-17544	,	-13725	,	-3.1604028	,	1
43,38	,	50900	,	-17549	,	-13725	,	-5.1606607	,	0
43,38	,	50932	,	-17558	,	-13731	,	-6.416498	,	0
43,38	,	50948	,	-17568	,	-13731	,	-7.2642946	,	0
43,38	,	50980	,	-17566	,	-13726	,	-8.069589	,	0
43,38	,	50996	,	-17572	,	-13746	,	-8.99522	,	0
43,38	,	51012	,	-17578	,	-13732	,	-10.013187	,	0
43,38	,	51044	,	-17594	,	-13741	,	-11.126656	,	0
43,38	,	51060	,	-17598	,	-13748	,	-12.453886	,	0
43,38	,	51076	,	-17594	,	-13742	,	-14.018205	,	0
43,38	,	51108	,	-17604	,	-13742	,	-15.59547	,	0
43,38	,	51124	,	-17610	,	-13747	,	-16.927748	,	0
43,38	,	51155	,	-17610	,	-13747	,	-17.896765	,	0
43,38	,	51172	,	-17620	,	-13750	,	-18.461872	,	0
43,38	,	51188	,	-17628	,	-13753	,	-18.679243	,	0
43,38	,	51220	,	-17622	,	-13751	,	-18.662384	,	0
43,38	,	51236	,	-17640	,	-13766	,	-18.4651	,	0
43,38	,	51252	,	-17638	,	-13751	,	-18.161896	,	0
43,38	,	51284	,	-17617	,	-13753	,	-17.726475	,	0
43,38	,	51300	,	-17613	,	-13747	,	-16.76789	,	0
43,38	,	51331	,	-17592	,	-13749	,	-14.7371645	,	0
43,38	,	51348	,	-17578	,	-13737	,	-11.241374	,	2
43,38	,	51364	,	-17571	,	-13735	,	-6.1788616	,	5
43,38	,	51396	,	-17561	,	-13731	,	0.13827753	,	10
43,38	,	51412	,	-17559	,	-13730	,	7.0500546	,	16
43,38	,	51428	,	-17552	,	-13724	,	13.767796	,	22
43,38	,	51460	,	-17536	,	-13726	,	19.635456	,	28
43,38	,	51476	,	-17531	,	-13729	,	24.33282	,	33
43,38	,	51491	,	-17529	,	-13712	,	27.76592	,	37
43,38	,	51523	,	-17525	,	-13719	,	29.864414	,	40
43,38	,	51540	,	-17528	,	-13717	,	30.574516	,	40
43,38	,	51572	,	-17526	,	-13717	,	29.90334	,	37
43,39	,	51588	,	-17522	,	-13717	,	27.980822	,	32
43,39	,	51603	,	-17523	,	-13715	,	25.103966	,	26
43,39	,	51636	,	-17526	,	-13714	,	21.621449	,	20
43,39	,	51652	,	-17526	,	-13714	,	17.814133	,	14
43,39	,	51668	,	-17534	,	-13716	,	13.887657	,	9
43,39	,	51700	,	-17529	,	-13721	,	10.004198	,	5
43,39	,	51716	,	-17541	,	-13725	,	6.307622	,	2
43,39	,	51747	,	-17540	,	-13714	,	2.8861966	,	0
43,39	,	51763	,	-17553	,	-13719	,	-0.25760984	,	0
43,39	,	51779	,	-17556	,	-13729	,	-3.182204	,	0
43,39	,	51812	,	-17559	,	-13728	,	-5.928905	,	0
43,39	,	51828	,	-17563	,	-13726	,	-8.435545	,	0
43,39	,	51844	,	-17567	,	-13724	,	-10.578017	,	0
43,39	,	51876	,	-17582	,	-13729	,	-12.316111	,	0
43,39	,	51892	,	-17578	,	-13725	,	-13.737515	,	0
43,39	,	51908	,	-17585	,	-13732	,	-14.900751	,	0
43,39	,	51939	,	-17587	,	-13735	,	-15.759542	,	0
43,39	,	51955	,	-17595	,	-13745	,	-16.280846	,	0
43,39	,	51987	,	-17600	,	-13740	,	-16.51889	,	0
43,39	,	52004	,	-17612	,	-13744	,	-16.617472	,	0
43,39	,	52020	,	-17618	,	-13743	,	-16.775013	,	0
43,39	,	52052	,	-17620	,	-13744	,	-17.115324	,	0
43,39	,	52068	,	-17629	,	-13753	,	-17.603218	,	0
43,39	,	52083	,	-17636	,	-13754	,	-18.157982	,	0
43,39	,	52115	,	-17645	,	-13752	,	-18.765787	,	0
43,39	,	52131	,	-17643	,	-13753	,	-19.406404	,	0
43,39	,	52163	,	-17650	,	-13752	,	-19.954403	,	0
43,39	,	52180	,	-17628	,	-13749	,	-20.131607	,	0
43,39	,	52196	,	-17621	,	-13750	,	-19.462234	,	0
43,39	,	52228	,	-17606	,	-13742	,	-17.429264	,	0
43,39	,	52244	,	-17585	,	-13731	,	-13.707051	,	2
43,39	,	52259	,	-17575	,	-13731	,	-8.221842	,	5
43,39	,	52291	,	-17569	,	-13725	,	-1.2648239	,	10
43,39	,	52307	,	-17565	,	-13721	,	6.44115	,	16
43,39	,	52323	,	-17544	,	-13714	,	14.039581	,	23
43,39	,	52355	,	-17544	,	-13714	,	20.892805	,	30
43,39	,	52371	,	-17534	,	-13718	,	26.575966	,	36
43,39	,	52403	,	-17538	,	-13711	,	30.741991	,	41
43,39	,	52419	,	-17534	,	-13716	,	33.12373	,	45
43,39	,	52435	,	-17550	,	-13711	,	33.540497	,	45
43,39	,	52467	,	-17537	,	-13718	,	31.950422	,	42
43,39	,	52484	,	-17538	,	-13712	,	28.64615	,	37
43,39	,	52499	,	-17539	,	-13717	,	24.231796	,	31
43,39	,	52531	,	-17543	,	-13715	,	19.31075	,	24
43,39	,	52547	,	-17538	,	-13711	,	14.358081	,	17
43,40	,	52579	,	-17550	,	-13713	,	9.732467	,	11
43,40	,	52595	,	-17550	,	-13717	,	5.604315	,	6
43,40	,	52611	,	-17544	,	-13717	,	2.044753	,	2
43,40	,	52643	,	-17559	,	-13716	,	-0.86670494	,	0
43,40	,	52659	,	-17560	,	-13725	,	-3.1797762	,	0
43,40	,	52675	,	-17556	,	-13723	,	-5.027776	,	0
43,40	,	52707	,	-17565	,	-13731	,	-6.4398165	,	0
43,40	,	52723	,	-17573	,	-13721	,	-7.4735336	,	0
43,40	,	52739	,	-17591	,	-13729	,	-8.399509	,	0
43,40	,	52771	,	-17594	,	-13732	,	-9.595686	,	0
43,40	,	52787	,	-17598	,	-13738	,	-11.25461	,	0
43,40	,	52819	,	-17593	,	-13736	,	-13.200926	,	0
43,40	,	52835	,	-17601	,	-13737	,	-15.021765	,	0
43,40	,	52851	,	-17614	,	-13739	,	-16.420202	,	0
43,40	,	52883	,	-17608	,	-13746	,	-17.36516	,	0
43,40	,	52899	,	-17623	,	-13743	,	-17.912294	,	0
43,40	,	52915	,	-17620	,	-13748	,	-18.119465	,	0
43,40	,	52947	,	-17626	,	-13754	,	-18.042957	,	0
43,40	,	52963	,	-17628	,	-13744	,	-17.696758	,	0
43,40	,	52995	,	-17644	,	-13752	,	-17.15877	,	0
43,40	,	53011	,	-17649	,	-13751	,	-16.663475	,	0
43,40	,	53027	,	-17648	,	-13754	,	-16.426815	,	0
43,40	,	53059	,	-17650	,	-13753	,	-16.4173	,	0
43,40	,	53075	,	-17645	,	-13751	,	-16.383808	,	0
43,40	,	53091	,	-17629	,	-13748	,	-15.941836	,	0
43,40	,	53123	,	-17620	,	-13747	,	-14.610626	,	0
43,40	,	53139	,	-17604	,	-13738	,	-11.984366	,	1
43,40	,	53171	,	-17596	,	-13738	,	-7.914882	,	3
43,40	,	53187	,	-17591	,	-13739	,	-2.5996904	,	7
43,40	,	53203	,	-17578	,	-13725	,	3.4618568	,	12
43,40	,	53235	,	-17568	,	-13728	,	9.704481	,	18
43,40	,	53251	,	-17565	,	-13725	,	15.64091	,	24
43,40	,	53267	,	-17569	,	-13719	,	20.762749	,	29
43,40	,	53299	,	-17571	,	-13727	,	24.50267	,	34
43,40	,	53315	,	-17564	,	-13728	,	26.449203	,	37
43,40	,	53331	,	-17576	,	-13728	,	26.519753	,	37
43,40	,	53363	,	-17577	,	-13727	,	24.839214	,	35
43,40	,	53379	,	-17574	,	-13726	,	21.669384	,	31
43,40	,	53411	,	-17574	,	-13725	,	17.492584	,	26
43,40	,	53427	,	-17572	,	-13732	,	12.927362	,	20
43,40	,	53443	,	-17573	,	-13714	,	8.540256	,	14
43,40	,	53475	,	-17571	,	-13726	,	4.7407866	,	9
43,40	,	53491	,	-17575	,	-13725	,	1.7496219	,	4
43,40	,	53507	,	-17584	,	-13729	,	-0.43849158	,	1
43,40	,	53539	,	-17590	,	-13733	,	-2.0639753	,	0
43,40	,	53555	,	-17585	,	-13728	,	-3.4123359	,	0
43,41	,	53587	,	-17593	,	-13729	,	-4.602176	,	0
43,41	,	53603	,	-17604	,	-13733	,	-5.6917896	,	0
43,41	,	53619	,	-17599	,	-13730	,	-6.7941294	,	0
43,41	,	53651	,	-17602	,	-13740	,	-7.9086103	,	0
43,41	,	53667	,	-17603	,	-13745	,	-8.876222	,	0
43,41	,	53683	,	-17613	,	-13738	,	-9.583494	,	0
43,41	,	53715	,	-17622	,	-13743	,	-10.107126	,	0
43,41	,	53731	,	-17625	,	-13746	,	-10.64863	,	0
43,41	,	53747	,	-17631	,	-13749	,	-11.345574	,	0
43,41	,	53779	,	-17635	,	-13751	,	-12.198488	,	0
43,41	,	53795	,	-17642	,	-13750	,	-13.142303	,	0
43,41	,	53827	,	-17645	,	-13750	,	-14.099003	,	0
43,41	,	53843	,	-17649	,	-13755	,	-14.974275	,	0
43,41	,	53859	,	-17657	,	-13756	,	-15.686466	,	0
43,41	,	53891	,	-17646	,	-13754	,	-16.151365	,	0
43,41	,	53907	,	-17645	,	-13757	,	-16.160933	,	0
43,41	,	53923	,	-17632	,	-13747	,	-15.398827	,	0
43,41	,	53955	,	-17624	,	-13743	,	-13.588722	,	0
43,41	,	53971	,	-17608	,	-13740	,	-10.567648	,	1
43,41	,	54003	,	-17601	,	-13741	,	-6.325002	,	4
43,41	,	54019	,	-17595	,	-13738	,	-1.0845699	,	8
43,41	,	54035	,	-17595	,	-13734	,	4.6462135	,	13
43,41	,	54067	,	-17590	,	-13733	,	10.190084	,	18
43,41	,	54083	,	-17577	,	-13730	,	14.976794	,	23
43,41	,	54099	,	-17581	,	-13726	,	18.707542	,	27
43,41	,	54131	,	-17575	,	-13734	,	21.243315	,	30
43,41	,	54147	,	-17576	,	-13734	,	22.514088	,	32
43,41	,	54163	,	-17585	,	-13739	,	22.503933	,	32
43,41	,	54195	,	-17582	,	-13727	,	21.217499	,	29
43,41	,	54211	,	-17581	,	-13732	,	18.797432	,	25
43,41	,	54243	,	-17585	,	-13729	,	15.591979	,	20
43,41	,	54259	,	-17587	,	-13731	,	11.994257	,	15
43,41	,	54275	,	-17589	,	-13725	,	8.324261	,	10
43,41	,	54307	,	-17592	,	-13733	,	4.8269277	,	6
43,41	,	54323	,	-17588	,	-13731	,	1.6998491	,	3
43,41	,	54339	,	-17594	,	-13737	,	-0.8887341	,	1
43,41	,	54371	,	-17598	,	-13735	,	-2.877905	,	0
43,41	,	54387	,	-17605	,	-13742	,	-4.376362	,	0
43,41	,	54419	,	-17605	,	-13744	,	-5.5666924	,	0
43,41	,	54435	,	-17604	,	-13732	,	-6.5493946	,	0
43,41	,	54451	,	-17619	,	-13742	,	-7.353105	,	0
43,41	,	54483	,	-17629	,	-13735	,	-8.131247	,	0
43,41	,	54499	,	-17633	,	-13747	,	-9.154507	,	0
43,41	,	54515	,	-17633	,	-13739	,	-10.528792	,	0
43,41	,	54547	,	-17630	,	-13743	,	-12.045122	,	0
43,41	,	54563	,	-17643	,	-13744	,	-13.360613	,	0
43,41	,	54579	,	-17644	,	-13744	,	-14.295795	,	0
43,42	,	54610	,	-17657	,	-13753	,	-14.904521	,	0
43,42	,	54626	,	-17658	,	-13752	,	-15.343201	,	0
43,42	,	54659	,	-17664	,	-13766	,	-15.727556	,	0
43,42	,	54675	,	-17660	,	-13743	,	-16.035461	,	0
43,42	,	54691	,	-17654	,	-13754	,	-16.07703	,	0
43,42	,	54723	,	-17641	,	-13746	,	-15.509052	,	0
43,42	,	54739	,	-17625	,	-13749	,	-13.901125	,	0
43,42	,	54755	,	-17623	,	-13738	,	-10.933094	,	1
43,42	,	54786	,	-17608	,	-13733	,	-6.621507	,	3
43,42	,	54802	,	-17590	,	-13731	,	-1.2315636	,	7
43,42	,	54835	,	-17581	,	-13733	,	4.9419065	,	12
43,42	,	54851	,	-17585	,	-13725	,	11.456349	,	18
43,42	,	54867	,	-17563	,	-13724	,	17.662926	,	24
43,42	,	54899	,	-17565	,	-13723	,	23.014912	,	30
43,42	,	54915	,	-17561	,	-13710	,	27.163399	,	35
43,42	,	54930	,	-17555	,	-13716	,	29.852222	,	39
43,42	,	54962	,	-17563	,	-13719	,	30.949774	,	40
43,42	,	54978	,	-17553	,	-13716	,	30.463264	,	39
43,42	,	54994	,	-17556	,	-13711	,	28.580605	,	35
43,42	,	55027	,	-17548	,	-13713	,	25.684017	,	30
43,42	,	55042	,	-17545	,	-13712	,	22.255075	,	24
43,42	,	55075	,	-17555	,	-13713	,	18.721031	,	18
43,42	,	55090	,	-17541	,	-13714	,	15.335702	,	12
43,42	,	55107	,	-17553	,	-13717	,	12.252596	,	7
43,42	,	55138	,	-17550	,	-13720	,	9.539198	,	3
43,42	,	55154	,	-17554	,	-13713	,	7.1399975	,	1
43,42	,	55170	,	-17558	,	-13714	,	4.967653	,	0
43,42	,	55202	,	-17565	,	-13720	,	2.92273	,	0
43,42	,	55218	,	-17566	,	-13721	,	0.89420986	,	0
43,42	,	55251	,	-17568	,	-13725	,	-1.1482694	,	0
43,42	,	55266	,	-17577	,	-13724	,	-3.148697	,	0
43,42	,	55282	,	-17590	,	-13720	,	-5.1175036	,	0
43,42	,	55315	,	-17577	,	-13727	,	-7.1041574	,	0
43,42	,	55330	,	-17600	,	-13732	,	-9.030215	,	0
43,42	,	55346	,	-17592	,	-13731	,	-10.791672	,	0
43,42	,	55378	,	-17604	,	-13730	,	-12.3355465	,	0
43,42	,	55394	,	-17605	,	-13728	,	-13.6038685	,	0
43,42	,	55410	,	-17607	,	-13735	,	-14.55125	,	0
43,42	,	55442	,	-17623	,	-13734	,	-15.183771	,	0
43,42	,	55458	,	-17614	,	-13735	,	-15.583975	,	0
43,42	,	55490	,	-17622	,	-13742	,	-15.783873	,	0
43,42	,	55506	,	-17629	,	-13729	,	-15.746459	,	0
43,42	,	55522	,	-17613	,	-13731	,	-15.440187	,	0
43,42	,	55554	,	-17593	,	-13727	,	-14.600071	,	0
43,42	,	55570	,	-17590	,	-13722	,	-12.706041	,	0
43,43	,	55586	,	-17572	,	-13718	,	-9.408339	,	1
43,43	,	55619	,	-17556	,	-13716	,	-4.687025	,	4
43,43	,	55634	,	-17552	,	-13710	,	1.2358913	,	8
43,43	,	55666	,	-17545	,	-13701	,	7.8485456	,	13
43,43	,	55682	,	-17524	,	-13703	,	14.493358	,	19
43,43	,	55698	,	-17521	,	-13696	,	20.670288	,	25
43,43	,	55730	,	-17515	,	-13696	,	26.013653	,	31
43,43	,	55746	,	-17512	,	-13698	,	30.156563	,	36
43,43	,	55762	,	-17518	,	-13692	,	32.751793	,	40
43,43	,	55794	,	-17509	,	-13692	,	33.55971	,	41
43,43	,	55810	,	-17510	,	-13693	,	32.606575	,	38
43,43	,	55826	,	-17507	,	-13697	,	30.210136	,	34
43,43	,	55858	,	-17501	,	-13691	,	26.84205	,	29
43,43	,	55874	,	-17507	,	-13695	,	22.997173	,	23
43,43	,	55906	,	-17511	,	-13685	,	19.019966	,	17
43,43	,	55922	,	-17514	,	-13696	,	15.046523	,	11
43,43	,	55938	,	-17511	,	-13700	,	11.161987	,	6
43,43	,	55970	,	-17521	,	-13694	,	7.489724	,	2
43,43	,	55986	,	-17525	,	-13698	,	4.0981	,	0
43,43	,	56002	,	-17515	,	-13703	,	1.0312428	,	0
43,43	,	56034	,	-17534	,	-13696	,	-1.609266	,	0
43,43	,	56050	,	-17535	,	-13695	,	-3.8380437	,	0
43,43	,	56082	,	-17530	,	-13705	,	-5.765135	,	0
43,43	,	56098	,	-17546	,	-13710	,	-7.3957086	,	0
43,43	,	56114	,	-17546	,	-13712	,	-8.751955	,	0
43,43	,	56146	,	-17555	,	-13698	,	-9.951665	,	0
43,43	,	56162	,	-17559	,	-13718	,	-11.090218	,	0
43,43	,	56178	,	-17557	,	-13712	,	-12.165335	,	0
43,43	,	56210	,	-17580	,	-13721	,	-13.137823	,	0
43,43	,	56226	,	-17576	,	-13718	,	-14.084771	,	0
43,43	,	56242	,	-17588	,	-13719	,	-15.110997	,	0
43,43	,	56274	,	-17590	,	-13717	,	-16.198505	,	0
43,43	,	56290	,	-17596	,	-13718	,	-17.257496	,	0
43,43	,	56322	,	-17593	,	-13721	,	-18.144014	,	0
43,43	,	56338	,	-17580	,	-13726	,	-18.577639	,	0
43,43	,	56354	,	-17591	,	-13733	,	-18.206585	,	0
43,43	,	56386	,	-17583	,	-13703	,	-16.881615	,	0
43,43	,	56402	,	-17543	,	-13708	,	-14.524482	,	1
43,43	,	56418	,	-17526	,	-13703	,	-10.72131	,	3
43,43	,	56450	,	-17522	,	-13694	,	-5.0732784	,	6
43,43	,	56466	,	-17510	,	-13694	,	2.1655092	,	11
43,43	,	56498	,	-17507	,	-13692	,	10.1664295	,	18
43,43	,	56514	,	-17490	,	-13690	,	17.990364	,	26
43,43	,	56530	,	-17482	,	-13686	,	24.922508	,	33
43,43	,	56562	,	-17476	,	-13681	,	30.534496	,	39
43,44	,	56578	,	-17472	,	-13686	,	34.550365	,	44
43,44	,	56594	,	-17468	,	-13685	,	36.804092	,	47
43,44	,	56626	,	-17474	,	-13678	,	37.253822	,	47
43,44	,	56642	,	-17479	,	-13681	,	35.911057	,	44
43,44	,	56658	,	-17479	,	-13678	,	32.850014	,	39
43,44	,	56690	,	-17477	,	-13682	,	28.354694	,	32
43,44	,	56706	,	-17472	,	-13680	,	22.982477	,	24
43,44	,	56738	,	-17469	,	-13680	,	17.442345	,	17
43,44	,	56754	,	-17471	,	-13674	,	12.368996	,	11
43,44	,	56770	,	-17477	,	-13681	,	8.115836	,	6
43,44	,	56802	,	-17489	,	-13685	,	4.6711893	,	2
43,44	,	56818	,	-17497	,	-13683	,	1.7332892	,	0
43,44	,	56834	,	-17492	,	-13685	,	-1.0093572	,	0
43,44	,	56866	,	-17489	,	-13679	,	-3.5622854	,	0
43,44	,	56882	,	-17494	,	-13689	,	-5.6748643	,	0
43,44	,	56914	,	-17507	,	-13691	,	-7.214495	,	0
43,44	,	56930	,	-17524	,	-13688	,	-8.4119215	,	0
43,44	,	56946	,	-17518	,	-13696	,	-9.667463	,	0
43,44	,	56978	,	-17522	,	-13694	,	-11.120308	,	0
43,44	,	56994	,	-17532	,	-13693	,	-12.611973	,	0
43,44	,	57010	,	-17542	,	-13701	,	-14.023264	,	0
43,44	,	57042	,	-17540	,	-13701	,	-15.344717	,	0
43,44	,	57058	,	-17545	,	-13701	,	-16.49517	,	0
43,44	,	57090	,	-17542	,	-13703	,	-17.290115	,	0
43,44	,	57106	,	-17545	,	-13705	,	-17.538502	,	0
43,44	,	57122	,	-17567	,	-13710	,	-17.235813	,	0
43,44	,	57154	,	-17566	,	-13705	,	-16.695137	,	0
43,44	,	57170	,	-17569	,	-13713	,	-16.259926	,	0
43,44	,	57186	,	-17571	,	-13712	,	-15.9985485	,	0
43,44	,	57218	,	-17568	,	-13711	,	-15.773331	,	0
43,44	,	57234	,	-17550	,	-13699	,	-15.287542	,	0
43,44	,	57250	,	-17524	,	-13691	,	-13.980642	,	0
43,44	,	57282	,	-17515	,	-13692	,	-11.177453	,	1
43,44	,	57298	,	-17500	,	-13687	,	-6.5367446	,	3
43,44	,	57329	,	-17489	,	-13685	,	-0.25768518	,	7
43,44	,	57345	,	-17488	,	-13682	,	7.04172	,	13
43,44	,	57361	,	-17471	,	-13671	,	14.520714	,	20
43,44	,	57394	,	-17464	,	-13675	,	21.421207	,	27
43,44	,	57410	,	-17465	,	-13666	,	27.196114	,	33
43,44	,	57426	,	-17466	,	-13666	,	31.367712	,	38
43,44	,	57458	,	-17468	,	-13671	,	33.53248	,	42
43,44	,	57474	,	-17469	,	-13666	,	33.513416	,	43
43,44	,	57505	,	-17467	,	-13660	,	31.45008	,	41
43,44	,	57521	,	-17467	,	-13668	,	27.782816	,	37
43,44	,	57537	,	-17463	,	-13663	,	23.13192	,	31
43,44	,	57570	,	-17467	,	-13667	,	18.132164	,	24
43,45	,	57586	,	-17473	,	-13671	,	13.257169	,	17
43,45	,	57602	,	-17469	,	-13665	,	8.772601	,	11
43,45	,	57634	,	-17481	,	-13670	,	4.821331	,	6
43,45	,	57650	,	-17481	,	-13671	,	1.4289126	,	2
43,45	,	57666	,	-17476	,	-13671	,	-1.4164801	,	0
43,45	,	57697	,	-17482	,	-13670	,	-3.635135	,	0
43,45	,	57713	,	-17477	,	-13674	,	-5.146551	,	0
43,45	,	57745	,	-17505	,	-13678	,	-6.074241	,	0
43,45	,	57762	,	-17494	,	-13677	,	-6.78388	,	0
43,45	,	57778	,	-17502	,	-13675	,	-7.56864	,	0
43,45	,	57810	,	-17497	,	-13678	,	-8.408658	,	0
43,45	,	57825	,	-17515	,	-13689	,	-9.185951	,	0
43,45	,	57841	,	-17517	,	-13672	,	-9.941436	,	0
43,45	,	57873	,	-17523	,	-13683	,	-10.802694	,	0
43,45	,	57889	,	-17525	,	-13684	,	-11.787685	,	0
43,45	,	57921	,	-17532	,	-13688	,	-12.806892	,	0
43,45	,	57938	,	-17544	,	-13685	,	-13.8119	,	0
43,45	,	57954	,	-17537	,	-13689	,	-14.801002	,	0
43,45	,	57985	,	-17546	,	-13690	,	-15.6674795	,	0
43,45	,	58002	,	-17558	,	-13693	,	-16.29383	,	0
43,45	,	58017	,	-17552	,	-13696	,	-16.710297	,	0
43,45	,	58050	,	-17542	,	-13689	,	-16.852737	,	0
43,45	,	58066	,	-17524	,	-13694	,	-16.329578	,	0
43,45	,	58081	,	-17518	,	-13670	,	-14.605869	,	0
43,45	,	58113	,	-17491	,	-13670	,	-11.2971325	,	1
43,45	,	58129	,	-17488	,	-13663	,	-6.2959685	,	4
43,45	,	58161	,	-17478	,	-13666	,	0.11499596	,	9
43,45	,	58178	,	-17470	,	-13661	,	7.268244	,	15
43,45	,	58193	,	-17463	,	-13648	,	14.373693	,	22
43,45	,	58225	,	-17466	,	-13660	,	20.689955	,	29
43,45	,	58241	,	-17464	,	-13653	,	25.547832	,	35
43,45	,	58257	,	-17462	,	-13658	,	28.47844	,	39
43,45	,	58289	,	-17458	,	-13658	,	29.373825	,	41
43,45	,	58305	,	-17465	,	-13661	,	28.434662	,	40
43,45	,	58337	,	-17463	,	-13646	,	25.978199	,	37
43,45	,	58353	,	-17467	,	-13656	,	22.37667	,	32
43,45	,	58369	,	-17466	,	-13658	,	18.070988	,	26
43,45	,	58401	,	-17476	,	-13657	,	13.476832	,	19
43,45	,	58417	,	-17475	,	-13663	,	8.886731	,	12
43,45	,	58433	,	-17486	,	-13664	,	4.4871683	,	6
43,45	,	58465	,	-17485	,	-13662	,	0.4076228	,	2
43,45	,	58481	,	-17490	,	-13662	,	-3.2272139	,	0
43,45	,	58497	,	-17486	,	-13660	,	-6.2533617	,	0
43,45	,	58530	,	-17495	,	-13664	,	-8.52202	,	0
43,45	,	58545	,	-17507	,	-13673	,	-10.066598	,	0
43,46	,	58577	,	-17502	,	-13668	,	-11.116922	,	0
43,46	,	58593	,	-17511	,	-13675	,	-11.863573	,	0
43,46	,	58609	,	-17520	,	-13675	,	-12.41305	,	0
43,46	,	58641	,	-17521	,	-13676	,	-12.896076	,	0
43,46	,	58657	,	-17533	,	-13682	,	-13.420391	,	0
43,46	,	58673	,	-17538	,	-13681	,	-14.0615835	,	0
43,46	,	58705	,	-17538	,	-13683	,	-14.842623	,	0
43,46	,	58721	,	-17540	,	-13684	,	-15.633787	,	0
43,46	,	58753	,	-17552	,	-13680	,	-16.25684	,	0
43,46	,	58769	,	-17557	,	-13691	,	-16.687132	,	0
43,46	,	58785	,	-17565	,	-13693	,	-17.031603	,	0
43,46	,	58817	,	-17574	,	-13700	,	-17.409805	,	0
43,46	,	58833	,	-17573	,	-13695	,	-17.880781	,	0
43,46	,	58849	,	-17555	,	-13696	,	-18.26056	,	0
43,46	,	58881	,	-17535	,	-13689	,	-17.96399	,	0
43,46	,	58897	,	-17522	,	-13678	,	-16.220493	,	0
43,46	,	58929	,	-17507	,	-13677	,	-12.523399	,	1
43,46	,	58945	,	-17505	,	-13669	,	-6.913162	,	4
43,46	,	58961	,	-17494	,	-13673	,	0.033634663	,	9
43,46	,	58993	,	-17485	,	-13668	,	7.4851513	,	15
43,46	,	59009	,	-17481	,	-13665	,	14.653427	,	22
43,46	,	59025	,	-17465	,	-13665	,	20.929409	,	29
43,46	,	59057	,	-17456	,	-13664	,	25.988277	,	35
43,46	,	59073	,	-17447	,	-13654	,	29.776304	,	40
43,46	,	59089	,	-17453	,	-13658	,	32.29119	,	43
43,46	,	59121	,	-17458	,	-13658	,	33.38412	,	44
43,46	,	59137	,	-17455	,	-13659	,	32.842606	,	42
43,46	,	59169	,	-17450	,	-13660	,	30.695944	,	37
43,46	,	59185	,	-17458	,	-13659	,	27.289867	,	31
43,46	,	59201	,	-17459	,	-13655	,	23.04256	,	24
43,46	,	59233	,	-17459	,	-13658	,	18.319954	,	17
43,46	,	59249	,	-17461	,	-13661	,	13.491416	,	11
43,46	,	59265	,	-17455	,	-13660	,	8.942199	,	6
43,46	,	59297	,	-17464	,	-13670	,	4.9987526	,	3
43,46	,	59313	,	-17479	,	-13656	,	1.7302456	,	1
43,46	,	59345	,	-17487	,	-13664	,	-1.138052	,	0
43,46	,	59361	,	-17488	,	-13673	,	-3.9364183	,	0
43,46	,	59377	,	-17497	,	-13666	,	-6.7644854	,	0
43,46	,	59409	,	-17500	,	-13672	,	-9.536992	,	0
43,46	,	59425	,	-17513	,	-13677	,	-12.147368	,	0
43,46	,	59441	,	-17519	,	-13674	,	-14.556828	,	0
43,46	,	59473	,	-17507	,	-13678	,	-16.67205	,	0
43,46	,	59489	,	-17515	,	-13682	,	-18.19368	,	0
43,46	,	59505	,	-17527	,	-13684	,	-18.887869	,	0
43,46	,	59537	,	-17530	,	-13695	,	-18.876736	,	0
43,46	,	59553	,	-17544	,	-13673	,	-18.49329	,	0
43,47	,	59585	,	-17547	,	-13694	,	-18.080143	,	0
43,47	,	59601	,	-17548	,	-13692	,	-17.84709	,	0
43,47	,	59617	,	-17560	,	-13695	,	-17.80738	,	0
43,47	,	59649	,	-17568	,	-13704	,	-17.94809	,	0
43,47	,	59665	,	-17563	,	-13699	,	-18.262806	,	0
43,47	,	59681	,	-17566	,	-13702	,	-18.57201	,	0
43,47	,	59713	,	-17558	,	-13700	,	-18.546974	,	0
43,47	,	59729	,	-17552	,	-13694	,	-17.84644	,	0
43,47	,	59760	,	-17530	,	-13691	,	-16.119843	,	0
43,47	,	59777	,	-17515	,	-13691	,	-12.9953165	,	1
43,47	,	59793	,	-17508	,	-13666	,	-8.268857	,	4
43,47	,	59825	,	-17484	,	-13672	,	-2.088004	,	8
43,47	,	59841	,	-17484	,	-13674	,	5.119196	,	14
43,47	,	59857	,	-17476	,	-13665	,	12.688567	,	21
43,47	,	59889	,	-17470	,	-13667	,	19.799274	,	28
43,47	,	59905	,	-17466	,	-13666	,	25.730967	,	35
43,47	,	59921	,	-17454	,	-13662	,	30.042955	,	40
43,47	,	59953	,	-17452	,	-13665	,	32.623173	,	44
43,47	,	59969	,	-17463	,	-13665	,	33.51326	,	45
43,47	,	60001	,	-17467	,	-13661	,	32.665054	,	42
43,47	,	60017	,	-17457	,	-13671	,	30.101273	,	38
43,47	,	60033	,	-17455	,	-13663	,	26.224228	,	32
43,47	,	60065	,	-17453	,	-13667	,	21.706207	,	25
43,47	,	60081	,	-17466	,	-13665	,	17.101423	,	18
43,47	,	60097	,	-17464	,	-13667	,	12.659934	,	11
43,47	,	60129	,	-17468	,	-13660	,	8.475993	,	6
43,47	,	60145	,	-17464	,	-13666	,	4.6822186	,	2
43,47	,	60176	,	-17479	,	-13671	,	1.4046721	,	0
43,47	,	60193	,	-17476	,	-13672	,	-1.3707879	,	0
43,47	,	60208	,	-17488	,	-13675	,	-3.7550929	,	0
43,47	,	60241	,	-17496	,	-13673	,	-5.8950744	,	0
43,47	,	60257	,	-17501	,	-13685	,	-7.9649014	,	0
43,47	,	60273	,	-17506	,	-13675	,	-10.051925	,	0
43,47	,	60305	,	-17510	,	-13678	,	-12.090845	,	0
43,47	,	60321	,	-17522	,	-13694	,	-13.968172	,	0
43,47	,	60337	,	-17525	,	-13688	,	-15.636041	,	0
43,47	,	60369	,	-17535	,	-13689	,	-17.0989	,	0
43,47	,	60384	,	-17541	,	-13692	,	-18.368984	,	0
43,47	,	60417	,	-17548	,	-13692	,	-19.462204	,	0
43,47	,	60433	,	-17550	,	-13701	,	-20.357239	,	0
43,47	,	60449	,	-17554	,	-13697	,	-20.964703	,	0
43,47	,	60481	,	-17561	,	-13693	,	-21.19527	,	0
43,47	,	60497	,	-17571	,	-13699	,	-21.080566	,	0
43,47	,	60513	,	-17568	,	-13697	,	-20.749279	,	0
43,47	,	60544	,	-17582	,	-13700	,	-20.299393	,	0
43,47	,	60560	,	-17574	,	-13704	,	-19.767258	,	0
43,48	,	60592	,	-17557	,	-13694	,	-18.99424	,	0
43,48	,	60609	,	-17535	,	-13698	,	-17.454231	,	0
43,48	,	60625	,	-17522	,	-13681	,	-14.47729	,	1
43,48	,	60657	,	-17508	,	-13680	,	-9.696737	,	3
43,48	,	60673	,	-17509	,	-13679	,	-3.3043327	,	7
43,48	,	60689	,	-17495	,	-13677	,	4.0103555	,	13
43,48	,	60720	,	-17487	,	-13674	,	11.408849	,	20
43,48	,	60737	,	-17478	,	-13671	,	18.21614	,	27
43,48	,	60753	,	-17475	,	-13671	,	23.949686	,	33
43,48	,	60784	,	-17470	,	-13663	,	28.25412	,	38
43,48	,	60800	,	-17469	,	-13661	,	30.904287	,	42
43,48	,	60833	,	-17471	,	-13665	,	31.815338	,	43
43,48	,	60849	,	-17476	,	-13662	,	31.001904	,	41
43,48	,	60864	,	-17472	,	-13661	,	28.593193	,	37
43,48	,	60897	,	-17474	,	-13663	,	24.918716	,	31
43,48	,	60912	,	-17472	,	-13663	,	20.47171	,	24
43,48	,	60929	,	-17476	,	-13666	,	15.762752	,	17
43,48	,	60960	,	-17474	,	-13660	,	11.21409	,	11
43,48	,	60976	,	-17475	,	-13667	,	7.1341286	,	6
43,48	,	61009	,	-17482	,	-13680	,	3.6993694	,	2
43,48	,	61024	,	-17484	,	-13665	,	0.91142607	,	0
43,48	,	61040	,	-17495	,	-13670	,	-1.3828604	,	0
43,48	,	61072	,	-17498	,	-13670	,	-3.409688	,	0
43,48	,	61088	,	-17500	,	-13673	,	-5.3318624	,	0
43,48	,	61105	,	-17505	,	-13677	,	-7.152741	,	0
43,48	,	61136	,	-17516	,	-13676	,	-8.832654	,	0
43,48	,	61152	,	-17531	,	-13672	,	-10.472091	,	0
43,48	,	61168	,	-17520	,	-13681	,	-12.205503	,	0
43,48	,	61200	,	-17524	,	-13682	,	-13.894154	,	0
43,48	,	61216	,	-17530	,	-13681	,	-15.202868	,	0
43,48	,	61248	,	-17537	,	-13694	,	-15.969019	,	0
43,48	,	61264	,	-17538	,	-13683	,	-16.256504	,	0
43,48	,	61280	,	-17552	,	-13690	,	-16.218678	,	0
43,48	,	61312	,	-17558	,	-13692	,	-16.082813	,	0
43,48	,	61328	,	-17561	,	-13696	,	-16.07327	,	0
43,48	,	61344	,	-17566	,	-13694	,	-16.25872	,	0
43,48	,	61376	,	-17565	,	-13697	,	-16.538332	,	0
43,48	,	61392	,	-17568	,	-13693	,	-16.722795	,	0
43,48	,	61424	,	-17546	,	-13692	,	-16.522991	,	0
43,48	,	61440	,	-17547	,	-13686	,	-15.522863	,	0
43,48	,	61456	,	-17521	,	-13680	,	-13.322897	,	1
43,48	,	61488	,	-17513	,	-13678	,	-9.668011	,	3
43,48	,	61504	,	-17503	,	-13660	,	-4.549213	,	6
43,48	,	61520	,	-17502	,	-13667	,	1.6370983	,	11
43,48	,	61552	,	-17492	,	-13664	,	8.173043	,	17
43,48	,	61568	,	-17494	,	-13658	,	14.29637	,	23
43,49	,	61600	,	-17487	,	-13668	,	19.372377	,	29
43,49	,	61616	,	-17489	,	-13658	,	22.966076	,	34
43,49	,	61632	,	-17487	,	-13663	,	24.865713	,	37
43,49	,	61664	,	-17492	,	-13669	,	25.047709	,	37
43,49	,	61680	,	-17495	,	-13668	,	23.626923	,	35
43,49	,	61696	,	-17484	,	-13669	,	20.900158	,	32
43,49	,	61728	,	-17487	,	-13670	,	17.39256	,	27
43,49	,	61744	,	-17486	,	-13658	,	13.671643	,	21
43,49	,	61760	,	-17488	,	-13660	,	10.130817	,	15
43,49	,	61792	,	-17487	,	-13670	,	6.9895115	,	9
43,49	,	61808	,	-17497	,	-13668	,	4.3212624	,	4
43,49	,	61840	,	-17496	,	-13666	,	2.0527563	,	1
43,49	,	61856	,	-17506	,	-13671	,	0.044430017	,	0
43,49	,	61872	,	-17516	,	-13677	,	-1.8736417	,	0
43,49	,	61904	,	-17521	,	-13680	,	-3.9006116	,	0
43,49	,	61920	,	-17517	,	-13679	,	-6.099795	,	0
43,49	,	61936	,	-17530	,	-13677	,	-8.32004	,	0
43,49	,	61968	,	-17527	,	-13690	,	-10.368697	,	0
43,49	,	61984	,	-17529	,	-13674	,	-12.074922	,	0
43,49	,	62016	,	-17542	,	-13685	,	-13.308575	,	0
43,49	,	62032	,	-17548	,	-13691	,	-14.132492	,	0
43,49	,	62048	,	-17557	,	-13691	,	-14.771223	,	0
43,49	,	62080	,	-17565	,	-13690	,	-15.434724	,	0
43,49	,	62096	,	-17566	,	-13691	,	-16.220041	,	0
43,49	,	62112	,	-17565	,	-13693	,	-17.034927	,	0
43,49	,	62144	,	-17572	,	-13698	,	-17.65229	,	0
43,49	,	62160	,	-17578	,	-13698	,	-17.925318	,	0
43,49	,	62192	,	-17580	,	-13703	,	-17.865229	,	0
43,49	,	62208	,	-17577	,	-13699	,	-17.496586	,	0
43,49	,	62224	,	-17561	,	-13690	,	-16.680704	,	0
43,49	,	62256	,	-17527	,	-13682	,	-14.957832	,	0
43,49	,	62272	,	-17513	,	-13674	,	-11.616777	,	1
43,49	,	62288	,	-17514	,	-13683	,	-6.2710485	,	4
43,49	,	62320	,	-17503	,	-13664	,	0.6684685	,	9
43,49	,	62336	,	-17497	,	-13675	,	8.277253	,	15
43,49	,	62352	,	-17491	,	-13671	,	15.616715	,	22
43,49	,	62384	,	-17498	,	-13664	,	21.86875	,	29
43,49	,	62400	,	-17479	,	-13660	,	26.41361	,	35
43,49	,	62432	,	-17486	,	-13671	,	29.0239	,	39
43,49	,	62448	,	-17486	,	-13673	,	29.770443	,	41
43,49	,	62464	,	-17485	,	-13657	,	28.803692	,	40
43,49	,	62496	,	-17490	,	-13668	,	26.367271	,	37
43,49	,	62512	,	-17490	,	-13662	,	22.803886	,	32
43,49	,	62528	,	-17498	,	-13665	,	18.478718	,	26
43,49	,	62560	,	-17490	,	-13663	,	13.769207	,	19
43,49	,	62576	,	-17490	,	-13664	,	9.124132	,	12
43,50	,	62608	,	-17497	,	-13663	,	4.980057	,	6
43,50	,	62624	,	-17498	,	-13670	,	1.55652	,	2
43,50	,	62640	,	-17508	,	-13664	,	-1.1724153	,	0
43,50	,	62672	,	-17509	,	-13668	,	-3.3691628	,	0
43,50	,	62688	,	-17506	,	-13679	,	-5.1649046	,	0
43,50	,	62704	,	-17525	,	-13668	,	-6.6211967	,	0
43,50	,	62736	,	-17522	,	-13678	,	-7.881895	,	0
43,50	,	62752	,	-17523	,	-13681	,	-9.0729065	,	0
43,50	,	62768	,	-17522	,	-13675	,	-10.101791	,	0
43,50	,	62800	,	-17546	,	-13686	,	-10.877679	,	0
43,50	,	62816	,	-17540	,	-13692	,	-11.55942	,	0
43,50	,	62848	,	-17551	,	-13685	,	-12.341265	,	0
43,50	,	62864	,	-17551	,	-13692	,	-13.233631	,	0
43,50	,	62880	,	-17567	,	-13692	,	-14.187473	,	0
43,50	,	62912	,	-17573	,	-13694	,	-15.242298	,	0
43,50	,	62928	,	-17565	,	-13704	,	-16.395721	,	0
43,50	,	62944	,	-17578	,	-13699	,	-17.43803	,	0
43,50	,	62976	,	-17586	,	-13702	,	-18.179932	,	0
43,50	,	62992	,	-17595	,	-13710	,	-18.682224	,	0
43,50	,	63024	,	-17599	,	-13708	,	-19.102566	,	0
43,50	,	63040	,	-17581	,	-13706	,	-19.398485	,	0
43,50	,	63056	,	-17567	,	-13696	,	-19.12717	,	0
43,50	,	63088	,	-17549	,	-13688	,	-17.597378	,	0
43,50	,	63103	,	-17531	,	-13684	,	-14.244905	,	1
43,50	,	63120	,	-17525	,	-13680	,	-8.9083805	,	4
43,50	,	63152	,	-17512	,	-13685	,	-1.9385471	,	9
43,50	,	63168	,	-17505	,	-13677	,	5.936566	,	15
43,50	,	63200	,	-17493	,	-13665	,	13.884935	,	22
43,50	,	63216	,	-17488	,	-13665	,	21.163486	,	29
43,50	,	63232	,	-17472	,	-13664	,	27.23985	,	36
43,50	,	63263	,	-17474	,	-13663	,	31.826248	,	42
43,50	,	63279	,	-17465	,	-13659	,	34.781925	,	46
43,50	,	63295	,	-17477	,	-13661	,	36.002815	,	47
43,50	,	63327	,	-17476	,	-13665	,	35.386593	,	45
43,50	,	63344	,	-17474	,	-13661	,	32.9634	,	40
43,50	,	63360	,	-17474	,	-13661	,	29.059448	,	34
43,50	,	63392	,	-17476	,	-13664	,	24.199678	,	27
43,50	,	63408	,	-17468	,	-13662	,	18.953741	,	20
43,50	,	63439	,	-17469	,	-13663	,	13.900036	,	13
43,50	,	63455	,	-17484	,	-13668	,	9.437627	,	7
43,50	,	63471	,	-17475	,	-13662	,	5.6359177	,	3
43,50	,	63503	,	-17488	,	-13669	,	2.4188166	,	1
43,50	,	63520	,	-17506	,	-13674	,	-0.38590574	,	0
43,50	,	63536	,	-17493	,	-13666	,	-3.044835	,	0
43,50	,	63567	,	-17516	,	-13679	,	-5.666346	,	0
43,51	,	63583	,	-17515	,	-13678	,	-8.232315	,	0
43,51	,	63615	,	-17526	,	-13686	,	-10.746357	,	0
43,51	,	63631	,	-17525	,	-13687	,	-13.143489	,	0
43,51	,	63648	,	-17526	,	-13682	,	-15.232255	,	0
43,51	,	63680	,	-17541	,	-13696	,	-16.813992	,	0
43,51	,	63696	,	-17546	,	-13677	,	-17.893324	,	0
43,51	,	63712	,	-17560	,	-13694	,	-18.679333	,	0
43,51	,	63743	,	-17558	,	-13693	,	-19.374023	,	0
43,51	,	63759	,	-17567	,	-13697	,	-20.023952	,	0
43,51	,	63775	,	-17568	,	-13694	,	-20.543793	,	0
43,51	,	63807	,	-17580	,	-13703	,	-20.854269	,	0
43,51	,	63823	,	-17590	,	-13704	,	-21.001583	,	0
43,51	,	63855	,	-17588	,	-13709	,	-21.102184	,	0
43,51	,	63872	,	-17603	,	-13708	,	-21.196695	,	0
43,51	,	63887	,	-17594	,	-13711	,	-21.234447	,	0
43,51	,	63919	,	-17593	,	-13717	,	-21.033207	,	0
43,51	,	63935	,	-17583	,	-13690	,	-20.253244	,	0
43,51	,	63951	,	-17540	,	-13687	,	-18.376488	,	0
43,51	,	63983	,	-17527	,	-13680	,	-14.671285	,	1
43,51	,	63999	,	-17520	,	-13682	,	-8.674088	,	4
43,51	,	64031	,	-17502	,	-13679	,	-0.69752693	,	9
43,51	,	64048	,	-17502	,	-13678	,	8.365898	,	16
43,51	,	64063	,	-17487	,	-13669	,	17.438768	,	25
43,51	,	64095	,	-17485	,	-13668	,	25.541256	,	34
43,51	,	64111	,	-17477	,	-13665	,	31.966578	,	42
43,51	,	64127	,	-17469	,	-13664	,	36.327606	,	48
43,51	,	64159	,	-17478	,	-13670	,	38.51022	,	52
43,51	,	64175	,	-17479	,	-13658	,	38.50348	,	53
43,51	,	64191	,	-17486	,	-13663	,	36.35834	,	50
43,51	,	64223	,	-17484	,	-13664	,	32.321926	,	45
43,51	,	64239	,	-17486	,	-13660	,	26.89435	,	38
43,51	,	64271	,	-17477	,	-13661	,	20.781055	,	29
43,51	,	64287	,	-17481	,	-13664	,	14.74917	,	20
43,51	,	64303	,	-17489	,	-13663	,	9.357884	,	12
43,51	,	64335	,	-17493	,	-13669	,	4.7919016	,	6
43,51	,	64351	,	-17489	,	-13662	,	1.0338058	,	2
43,51	,	64367	,	-17487	,	-13665	,	-1.8846321	,	0
43,51	,	64399	,	-17500	,	-13674	,	-3.9369397	,	0
43,51	,	64415	,	-17505	,	-13667	,	-5.307809	,	0
43,51	,	64447	,	-17516	,	-13677	,	-6.364332	,	0
43,51	,	64463	,	-17519	,	-13674	,	-7.4525166	,	0
43,51	,	64479	,	-17529	,	-13686	,	-8.773341	,	0
43,51	,	64511	,	-17539	,	-13679	,	-10.405413	,	0
43,51	,	64527	,	-17533	,	-13682	,	-12.300234	,	0
43,51	,	64543	,	-17551	,	-13685	,	-14.254443	,	0
43,51	,	64575	,	-17553	,	-13691	,	-16.087748	,	0
43,52	,	64591	,	-17561	,	-13692	,	-17.738934	,	0
43,52	,	64607	,	-17557	,	-13697	,	-19.111406	,	0
43,52	,	64639	,	-17560	,	-13697	,	-20.000507	,	0
43,52	,	64655	,	-17573	,	-13690	,	-20.259212	,	0
43,52	,	64687	,	-17582	,	-13698	,	-20.01273	,	0
43,52	,	64703	,	-17587	,	-13706	,	-19.582096	,	0
43,52	,	64719	,	-17596	,	-13709	,	-19.239105	,	0
43,52	,	64751	,	-17595	,	-13704	,	-19.093779	,	0
43,52	,	64767	,	-17584	,	-13706	,	-19.000141	,	0
43,52	,	64783	,	-17579	,	-13705	,	-18.53608	,	0
43,52	,	64815	,	-17568	,	-13694	,	-17.225399	,	0
43,52	,	64831	,	-17557	,	-13689	,	-14.741665	,	1
43,52	,	64863	,	-17551	,	-13691	,	-10.980276	,	3
43,52	,	64879	,	-17529	,	-13686	,	-6.0548134	,	6
43,52	,	64895	,	-17518	,	-13684	,	-0.16729975	,	10
43,52	,	64927	,	-17505	,	-13678	,	6.424169	,	15
43,52	,	64943	,	-17503	,	-13676	,	13.283599	,	21
43,52	,	64959	,	-17498	,	-13671	,	19.778568	,	27
43,52	,	64991	,	-17496	,	-13670	,	25.226679	,	33
43,52	,	65007	,	-17498	,	-13664	,	29.065378	,	38
43,52	,	65023	,	-17498	,	-13667	,	30.941566	,	40
43,52	,	65055	,	-17494	,	-13671	,	30.790934	,	39
43,52	,	65071	,	-17499	,	-13669	,	28.848923	,	36
43,52	,	65103	,	-17492	,	-13666	,	25.5415	,	32
43,52	,	65119	,	-17497	,	-13672	,	21.39198	,	27
43,52	,	65135	,	-17503	,	-13670	,	16.878149	,	21
43,52	,	65167	,	-17499	,	-13668	,	12.332633	,	15
43,52	,	65183	,	-17508	,	-13668	,	8.01284	,	9
43,52	,	65199	,	-17511	,	-13671	,	4.091091	,	4
43,52	,	65231	,	-17509	,	-13671	,	0.64468336	,	1
43,52	,	65247	,	-17514	,	-13675	,	-2.2452774	,	0
43,52	,	65279	,	-17514	,	-13674	,	-4.5073624	,	0
43,52	,	65295	,	-17518	,	-13682	,	-6.135205	,	0
43,52	,	65311	,	-17531	,	-13678	,	-7.235956	,	0
43,52	,	65343	,	-17528	,	-13679	,	-8.046049	,	0
43,52	,	65359	,	-17531	,	-13686	,	-8.750298	,	0
43,52	,	65375	,	-17548	,	-13696	,	-9.433161	,	0
43,52	,	65407	,	-17549	,	-13678	,	-10.240297	,	0
43,52	,	65423	,	-17562	,	-13692	,	-11.325354	,	0
43,52	,	65455	,	-17563	,	-13693	,	-12.716869	,	0
43,52	,	65471	,	-17565	,	-13696	,	-14.2864065	,	0
43,52	,	65487	,	-17568	,	-13696	,	-15.767899	,	0
43,52	,	65518	,	-17588	,	-13696	,	-16.968014	,	0
43,52	,	65535	,	-17577	,	-13699	,	-17.891115	,	0
43,52	,	65551	,	-17594	,	-13706	,	-18.554487	,	0
43,53	,	65583	,	-17590	,	-13706	,	-18.926018	,	0
43,53	,	65599	,	-17583	,	-13699	,	-18.92324	,	0
43,53	,	65615	,	-17589	,	-13706	,	-18.356491	,	0
43,53	,	65647	,	-17568	,	-13682	,	-17.030214	,	0
43,53	,	65663	,	-17557	,	-13686	,	-14.724897	,	1
43,53	,	65694	,	-17536	,	-13684	,	-11.1486635	,	3
43,53	,	65711	,	-17525	,	-13682	,	-6.1238475	,	6
43,53	,	65727	,	-17525	,	-13671	,	0.16177511	,	11
43,53	,	65759	,	-17518	,	-13677	,	7.059316	,	17
43,53	,	65775	,	-17524	,	-13677	,	13.658527	,	23
43,53	,	65791	,	-17519	,	-13673	,	19.092728	,	29
43,53	,	65823	,	-17511	,	-13673	,	22.816586	,	34
43,53	,	65839	,	-17507	,	-13674	,	24.755217	,	37
43,53	,	65870	,	-17516	,	-13684	,	25.097382	,	37
43,53	,	65887	,	-17518	,	-13662	,	24.00126	,	35
43,53	,	65903	,	-17520	,	-13669	,	21.608063	,	32
43,53	,	65935	,	-17517	,	-13660	,	18.203392	,	27
43,53	,	65951	,	-17527	,	-13677	,	14.189342	,	21
43,53	,	65967	,	-17520	,	-13670	,	9.950055	,	15
43,53	,	65998	,	-17522	,	-13677	,	5.8624077	,	9
43,53	,	66014	,	-17539	,	-13674	,	2.2156954	,	4
43,53	,	66030	,	-17531	,	-13677	,	-0.9424858	,	1
43,53	,	66062	,	-17539	,	-13671	,	-3.6391692	,	0
43,53	,	66079	,	-17528	,	-13679	,	-5.7820024	,	0
43,53	,	66111	,	-17544	,	-13685	,	-7.255613	,	0
43,53	,	66127	,	-17551	,	-13669	,	-8.147167	,	0
43,53	,	66143	,	-17558	,	-13684	,	-8.782594	,	0
43,53	,	66175	,	-17565	,	-13683	,	-9.4944315	,	0
43,53	,	66190	,	-17571	,	-13686	,	-10.469189	,	0
43,53	,	66206	,	-17569	,	-13691	,	-11.709589	,	0
43,53	,	66238	,	-17578	,	-13700	,	-13.041106	,	0
43,53	,	66255	,	-17588	,	-13691	,	-14.296091	,	0
43,53	,	66286	,	-17573	,	-13698	,	-15.361134	,	0
43,53	,	66303	,	-17581	,	-13690	,	-15.996184	,	0
43,53	,	66319	,	-17589	,	-13698	,	-15.989974	,	0
43,53	,	66351	,	-17597	,	-13700	,	-15.45886	,	0
43,53	,	66366	,	-17601	,	-13696	,	-14.734406	,	0
43,53	,	66382	,	-17601	,	-13697	,	-14.07715	,	0
43,53	,	66414	,	-17572	,	-13690	,	-13.4065695	,	0
43,53	,	66430	,	-17551	,	-13685	,	-12.121236	,	0
43,53	,	66447	,	-17546	,	-13678	,	-9.446121	,	1
43,53	,	66478	,	-17536	,	-13677	,	-5.0880766	,	3
43,53	,	66495	,	-17532	,	-13671	,	0.5978122	,	7
43,53	,	66526	,	-17525	,	-13665	,	6.899116	,	12
43,53	,	66543	,	-17517	,	-13673	,	13.055657	,	18
43,53	,	66558	,	-17519	,	-13660	,	18.431581	,	24
43,54	,	66590	,	-17515	,	-13662	,	22.532001	,	29
43,54	,	66606	,	-17508	,	-13660	,	25.070587	,	33
43,54	,	66622	,	-17504	,	-13662	,	26.07403	,	35
43,54	,	66655	,	-17511	,	-13672	,	25.750029	,	35
43,54	,	66670	,	-17514	,	-13660	,	24.251867	,	33
43,54	,	66702	,	-17508	,	-13661	,	21.715042	,	29
43,54	,	66718	,	-17505	,	-13659	,	18.462376	,	24
43,54	,	66734	,	-17512	,	-13663	,	14.940139	,	18
43,54	,	66766	,	-17514	,	-13661	,	11.458846	,	12
43,54	,	66782	,	-17508	,	-13659	,	8.17942	,	7
43,54	,	66798	,	-17515	,	-13661	,	5.2506614	,	3
43,54	,	66831	,	-17514	,	-13671	,	2.7760563	,	1
43,54	,	66846	,	-17527	,	-13675	,	0.7159655	,	0
43,54	,	66862	,	-17529	,	-13667	,	-1.1115868	,	0
43,54	,	66894	,	-17546	,	-13675	,	-2.9600759	,	0
43,54	,	66910	,	-17534	,	-13675	,	-4.9930882	,	0
43,54	,	66942	,	-17548	,	-13674	,	-7.129426	,	0
43,54	,	66958	,	-17557	,	-13679	,	-9.207965	,	0
43,54	,	66974	,	-17556	,	-13678	,	-11.183881	,	0
43,54	,	67006	,	-17565	,	-13681	,	-13.00399	,	0
43,54	,	67022	,	-17567	,	-13679	,	-14.559399	,	0
43,54	,	67038	,	-17559	,	-13681	,	-15.706003	,	0
43,54	,	67070	,	-17570	,	-13683	,	-16.244818	,	0
43,54	,	67086	,	-17575	,	-13686	,	-16.124008	,	0
43,54	,	67118	,	-17589	,	-13679	,	-15.59515	,	0
43,54	,	67134	,	-17596	,	-13688	,	-15.074987	,	0
43,54	,	67150	,	-17590	,	-13686	,	-14.8527775	,	0
43,54	,	67182	,	-17576	,	-13681	,	-14.799238	,	0
43,54	,	67198	,	-17557	,	-13675	,	-14.329164	,	0
43,54	,	67214	,	-17540	,	-13674	,	-12.679124	,	0
43,54	,	67246	,	-17531	,	-13663	,	-9.308836	,	1
43,54	,	67262	,	-17519	,	-13665	,	-4.1834445	,	4
43,54	,	67278	,	-17513	,	-13659	,	2.2454371	,	9
43,54	,	67310	,	-17503	,	-13655	,	9.258532	,	15
43,54	,	67326	,	-17496	,	-13660	,	16.09953	,	22
43,54	,	67358	,	-17486	,	-13638	,	22.1471	,	28
43,54	,	67374	,	-17475	,	-13642	,	27.023548	,	34
43,54	,	67390	,	-17465	,	-13644	,	30.620525	,	38
43,54	,	67422	,	-17473	,	-13644	,	32.93296	,	41
43,54	,	67438	,	-17472	,	-13646	,	33.83988	,	42
43,54	,	67454	,	-17472	,	-13645	,	33.183952	,	39
43,54	,	67486	,	-17477	,	-13648	,	30.977945	,	34
43,54	,	67502	,	-17476	,	-13642	,	27.424091	,	28
43,54	,	67534	,	-17473	,	-13647	,	22.899628	,	21
43,54	,	67550	,	-17472	,	-13644	,	17.937351	,	15
43,54	,	67566	,	-17480	,	-13655	,	13.04923	,	9
43,55	,	67598	,	-17485	,	-13639	,	8.528202	,	5
43,55	,	67614	,	-17492	,	-13649	,	4.4358015	,	2
43,55	,	67630	,	-17489	,	-13648	,	0.7599163	,	0
43,55	,	67662	,	-17493	,	-13648	,	-2.4358969	,	0
43,55	,	67678	,	-17499	,	-13652	,	-5.0538425	,	0
43,55	,	67694	,	-17500	,	-13657	,	-7.0810733	,	0
43,55	,	67726	,	-17510	,	-13661	,	-8.598484	,	0
43,55	,	67742	,	-17516	,	-13664	,	-9.768866	,	0
43,55	,	67774	,	-17523	,	-13666	,	-10.800913	,	0
43,55	,	67790	,	-17524	,	-13670	,	-11.830568	,	0
43,55	,	67806	,	-17539	,	-13681	,	-12.897497	,	0
43,55	,	67838	,	-17534	,	-13665	,	-14.006014	,	0
43,55	,	67854	,	-17544	,	-13671	,	-15.084723	,	0
43,55	,	67870	,	-17551	,	-13679	,	-16.02687	,	0
43,55	,	67902	,	-17558	,	-13679	,	-16.828072	,	0
43,55	,	67918	,	-17561	,	-13673	,	-17.533722	,	0
43,55	,	67950	,	-17568	,	-13682	,	-18.131783	,	0
43,55	,	67966	,	-17555	,	-13674	,	-18.49828	,	0
43,55	,	67982	,	-17544	,	-13675	,	-18.29266	,	0
43,55	,	68014	,	-17518	,	-13662	,	-16.950846	,	0
43,55	,	68030	,	-17508	,	-13657	,	-13.901316	,	1
43,55	,	68046	,	-17489	,	-13653	,	-8.879937	,	4
43,55	,	68078	,	-17479	,	-13649	,	-2.084455	,	9
43,55	,	68094	,	-17466	,	-13649	,	5.9052033	,	15
43,55	,	68110	,	-17454	,	-13641	,	14.31326	,	22
43,55	,	68142	,	-17447	,	-13637	,	22.357414	,	30
43,55	,	68158	,	-17441	,	-13639	,	29.340513	,	38
43,55	,	68190	,	-17441	,	-13634	,	34.675724	,	44
43,55	,	68206	,	-17440	,	-13638	,	37.934242	,	49
43,55	,	68222	,	-17444	,	-13634	,	38.89826	,	51
43,55	,	68254	,	-17440	,	-13634	,	37.608803	,	48
43,55	,	68270	,	-17446	,	-13633	,	34.372875	,	43
43,55	,	68286	,	-17448	,	-13631	,	29.659857	,	37
43,55	,	68318	,	-17444	,	-13639	,	24.015825	,	30
43,55	,	68334	,	-17446	,	-13630	,	18.05455	,	22
43,55	,	68365	,	-17440	,	-13638	,	12.380655	,	14
43,55	,	68382	,	-17453	,	-13630	,	7.4360113	,	8
43,55	,	68398	,	-17463	,	-13637	,	3.3216324	,	3
43,55	,	68430	,	-17469	,	-13636	,	-0.1895442	,	0
43,55	,	68446	,	-17464	,	-13643	,	-3.322224	,	0
43,55	,	68462	,	-17477	,	-13647	,	-6.0884995	,	0
43,55	,	68494	,	-17481	,	-13644	,	-8.454942	,	0
43,55	,	68510	,	-17495	,	-13646	,	-10.51192	,	0
43,55	,	68526	,	-17489	,	-13653	,	-12.374554	,	0
43,55	,	68558	,	-17492	,	-13662	,	-13.984695	,	0
43,55	,	68574	,	-17501	,	-13654	,	-15.166427	,	0
43,56	,	68606	,	-17516	,	-13659	,	-15.921963	,	0
43,56	,	68622	,	-17522	,	-13660	,	-16.50533	,	0
43,56	,	68638	,	-17524	,	-13661	,	-17.15874	,	0
43,56	,	68670	,	-17527	,	-13662	,	-17.891672	,	0
43,56	,	68686	,	-17542	,	-13663	,	-18.590387	,	0
43,56	,	68702	,	-17544	,	-13673	,	-19.22853	,	0
43,56	,	68733	,	-17541	,	-13671	,	-19.78003	,	0
43,56	,	68750	,	-17540	,	-13673	,	-20.04163	,	0
43,56	,	68782	,	-17531	,	-13670	,	-19.692951	,	0
43,56	,	68798	,	-17518	,	-13670	,	-18.396679	,	0
43,56	,	68814	,	-17493	,	-13648	,	-15.780263	,	1
43,56	,	68846	,	-17472	,	-13650	,	-11.44815	,	3
43,56	,	68862	,	-17472	,	-13648	,	-5.2599897	,	7
43,56	,	68878	,	-17456	,	-13642	,	2.3527308	,	13
43,56	,	68910	,	-17453	,	-13637	,	10.537156	,	20
43,56	,	68926	,	-17438	,	-13637	,	18.412865	,	28
43,56	,	68958	,	-17435	,	-13628	,	25.28571	,	35
43,56	,	68974	,	-17437	,	-13634	,	30.630367	,	41
43,56	,	68990	,	-17432	,	-13623	,	34.030216	,	46
43,56	,	69022	,	-17423	,	-13631	,	35.334908	,	48
43,56	,	69038	,	-17435	,	-13638	,	34.7152	,	47
43,56	,	69054	,	-17426	,	-13624	,	32.445286	,	43
43,56	,	69085	,	-17437	,	-13629	,	28.836702	,	37
43,56	,	69101	,	-17435	,	-13632	,	24.26539	,	30
43,56	,	69117	,	-17436	,	-13626	,	19.145197	,	22
43,56	,	69150	,	-17437	,	-13624	,	13.929602	,	15
43,56	,	69166	,	-17440	,	-13636	,	9.032052	,	9
43,56	,	69198	,	-17448	,	-13628	,	4.6936626	,	4
43,56	,	69214	,	-17450	,	-13629	,	0.95804596	,	1
43,56	,	69230	,	-17450	,	-13628	,	-2.1925397	,	0
43,56	,	69262	,	-17450	,	-13635	,	-4.704603	,	0
43,56	,	69278	,	-17458	,	-13649	,	-6.5251975	,	0
43,56	,	69293	,	-17466	,	-13633	,	-7.761247	,	0
43,56	,	69325	,	-17476	,	-13645	,	-8.697691	,	0
43,56	,	69341	,	-17489	,	-13650	,	-9.69177	,	0
43,56	,	69373	,	-17499	,	-13650	,	-11.063017	,	0
43,56	,	69389	,	-17491	,	-13651	,	-12.902596	,	0
43,56	,	69405	,	-17503	,	-13655	,	-14.951603	,	0
43,56	,	69438	,	-17508	,	-13655	,	-16.84929	,	0
43,56	,	69454	,	-17506	,	-13660	,	-18.361975	,	0
43,56	,	69470	,	-17517	,	-13668	,	-19.340218	,	0
43,56	,	69502	,	-17524	,	-13664	,	-19.77317	,	0
43,56	,	69517	,	-17525	,	-13668	,	-19.803862	,	0
43,56	,	69533	,	-17528	,	-13656	,	-19.542192	,	0
43,56	,	69565	,	-17494	,	-13652	,	-18.829361	,	0
43,57	,	69581	,	-17495	,	-13648	,	-17.156084	,	0
43,57	,	69613	,	-17473	,	-13644	,	-14.014624	,	1
43,57	,	69629	,	-17468	,	-13641	,	-9.268847	,	4
43,57	,	69645	,	-17458	,	-13639	,	-3.1864424	,	8
43,57	,	69677	,	-17460	,	-13638	,	3.606842	,	14
43,57	,	69694	,	-17445	,	-13636	,	10.312721	,	20
43,57	,	69710	,	-17452	,	-13638	,	16.231987	,	26
43,57	,	69741	,	-17442	,	-13639	,	20.844215	,	31
43,57	,	69757	,	-17437	,	-13635	,	23.870953	,	35
43,57	,	69789	,	-17435	,	-13625	,	25.342289	,	38
43,57	,	69805	,	-17447	,	-13636	,	25.396288	,	38
43,57	,	69822	,	-17449	,	-13633	,	24.069656	,	35
43,57	,	69853	,	-17448	,	-13634	,	21.426083	,	31
43,57	,	69869	,	-17449	,	-13632	,	17.761166	,	25
43,57	,	69885	,	-17453	,	-13632	,	13.536446	,	19
43,57	,	69917	,	-17457	,	-13629	,	9.172277	,	13
43,57	,	69933	,	-17451	,	-13630	,	5.004282	,	8
43,57	,	69949	,	-17456	,	-13631	,	1.3457646	,	4
43,57	,	69981	,	-17462	,	-13636	,	-1.6000385	,	1
43,57	,	69997	,	-17463	,	-13640	,	-3.8399425	,	0
43,57	,	70029	,	-17466	,	-13644	,	-5.486125	,	0
43,57	,	70045	,	-17481	,	-13642	,	-6.702852	,	0
43,57	,	70061	,	-17487	,	-13642	,	-7.7745004	,	0
43,57	,	70093	,	-17492	,	-13645	,	-8.991264	,	0
43,57	,	70109	,	-17504	,	-13649	,	-10.488757	,	0
43,57	,	70125	,	-17509	,	-13646	,	-12.280093	,	0
43,57	,	70157	,	-17504	,	-13649	,	-14.235693	,	0
43,57	,	70173	,	-17511	,	-13652	,	-16.033958	,	0
43,57	,	70205	,	-17518	,	-13652	,	-17.369904	,	0
43,57	,	70221	,	-17527	,	-13658	,	-18.185452	,	0
43,57	,	70237	,	-17521	,	-13663	,	-18.568285	,	0
43,57	,	70269	,	-17539	,	-13667	,	-18.585392	,	0
43,57	,	70285	,	-17532	,	-13659	,	-18.323502	,	0
43,57	,	70301	,	-17516	,	-13654	,	-17.748953	,	0
43,57	,	70333	,	-17495	,	-13649	,	-16.442656	,	0
43,57	,	70349	,	-17499	,	-13644	,	-13.860653	,	1
43,57	,	70365	,	-17479	,	-13643	,	-9.832007	,	3
43,57	,	70397	,	-17471	,	-13638	,	-4.565944	,	7
43,57	,	70413	,	-17460	,	-13638	,	1.5686636	,	12
43,57	,	70445	,	-17451	,	-13635	,	8.095746	,	18
43,57	,	70461	,	-17459	,	-13635	,	14.411005	,	24
43,57	,	70477	,	-17448	,	-13627	,	19.81544	,	30
43,57	,	70509	,	-17446	,	-13642	,	23.763968	,	35
43,57	,	70525	,	-17454	,	-13625	,	26.007738	,	38
43,57	,	70541	,	-17446	,	-13632	,	26.476246	,	39
43,57	,	70573	,	-17447	,	-13634	,	25.314373	,	37
43,58	,	70589	,	-17447	,	-13628	,	22.898819	,	33
43,58	,	70621	,	-17455	,	-13636	,	19.633091	,	28
43,58	,	70637	,	-17450	,	-13632	,	15.845249	,	22
43,58	,	70653	,	-17458	,	-13631	,	11.840846	,	16
43,58	,	70685	,	-17457	,	-13626	,	7.9015684	,	10
43,58	,	70701	,	-17462	,	-13635	,	4.244887	,	5
43,58	,	70717	,	-17461	,	-13633	,	1.0271726	,	2
43,58	,	70749	,	-17468	,	-13644	,	-1.6638741	,	0
43,58	,	70765	,	-17473	,	-13625	,	-3.8515282	,	0
43,58	,	70781	,	-17485	,	-13638	,	-5.6926694	,	0
43,58	,	70813	,	-17506	,	-13647	,	-7.497043	,	0
43,58	,	70829	,	-17491	,	-13645	,	-9.561463	,	0
43,58	,	70861	,	-17504	,	-13651	,	-11.828719	,	0
43,58	,	70877	,	-17502	,	-13648	,	-13.95411	,	0
43,58	,	70893	,	-17513	,	-13653	,	-15.663213	,	0
43,58	,	70925	,	-17521	,	-13654	,	-16.895182	,	0
43,58	,	70941	,	-17514	,	-13659	,	-17.70289	,	0
43,58	,	70957	,	-17530	,	-13661	,	-18.100359	,	0
43,58	,	70989	,	-17527	,	-13664	,	-18.119373	,	0
43,58	,	71005	,	-17538	,	-13658	,	-17.870697	,	0
43,58	,	71037	,	-17535	,	-13667	,	-17.454483	,	0
43,58	,	71053	,	-17532	,	-13664	,	-16.86304	,	0
43,58	,	71069	,	-17515	,	-13658	,	-15.884322	,	0
43,58	,	71101	,	-17501	,	-13654	,	-14.1059	,	0
43,58	,	71117	,	-17488	,	-13646	,	-11.102622	,	1
43,58	,	71133	,	-17477	,	-13647	,	-6.690234	,	4
43,58	,	71165	,	-17461	,	-13637	,	-1.0080442	,	8
43,58	,	71181	,	-17465	,	-13635	,	5.5146694	,	13
43,58	,	71213	,	-17453	,	-13631	,	12.182449	,	19
43,58	,	71229	,	-17439	,	-13641	,	18.295195	,	25
43,58	,	71245	,	-17451	,	-13621	,	23.367682	,	31
43,58	,	71277	,	-17435	,	-13623	,	27.02498	,	36
43,58	,	71293	,	-17430	,	-13615	,	29.093252	,	39
43,58	,	71309	,	-17437	,	-13626	,	29.673836	,	40
43,58	,	71341	,	-17432	,	-13627	,	28.903412	,	37
43,58	,	71357	,	-17438	,	-13624	,	26.903805	,	33
43,58	,	71373	,	-17441	,	-13623	,	23.85745	,	28
43,58	,	71405	,	-17443	,	-13628	,	19.996876	,	22
43,58	,	71421	,	-17446	,	-13621	,	15.614395	,	16
43,58	,	71453	,	-17432	,	-13623	,	11.1126795	,	10
43,58	,	71469	,	-17445	,	-13624	,	6.977153	,	5
43,58	,	71485	,	-17442	,	-13624	,	3.535902	,	2
43,58	,	71517	,	-17441	,	-13626	,	0.86773014	,	0
43,58	,	71533	,	-17455	,	-13631	,	-1.0912781	,	0
43,58	,	71549	,	-17463	,	-13628	,	-2.596003	,	0
43,59	,	71581	,	-17475	,	-13631	,	-4.062387	,	0
43,59	,	71597	,	-17480	,	-13638	,	-5.8465023	,	0
43,59	,	71629	,	-17481	,	-13637	,	-8.051947	,	0
43,59	,	71645	,	-17488	,	-13635	,	-10.496304	,	0
43,59	,	71661	,	-17494	,	-13644	,	-12.891409	,	0
43,59	,	71693	,	-17496	,	-13642	,	-15.005579	,	0
43,59	,	71709	,	-17507	,	-13654	,	-16.6961	,	0
43,59	,	71725	,	-17511	,	-13646	,	-17.94154	,	0
43,59	,	71757	,	-17519	,	-13644	,	-18.817142	,	0
43,59	,	71773	,	-17524	,	-13654	,	-19.415512	,	0
43,59	,	71789	,	-17534	,	-13654	,	-19.831135	,	0
43,59	,	71821	,	-17533	,	-13660	,	-20.134697	,	0
43,59	,	71837	,	-17544	,	-13658	,	-20.32526	,	0
43,59	,	71868	,	-17544	,	-13663	,	-20.372507	,	0
43,59	,	71885	,	-17534	,	-13657	,	-20.171068	,	0
43,59	,	71901	,	-17522	,	-13656	,	-19.390265	,	0
43,59	,	71933	,	-17505	,	-13650	,	-17.536715	,	0
43,59	,	71949	,	-17486	,	-13645	,	-14.16081	,	1
43,59	,	71965	,	-17478	,	-13645	,	-9.058714	,	4
43,59	,	71997	,	-17470	,	-13635	,	-2.467906	,	9
43,59	,	72012	,	-17444	,	-13629	,	5.0445814	,	15
43,59	,	72044	,	-17446	,	-13624	,	12.880145	,	22
43,59	,	72061	,	-17431	,	-13621	,	20.421692	,	29
43,59	,	72077	,	-17437	,	-13616	,	26.98934	,	36
43,59	,	72109	,	-17422	,	-13623	,	31.994923	,	42
43,59	,	72125	,	-17425	,	-13616	,	35.111076	,	47
43,59	,	72141	,	-17429	,	-13614	,	36.238853	,	49
43,59	,	72173	,	-17422	,	-13617	,	35.409466	,	47
43,59	,	72188	,	-17417	,	-13618	,	32.89743	,	42
43,59	,	72204	,	-17429	,	-13619	,	29.186277	,	36
43,59	,	72236	,	-17437	,	-13619	,	24.644947	,	29
43,59	,	72252	,	-17431	,	-13626	,	19.50179	,	22
43,59	,	72285	,	-17438	,	-13623	,	14.090622	,	15
43,59	,	72301	,	-17433	,	-13622	,	8.850296	,	9
43,59	,	72317	,	-17439	,	-13628	,	4.169071	,	4
43,59	,	72348	,	-17452	,	-13623	,	0.23380566	,	1
43,59	,	72364	,	-17460	,	-13628	,	-3.0767765	,	0
43,59	,	72381	,	-17471	,	-13623	,	-6.0592346	,	0
43,59	,	72413	,	-17467	,	-13631	,	-8.907843	,	0
43,59	,	72429	,	-17471	,	-13633	,	-11.543749	,	0
43,59	,	72460	,	-17476	,	-13646	,	-13.725393	,	0
43,59	,	72476	,	-17476	,	-13628	,	-15.27611	,	0
43,59	,	72492	,	-17500	,	-13643	,	-16.22583	,	0
43,59	,	72524	,	-17499	,	-13642	,	-16.85588	,	0
43,59	,	72540	,	-17500	,	-13641	,	-17.431469	,	0
43,59	,	72556	,	-17504	,	-13644	,	-17.931932	,	0
44,0	,	72589	,	-17515	,	-13655	,	-18.237118	,	0
44,0	,	72604	,	-17520	,	-13651	,	-18.366547	,	0
44,0	,	72621	,	-17524	,	-13651	,	-18.413214	,	0
44,0	,	72652	,	-17543	,	-13662	,	-18.477413	,	0
44,0	,	72668	,	-17535	,	-13660	,	-18.680912	,	0
44,0	,	72700	,	-17538	,	-13674	,	-18.985798	,	0
44,0	,	72717	,	-17547	,	-13658	,	-19.168758	,	0
44,0	,	72733	,	-17536	,	-13653	,	-19.034237	,	0
44,0	,	72764	,	-17518	,	-13650	,	-18.304474	,	0
44,0	,	72780	,	-17501	,	-13644	,	-16.46939	,	0
44,0	,	72796	,	-17493	,	-13643	,	-13.062728	,	1
44,0	,	72828	,	-17474	,	-13638	,	-7.9775906	,	4
44,0	,	72844	,	-17475	,	-13628	,	-1.5166187	,	9
44,0	,	72876	,	-17464	,	-13631	,	5.6708207	,	15
44,0	,	72893	,	-17452	,	-13626	,	12.810298	,	22
44,0	,	72909	,	-17441	,	-13623	,	19.309488	,	29
44,0	,	72940	,	-17439	,	-13622	,	24.792616	,	35
44,0	,	72956	,	-17443	,	-13603	,	28.915138	,	40
44,0	,	72972	,	-17437	,	-13615	,	31.332638	,	44
44,0	,	73004	,	-17430	,	-13620	,	31.932194	,	45
44,0	,	73020	,	-17444	,	-13616	,	30.88844	,	42
44,0	,	73036	,	-17436	,	-13619	,	28.438147	,	37
44,0	,	73068	,	-17440	,	-13615	,	24.862267	,	31
44,0	,	73084	,	-17438	,	-13618	,	20.563782	,	24
44,0	,	73116	,	-17447	,	-13619	,	15.948665	,	17
44,0	,	73132	,	-17451	,	-13626	,	11.296164	,	11
44,0	,	73149	,	-17439	,	-13618	,	6.840081	,	6
44,0	,	73180	,	-17457	,	-13625	,	2.8610444	,	2
44,0	,	73196	,	-17450	,	-13613	,	-0.46778917	,	0
44,0	,	73212	,	-17463	,	-13623	,	-3.1465003	,	0
44,0	,	73244	,	-17467	,	-13623	,	-5.2816887	,	0
44,0	,	73260	,	-17464	,	-13627	,	-7.020479	,	0
44,0	,	73292	,	-17473	,	-13625	,	-8.423427	,	0
44,0	,	73308	,	-17490	,	-13620	,	-9.574198	,	0
44,0	,	73324	,	-17490	,	-13623	,	-10.713386	,	0
44,0	,	73356	,	-17491	,	-13633	,	-11.993559	,	0
44,0	,	73372	,	-17500	,	-13627	,	-13.322113	,	0
44,0	,	73388	,	-17496	,	-13625	,	-14.514877	,	0
44,0	,	73420	,	-17504	,	-13626	,	-15.398047	,	0
44,0	,	73436	,	-17515	,	-13625	,	-15.908061	,	0
44,0	,	73468	,	-17513	,	-13634	,	-16.148214	,	0
44,0	,	73484	,	-17527	,	-13637	,	-16.249783	,	0
44,0	,	73500	,	-17528	,	-13640	,	-16.319252	,	0
44,0	,	73532	,	-17536	,	-13638	,	-16.44754	,	0
44,0	,	73548	,	-17540	,	-13641	,	-16.65725	,	0
44,0	,	73564	,	-17547	,	-13641	,	-16.92192	,	0
44,1	,	73596	,	-17541	,	-13640	,	-17.161201	,	0
44,1	,	73612	,	-17520	,	-13630	,	-17.074749	,	0
44,1	,	73628	,	-17507	,	-13621	,	-16.068895	,	0
44,1	,	73660	,	-17490	,	-13624	,	-13.53492	,	1
44,1	,	73676	,	-17487	,	-13623	,	-9.230019	,	3
44,1	,	73708	,	-17482	,	-13614	,	-3.4562926	,	7
44,1	,	73724	,	-17465	,	-13604	,	3.1136975	,	12
44,1	,	73740	,	-17452	,	-13607	,	9.852745	,	18
44,1	,	73772	,	-17455	,	-13606	,	16.28488	,	24
44,1	,	73788	,	-17443	,	-13598	,	21.91279	,	30
44,1	,	73804	,	-17445	,	-13603	,	26.272345	,	35
44,1	,	73836	,	-17445	,	-13597	,	29.046383	,	39
44,1	,	73852	,	-17440	,	-13603	,	30.080975	,	40
44,1	,	73884	,	-17446	,	-13599	,	29.424967	,	39
44,1	,	73900	,	-17451	,	-13600	,	27.254112	,	35
44,1	,	73916	,	-17450	,	-13605	,	23.806084	,	30
44,1	,	73948	,	-17445	,	-13600	,	19.481659	,	24
44,1	,	73964	,	-17442	,	-13606	,	14.862177	,	18
44,1	,	73980	,	-17450	,	-13606	,	10.500787	,	12
44,1	,	74012	,	-17457	,	-13600	,	6.666053	,	7
44,1	,	74028	,	-17460	,	-13602	,	3.32966	,	3
44,1	,	74060	,	-17469	,	-13602	,	0.35753107	,	1
44,1	,	74076	,	-17472	,	-13610	,	-2.3756213	,	0
44,1	,	74092	,	-17464	,	-13609	,	-4.8767724	,	0
44,1	,	74124	,	-17468	,	-13610	,	-6.943752	,	0
44,1	,	74140	,	-17478	,	-13613	,	-8.386475	,	0
44,1	,	74156	,	-17484	,	-13624	,	-9.292392	,	0
44,1	,	74188	,	-17492	,	-13606	,	-9.941364	,	0
44,1	,	74204	,	-17505	,	-13620	,	-10.634391	,	0
44,1	,	74220	,	-17511	,	-13621	,	-11.635458	,	0
44,1	,	74252	,	-17511	,	-13619	,	-13.041239	,	0
44,1	,	74268	,	-17519	,	-13623	,	-14.689957	,	0
44,1	,	74300	,	-17520	,	-13627	,	-16.294325	,	0
44,1	,	74316	,	-17527	,	-13634	,	-17.604734	,	0
44,1	,	74332	,	-17533	,	-13630	,	-18.493265	,	0
44,1	,	74364	,	-17533	,	-13631	,	-18.946672	,	0
44,1	,	74380	,	-17540	,	-13636	,	-18.97723	,	0
44,1	,	74396	,	-17545	,	-13635	,	-18.632427	,	0
44,1	,	74428	,	-17524	,	-13628	,	-17.923641	,	0
44,1	,	74444	,	-17505	,	-13622	,	-16.543127	,	0
44,1	,	74476	,	-17492	,	-13610	,	-13.909972	,	1
44,1	,	74492	,	-17492	,	-13613	,	-9.691319	,	3
44,1	,	74508	,	-17485	,	-13614	,	-4.1529083	,	7
44,1	,	74540	,	-17477	,	-13615	,	2.0374346	,	12
44,1	,	74556	,	-17471	,	-13614	,	8.190054	,	18
44,1	,	74572	,	-17469	,	-13607	,	13.735783	,	24
44,2	,	74604	,	-17471	,	-13608	,	18.192102	,	29
44,2	,	74620	,	-17463	,	-13611	,	21.207623	,	33
44,2	,	74636	,	-17474	,	-13609	,	22.638226	,	36
44,2	,	74668	,	-17480	,	-13610	,	22.442263	,	36
44,2	,	74684	,	-17482	,	-13611	,	20.624485	,	34
44,2	,	74716	,	-17475	,	-13611	,	17.429043	,	30
44,2	,	74732	,	-17484	,	-13609	,	13.382355	,	25
44,2	,	74748	,	-17481	,	-13611	,	9.047811	,	19
44,2	,	74780	,	-17487	,	-13616	,	4.8630304	,	13
44,2	,	74796	,	-17485	,	-13612	,	1.1409879	,	8
44,2	,	74812	,	-17488	,	-13618	,	-1.9136004	,	4
44,2	,	74844	,	-17486	,	-13619	,	-4.1852665	,	1
44,2	,	74860	,	-17502	,	-13619	,	-5.7036953	,	0
44,2	,	74891	,	-17501	,	-13628	,	-6.713221	,	0
44,2	,	74908	,	-17498	,	-13616	,	-7.471809	,	0
44,2	,	74924	,	-17514	,	-13624	,	-8.079556	,	0
44,2	,	74956	,	-17520	,	-13630	,	-8.673026	,	0
44,2	,	74972	,	-17525	,	-13633	,	-9.47229	,	0
44,2	,	74988	,	-17531	,	-13633	,	-10.575452	,	0
44,2	,	75020	,	-17536	,	-13640	,	-11.926971	,	0
44,2	,	75036	,	-17536	,	-13638	,	-13.371126	,	0
44,2	,	75052	,	-17548	,	-13637	,	-14.706522	,	0
44,2	,	75084	,	-17546	,	-13645	,	-15.7931	,	0
44,2	,	75099	,	-17552	,	-13643	,	-16.549618	,	0
44,2	,	75131	,	-17558	,	-13658	,	-16.930956	,	0
44,2	,	75147	,	-17557	,	-13636	,	-16.959103	,	0
44,2	,	75164	,	-17557	,	-13649	,	-16.64493	,	0
44,2	,	75196	,	-17549	,	-13637	,	-15.904852	,	0
44,2	,	75212	,	-17534	,	-13638	,	-14.532198	,	0
44,2	,	75228	,	-17522	,	-13638	,	-12.209938	,	1
44,2	,	75260	,	-17505	,	-13628	,	-8.657469	,	3
44,2	,	75276	,	-17501	,	-13625	,	-3.828063	,	6
44,2	,	75308	,	-17502	,	-13622	,	1.9293399	,	10
44,2	,	75324	,	-17489	,	-13626	,	7.9324245	,	15
44,2	,	75340	,	-17481	,	-13621	,	13.536674	,	21
44,2	,	75371	,	-17478	,	-13626	,	18.346367	,	26
44,2	,	75388	,	-17476	,	-13603	,	22.088999	,	30
44,2	,	75403	,	-17479	,	-13607	,	24.510416	,	33
44,2	,	75435	,	-17480	,	-13611	,	25.413366	,	34
44,2	,	75451	,	-17481	,	-13617	,	24.749098	,	32
44,2	,	75483	,	-17478	,	-13614	,	22.687836	,	29
44,2	,	75500	,	-17484	,	-13611	,	19.581863	,	25
44,2	,	75516	,	-17484	,	-13611	,	15.835639	,	20
44,2	,	75547	,	-17479	,	-13610	,	11.8536	,	14
44,2	,	75563	,	-17475	,	-13613	,	8.076054	,	9
44,3	,	75579	,	-17476	,	-13612	,	4.9063945	,	5
44,3	,	75611	,	-17479	,	-13627	,	2.5492382	,	2
44,3	,	75627	,	-17491	,	-13606	,	0.9145658	,	0
44,3	,	75643	,	-17488	,	-13620	,	-0.3031528	,	0
44,3	,	75675	,	-17503	,	-13618	,	-1.4241593	,	0
44,3	,	75692	,	-17498	,	-13623	,	-2.668652	,	0
44,3	,	75723	,	-17513	,	-13626	,	-4.1371064	,	0
44,3	,	75739	,	-17504	,	-13622	,	-5.7994165	,	0
44,3	,	75755	,	-17514	,	-13630	,	-7.4908824	,	0
44,3	,	75788	,	-17523	,	-13630	,	-9.046347	,	0
44,3	,	75803	,	-17531	,	-13632	,	-10.482165	,	0
44,3	,	75819	,	-17526	,	-13630	,	-11.868196	,	0
44,3	,	75851	,	-17538	,	-13632	,	-13.131956	,	0
44,3	,	75868	,	-17541	,	-13635	,	-14.175413	,	0
44,3	,	75899	,	-17551	,	-13640	,	-15.019203	,	0
44,3	,	75916	,	-17546	,	-13640	,	-15.705407	,	0
44,3	,	75931	,	-17558	,	-13648	,	-16.189552	,	0
44,3	,	75963	,	-17563	,	-13645	,	-16.449924	,	0
44,3	,	75979	,	-17563	,	-13644	,	-16.549088	,	0
44,3	,	75995	,	-17555	,	-13645	,	-16.44142	,	0
44,3	,	76027	,	-17529	,	-13639	,	-15.769519	,	0
44,3	,	76043	,	-17524	,	-13632	,	-13.949725	,	0
44,3	,	76059	,	-17497	,	-13623	,	-10.516511	,	1
44,3	,	76091	,	-17498	,	-13618	,	-5.372369	,	4
44,3	,	76107	,	-17492	,	-13620	,	1.0958757	,	9
44,3	,	76139	,	-17479	,	-13607	,	8.113876	,	15
44,3	,	76155	,	-17468	,	-13609	,	14.929054	,	22
44,3	,	76171	,	-17460	,	-13608	,	21.042648	,	28
44,3	,	76203	,	-17449	,	-13600	,	26.144	,	34
44,3	,	76219	,	-17448	,	-13598	,	30.028278	,	39
44,3	,	76235	,	-17448	,	-13600	,	32.51368	,	42
44,3	,	76267	,	-17454	,	-13605	,	33.395893	,	43
44,3	,	76283	,	-17452	,	-13601	,	32.538815	,	40
44,3	,	76315	,	-17449	,	-13604	,	30.052893	,	35
44,3	,	76332	,	-17440	,	-13605	,	26.387234	,	29
44,3	,	76347	,	-17455	,	-13608	,	22.132038	,	22
44,3	,	76379	,	-17454	,	-13595	,	17.679228	,	16
44,3	,	76395	,	-17460	,	-13604	,	13.197958	,	10
44,3	,	76411	,	-17464	,	-13604	,	8.813462	,	5
44,3	,	76443	,	-17469	,	-13603	,	4.63826	,	2
44,3	,	76459	,	-17475	,	-13609	,	0.7503872	,	0
44,3	,	76475	,	-17474	,	-13609	,	-2.769949	,	0
44,3	,	76507	,	-17478	,	-13614	,	-5.7939444	,	0
44,3	,	76523	,	-17485	,	-13615	,	-8.21221	,	0
44,3	,	76555	,	-17494	,	-13615	,	-10.066976	,	0
44,3	,	76571	,	-17496	,	-13618	,	-11.518681	,	0
44,4	,	76587	,	-17507	,	-13627	,	-12.722225	,	0
