Data recorded on Mon Jul 24 11-23-04 CAT 2017
Time: 11:24:47
Time		Millis		IR PPG		Red PPG		Filtered		SSF
24,56	,	132108	,	-26207	,	-27416	,	25.297276	,	61
24,56	,	132124	,	-26225	,	-27420	,	20.785336	,	57
24,56	,	132140	,	-26221	,	-27393	,	15.105399	,	50
24,56	,	132171	,	-26231	,	-27419	,	8.879411	,	40
24,56	,	132188	,	-26236	,	-27425	,	2.6758127	,	29
24,56	,	132203	,	-26245	,	-27428	,	-3.0930915	,	18
24,56	,	132236	,	-26255	,	-27425	,	-8.208134	,	9
24,56	,	132252	,	-26257	,	-27431	,	-12.575731	,	3
24,56	,	132268	,	-26279	,	-27445	,	-16.19298	,	0
24,56	,	132300	,	-26282	,	-27452	,	-19.194378	,	0
24,56	,	132316	,	-26300	,	-27445	,	-21.787733	,	0
24,56	,	132348	,	-26300	,	-27453	,	-24.102741	,	0
24,56	,	132364	,	-26317	,	-27482	,	-26.152828	,	0
24,56	,	132380	,	-26339	,	-27455	,	-27.986319	,	0
24,56	,	132412	,	-26362	,	-27484	,	-29.871601	,	0
24,56	,	132428	,	-26367	,	-27479	,	-32.12979	,	0
24,56	,	132444	,	-26369	,	-27491	,	-34.724854	,	0
24,56	,	132475	,	-26351	,	-27477	,	-37.0605	,	0
24,56	,	132491	,	-26317	,	-27450	,	-38.02748	,	0
24,56	,	132524	,	-26306	,	-27446	,	-36.36241	,	0
24,56	,	132540	,	-26291	,	-27443	,	-31.33803	,	1
24,56	,	132556	,	-26292	,	-27427	,	-23.204323	,	6
24,56	,	132588	,	-26274	,	-27431	,	-12.99025	,	14
24,56	,	132603	,	-26271	,	-27439	,	-1.9788857	,	24
24,56	,	132619	,	-26275	,	-27413	,	8.589699	,	35
24,56	,	132651	,	-26272	,	-27422	,	17.565363	,	45
24,56	,	132667	,	-26270	,	-27419	,	24.097765	,	53
24,56	,	132686	,	-26276	,	-27425	,	27.817932	,	59
24,56	,	132716	,	-26283	,	-27430	,	28.717972	,	62
24,56	,	132731	,	-26292	,	-27428	,	26.996178	,	61
24,56	,	132764	,	-26293	,	-27425	,	23.054287	,	56
24,56	,	132779	,	-26296	,	-27425	,	17.53949	,	48
24,56	,	132795	,	-26299	,	-27430	,	11.257163	,	38
24,56	,	132827	,	-26287	,	-27430	,	5.043103	,	27
24,56	,	132843	,	-26304	,	-27427	,	-0.3736515	,	17
24,56	,	132859	,	-26314	,	-27434	,	-4.6755295	,	9
24,56	,	132892	,	-26318	,	-27440	,	-8.017641	,	3
24,56	,	132907	,	-26333	,	-27448	,	-10.710175	,	0
24,56	,	132939	,	-26351	,	-27444	,	-13.104329	,	0
24,56	,	132955	,	-26351	,	-27462	,	-15.546162	,	0
24,56	,	132971	,	-26362	,	-27459	,	-18.134947	,	0
24,56	,	133003	,	-26368	,	-27462	,	-20.711521	,	0
24,56	,	133019	,	-26390	,	-27474	,	-23.12954	,	0
24,56	,	133035	,	-26390	,	-27478	,	-25.376053	,	0
24,56	,	133067	,	-26414	,	-27495	,	-27.47674	,	0
24,56	,	133083	,	-26425	,	-27469	,	-29.490572	,	0
24,57	,	133099	,	-26415	,	-27486	,	-31.406998	,	0
24,57	,	133131	,	-26391	,	-27462	,	-32.7554	,	0
24,57	,	133147	,	-26366	,	-27454	,	-32.52201	,	0
24,57	,	133179	,	-26352	,	-27455	,	-29.671886	,	0
24,57	,	133195	,	-26337	,	-27451	,	-23.770004	,	2
24,57	,	133211	,	-26335	,	-27434	,	-15.214841	,	7
24,57	,	133243	,	-26331	,	-27430	,	-5.0868235	,	15
24,57	,	133259	,	-26307	,	-27429	,	5.321292	,	25
24,57	,	133275	,	-26323	,	-27424	,	14.933025	,	35
24,57	,	133307	,	-26299	,	-27438	,	22.92292	,	44
24,57	,	133323	,	-26311	,	-27407	,	28.749855	,	51
24,57	,	133355	,	-26325	,	-27423	,	32.08417	,	56
24,57	,	133371	,	-26321	,	-27421	,	32.66104	,	59
24,57	,	133387	,	-26315	,	-27425	,	30.592525	,	57
24,57	,	133419	,	-26323	,	-27429	,	26.523697	,	52
24,57	,	133435	,	-26335	,	-27420	,	21.204823	,	44
24,57	,	133451	,	-26328	,	-27425	,	15.219729	,	34
24,57	,	133483	,	-26345	,	-27438	,	9.074108	,	24
24,57	,	133499	,	-26341	,	-27429	,	3.190938	,	15
24,57	,	133515	,	-26341	,	-27440	,	-2.0740347	,	8
24,57	,	133547	,	-26355	,	-27426	,	-6.4140434	,	3
24,57	,	133563	,	-26357	,	-27440	,	-9.753488	,	0
24,57	,	133595	,	-26382	,	-27446	,	-12.320665	,	0
24,57	,	133611	,	-26397	,	-27454	,	-14.584	,	0
24,57	,	133627	,	-26389	,	-27459	,	-16.9644	,	0
24,57	,	133659	,	-26403	,	-27464	,	-19.453022	,	0
24,57	,	133677	,	-26412	,	-27465	,	-21.784061	,	0
24,57	,	133691	,	-26430	,	-27476	,	-23.848759	,	0
24,57	,	133723	,	-26442	,	-27486	,	-25.751919	,	0
24,57	,	133739	,	-26445	,	-27494	,	-27.608807	,	0
24,57	,	133771	,	-26460	,	-27505	,	-29.383076	,	0
24,57	,	133787	,	-26452	,	-27476	,	-30.890171	,	0
24,57	,	133803	,	-26400	,	-27461	,	-31.541445	,	0
24,57	,	133835	,	-26379	,	-27435	,	-30.103802	,	0
24,57	,	133851	,	-26367	,	-27441	,	-25.419737	,	1
24,57	,	133867	,	-26349	,	-27424	,	-17.32209	,	5
24,57	,	133899	,	-26334	,	-27432	,	-6.583618	,	13
24,57	,	133915	,	-26311	,	-27418	,	5.6358576	,	23
24,57	,	133931	,	-26322	,	-27419	,	18.056376	,	35
24,57	,	133963	,	-26304	,	-27412	,	29.31322	,	47
24,57	,	133979	,	-26313	,	-27416	,	38.205624	,	58
24,57	,	134011	,	-26322	,	-27426	,	43.89093	,	66
24,57	,	134027	,	-26317	,	-27394	,	45.8983	,	71
24,57	,	134043	,	-26316	,	-27417	,	44.335625	,	72
24,57	,	134075	,	-26314	,	-27414	,	39.927032	,	68
24,57	,	134091	,	-26313	,	-27403	,	33.692097	,	60
24,58	,	134107	,	-26327	,	-27413	,	26.58322	,	50
24,58	,	134139	,	-26310	,	-27417	,	19.33643	,	38
24,58	,	134155	,	-26327	,	-27412	,	12.557844	,	26
24,58	,	134187	,	-26329	,	-27423	,	6.6373205	,	15
24,58	,	134203	,	-26326	,	-27414	,	1.6903877	,	7
24,58	,	134219	,	-26336	,	-27422	,	-2.2506094	,	2
24,58	,	134251	,	-26337	,	-27422	,	-5.2257357	,	0
24,58	,	134267	,	-26337	,	-27427	,	-7.3573484	,	0
24,58	,	134283	,	-26367	,	-27428	,	-8.865549	,	0
24,58	,	134315	,	-26376	,	-27438	,	-10.2467375	,	0
24,58	,	134331	,	-26385	,	-27442	,	-12.070679	,	0
24,58	,	134363	,	-26396	,	-27450	,	-14.565701	,	0
24,58	,	134379	,	-26416	,	-27459	,	-17.66619	,	0
24,58	,	134395	,	-26421	,	-27460	,	-21.228594	,	0
24,58	,	134427	,	-26426	,	-27475	,	-24.971682	,	0
24,58	,	134443	,	-26444	,	-27475	,	-28.479956	,	0
24,58	,	134459	,	-26449	,	-27493	,	-31.44354	,	0
24,58	,	134491	,	-26439	,	-27453	,	-33.62095	,	0
24,58	,	134507	,	-26386	,	-27431	,	-34.36062	,	0
24,58	,	134523	,	-26356	,	-27416	,	-32.396	,	0
24,58	,	134555	,	-26335	,	-27412	,	-26.555931	,	1
24,58	,	134571	,	-26317	,	-27402	,	-16.676542	,	6
24,58	,	134603	,	-26308	,	-27394	,	-3.7269974	,	15
24,58	,	134619	,	-26295	,	-27399	,	10.636218	,	27
24,58	,	134635	,	-26295	,	-27387	,	24.574125	,	41
24,58	,	134667	,	-26296	,	-27388	,	36.41433	,	54
24,58	,	134682	,	-26292	,	-27383	,	44.90113	,	65
24,58	,	134699	,	-26300	,	-27408	,	49.388863	,	73
24,58	,	134731	,	-26295	,	-27366	,	49.843765	,	77
24,58	,	134747	,	-26309	,	-27383	,	46.710953	,	76
24,58	,	134778	,	-26291	,	-27390	,	40.80253	,	71
24,58	,	134795	,	-26291	,	-27383	,	33.26159	,	62
24,58	,	134811	,	-26303	,	-27392	,	25.27948	,	50
24,58	,	134843	,	-26298	,	-27387	,	17.673826	,	36
24,58	,	134859	,	-26303	,	-27385	,	10.905401	,	23
24,58	,	134875	,	-26313	,	-27383	,	5.205015	,	12
24,58	,	134907	,	-26311	,	-27384	,	0.5623102	,	4
24,58	,	134923	,	-26323	,	-27395	,	-3.1518354	,	0
24,58	,	134938	,	-26328	,	-27393	,	-6.110178	,	0
24,58	,	134971	,	-26322	,	-27401	,	-8.464498	,	0
24,58	,	134987	,	-26362	,	-27405	,	-10.378354	,	0
24,58	,	135019	,	-26364	,	-27416	,	-12.277787	,	0
24,58	,	135035	,	-26363	,	-27415	,	-14.578032	,	0
24,58	,	135050	,	-26378	,	-27422	,	-17.224907	,	0
24,58	,	135082	,	-26396	,	-27429	,	-19.986996	,	0
24,59	,	135098	,	-26392	,	-27439	,	-22.748505	,	0
24,59	,	135115	,	-26404	,	-27442	,	-25.312675	,	0
24,59	,	135147	,	-26410	,	-27443	,	-27.39698	,	0
24,59	,	135163	,	-26401	,	-27445	,	-28.751385	,	0
24,59	,	135195	,	-26356	,	-27393	,	-28.865562	,	0
24,59	,	135210	,	-26312	,	-27373	,	-26.645977	,	0
24,59	,	135227	,	-26296	,	-27370	,	-20.893412	,	2
24,59	,	135258	,	-26269	,	-27366	,	-11.251412	,	7
24,59	,	135275	,	-26265	,	-27363	,	1.4802761	,	16
24,59	,	135291	,	-26257	,	-27358	,	15.671563	,	28
24,59	,	135322	,	-26247	,	-27350	,	29.389887	,	42
24,59	,	135338	,	-26234	,	-27350	,	41.02186	,	55
24,59	,	135354	,	-26247	,	-27345	,	49.520676	,	66
24,59	,	135386	,	-26238	,	-27359	,	54.26596	,	74
24,59	,	135402	,	-26250	,	-27373	,	55.06226	,	78
24,59	,	135435	,	-26250	,	-27327	,	52.169582	,	76
24,59	,	135451	,	-26244	,	-27334	,	46.260674	,	71
24,59	,	135467	,	-26242	,	-27336	,	38.40374	,	62
24,59	,	135498	,	-26236	,	-27336	,	29.844027	,	50
24,59	,	135514	,	-26250	,	-27347	,	21.611483	,	36
24,59	,	135530	,	-26262	,	-27348	,	14.208418	,	23
24,59	,	135562	,	-26268	,	-27346	,	7.6397095	,	12
24,59	,	135579	,	-26260	,	-27350	,	1.8352022	,	4
24,59	,	135611	,	-26265	,	-27347	,	-3.045895	,	0
24,59	,	135627	,	-26269	,	-27341	,	-6.7813416	,	0
24,59	,	135642	,	-26273	,	-27366	,	-9.34546	,	0
24,59	,	135674	,	-26287	,	-27349	,	-10.949963	,	0
24,59	,	135690	,	-26315	,	-27371	,	-12.092746	,	0
24,59	,	135706	,	-26327	,	-27379	,	-13.518653	,	0
24,59	,	135738	,	-26333	,	-27392	,	-15.79079	,	0
24,59	,	135754	,	-26336	,	-27385	,	-18.886824	,	0
24,59	,	135770	,	-26344	,	-27398	,	-22.31088	,	0
24,59	,	135802	,	-26352	,	-27391	,	-25.49352	,	0
24,59	,	135818	,	-26333	,	-27382	,	-27.922634	,	0
24,59	,	135850	,	-26294	,	-27368	,	-28.833382	,	0
24,59	,	135866	,	-26261	,	-27352	,	-27.071493	,	0
24,59	,	135882	,	-26246	,	-27318	,	-21.671782	,	1
24,59	,	135914	,	-26231	,	-27333	,	-12.598475	,	6
24,59	,	135930	,	-26209	,	-27315	,	-0.7834921	,	15
24,59	,	135946	,	-26200	,	-27314	,	12.379032	,	26
24,59	,	135978	,	-26191	,	-27295	,	25.392818	,	39
24,59	,	135994	,	-26196	,	-27300	,	36.798237	,	52
24,59	,	136026	,	-26189	,	-27305	,	45.36266	,	63
24,59	,	136042	,	-26199	,	-27309	,	50.30365	,	71
24,59	,	136058	,	-26196	,	-27303	,	51.366676	,	75
24,59	,	136090	,	-26194	,	-27298	,	48.838257	,	75
25,0	,	136106	,	-26190	,	-27320	,	43.51902	,	70
25,0	,	136122	,	-26196	,	-27288	,	36.464844	,	61
25,0	,	136154	,	-26180	,	-27299	,	28.722786	,	50
25,0	,	136170	,	-26182	,	-27308	,	21.277441	,	37
25,0	,	136186	,	-26191	,	-27311	,	14.8520565	,	24
25,0	,	136218	,	-26209	,	-27317	,	9.583495	,	13
25,0	,	136234	,	-26214	,	-27315	,	5.0983963	,	5
25,0	,	136266	,	-26218	,	-27322	,	0.9743681	,	1
25,0	,	136282	,	-26234	,	-27326	,	-2.995747	,	0
25,0	,	136298	,	-26243	,	-27330	,	-6.9145317	,	0
25,0	,	136330	,	-26243	,	-27332	,	-10.804461	,	0
25,0	,	136346	,	-26248	,	-27357	,	-14.47654	,	0
25,0	,	136362	,	-26262	,	-27330	,	-17.656485	,	0
25,0	,	136394	,	-26295	,	-27361	,	-20.365389	,	0
25,0	,	136410	,	-26290	,	-27367	,	-22.961374	,	0
25,0	,	136442	,	-26313	,	-27370	,	-25.696651	,	0
25,0	,	136458	,	-26305	,	-27360	,	-28.47459	,	0
25,0	,	136474	,	-26272	,	-27347	,	-30.734287	,	0
25,0	,	136506	,	-26224	,	-27341	,	-31.209087	,	0
25,0	,	136522	,	-26204	,	-27320	,	-28.321617	,	0
25,0	,	136538	,	-26188	,	-27306	,	-21.227695	,	2
25,0	,	136570	,	-26175	,	-27311	,	-10.377164	,	9
25,0	,	136586	,	-26172	,	-27294	,	2.777155	,	19
25,0	,	136602	,	-26168	,	-27298	,	16.329697	,	32
25,0	,	136634	,	-26151	,	-27292	,	28.496326	,	45
25,0	,	136650	,	-26151	,	-27290	,	38.08034	,	57
25,0	,	136682	,	-26159	,	-27297	,	44.43102	,	66
25,0	,	136698	,	-26144	,	-27296	,	47.275753	,	72
25,0	,	136714	,	-26151	,	-27296	,	46.828545	,	74
25,0	,	136746	,	-26149	,	-27299	,	43.689613	,	72
25,0	,	136762	,	-26169	,	-27290	,	38.481873	,	65
25,0	,	136778	,	-26162	,	-27296	,	31.72923	,	55
25,0	,	136810	,	-26163	,	-27303	,	24.059418	,	42
25,0	,	136826	,	-26159	,	-27277	,	16.294033	,	29
25,0	,	136858	,	-26166	,	-27307	,	9.201839	,	17
25,0	,	136874	,	-26173	,	-27302	,	3.2336435	,	8
25,0	,	136890	,	-26190	,	-27322	,	-1.5804949	,	2
25,0	,	136922	,	-26199	,	-27315	,	-5.561621	,	0
25,0	,	136938	,	-26186	,	-27313	,	-9.010906	,	0
25,0	,	136954	,	-26212	,	-27329	,	-11.944853	,	0
25,0	,	136986	,	-26230	,	-27325	,	-14.448263	,	0
25,0	,	137002	,	-26238	,	-27331	,	-16.900005	,	0
25,0	,	137034	,	-26246	,	-27344	,	-19.580246	,	0
25,0	,	137050	,	-26261	,	-27367	,	-22.458565	,	0
25,0	,	137065	,	-26278	,	-27341	,	-25.418644	,	0
25,1	,	137098	,	-26261	,	-27349	,	-28.277695	,	0
25,1	,	137114	,	-26224	,	-27333	,	-30.34848	,	0
25,1	,	137130	,	-26206	,	-27315	,	-30.352316	,	0
25,1	,	137162	,	-26188	,	-27311	,	-27.170118	,	0
25,1	,	137178	,	-26173	,	-27312	,	-20.532967	,	3
25,1	,	137194	,	-26160	,	-27297	,	-11.027318	,	9
25,1	,	137226	,	-26148	,	-27299	,	0.23236752	,	18
25,1	,	137242	,	-26151	,	-27289	,	11.879643	,	29
25,1	,	137273	,	-26149	,	-27301	,	22.475962	,	40
25,1	,	137290	,	-26139	,	-27276	,	30.82457	,	50
25,1	,	137306	,	-26145	,	-27291	,	36.270714	,	58
25,1	,	137338	,	-26159	,	-27293	,	38.570454	,	63
25,1	,	137354	,	-26167	,	-27300	,	37.645737	,	65
25,1	,	137370	,	-26166	,	-27290	,	33.708897	,	62
25,1	,	137402	,	-26163	,	-27297	,	27.479864	,	56
25,1	,	137417	,	-26171	,	-27289	,	20.026133	,	47
25,1	,	137450	,	-26162	,	-27288	,	12.399742	,	36
25,1	,	137466	,	-26171	,	-27297	,	5.452279	,	25
25,1	,	137482	,	-26162	,	-27301	,	-0.23279762	,	15
25,1	,	137514	,	-26187	,	-27312	,	-4.4466014	,	7
25,1	,	137530	,	-26192	,	-27278	,	-7.44441	,	2
25,1	,	137546	,	-26211	,	-27319	,	-9.794274	,	0
25,1	,	137577	,	-26227	,	-27323	,	-12.0957775	,	0
25,1	,	137594	,	-26224	,	-27327	,	-14.741062	,	0
25,1	,	137610	,	-26242	,	-27335	,	-17.737795	,	0
25,1	,	137642	,	-26258	,	-27340	,	-20.907963	,	0
25,1	,	137658	,	-26255	,	-27348	,	-24.101284	,	0
25,1	,	137689	,	-26267	,	-27348	,	-27.050861	,	0
25,1	,	137706	,	-26277	,	-27353	,	-29.435047	,	0
25,1	,	137721	,	-26293	,	-27358	,	-31.147594	,	0
25,1	,	137753	,	-26292	,	-27370	,	-32.270702	,	0
25,1	,	137769	,	-26264	,	-27331	,	-32.6717	,	0
25,1	,	137785	,	-26213	,	-27314	,	-31.534447	,	0
25,1	,	137817	,	-26193	,	-27315	,	-27.543053	,	1
25,1	,	137834	,	-26188	,	-27305	,	-19.92668	,	4
25,1	,	137865	,	-26180	,	-27309	,	-9.222687	,	11
25,1	,	137881	,	-26169	,	-27292	,	3.0824404	,	21
25,1	,	137897	,	-26180	,	-27305	,	15.249261	,	33
25,1	,	137930	,	-26174	,	-27299	,	25.644276	,	45
25,1	,	137946	,	-26178	,	-27298	,	33.059387	,	55
25,1	,	137961	,	-26185	,	-27304	,	36.916042	,	62
25,1	,	137993	,	-26186	,	-27292	,	37.185394	,	65
25,1	,	138009	,	-26183	,	-27302	,	34.327835	,	64
25,1	,	138025	,	-26195	,	-27299	,	29.163614	,	61
25,1	,	138058	,	-26202	,	-27310	,	22.540863	,	54
25,1	,	138073	,	-26199	,	-27303	,	15.199944	,	44
25,2	,	138105	,	-26197	,	-27315	,	7.905242	,	32
25,2	,	138122	,	-26214	,	-27309	,	1.3448915	,	20
25,2	,	138153	,	-26213	,	-27321	,	-4.146292	,	10
25,2	,	138169	,	-26214	,	-27324	,	-8.490614	,	3
25,2	,	138185	,	-26230	,	-27331	,	-11.68947	,	0
25,2	,	138217	,	-26228	,	-27341	,	-13.894568	,	0
25,2	,	138233	,	-26246	,	-27327	,	-15.3822365	,	0
25,2	,	138249	,	-26266	,	-27363	,	-16.546127	,	0
25,2	,	138281	,	-26285	,	-27362	,	-17.946905	,	0
25,2	,	138297	,	-26294	,	-27368	,	-20.066113	,	0
25,2	,	138329	,	-26313	,	-27368	,	-23.039066	,	0
25,2	,	138345	,	-26315	,	-27378	,	-26.662117	,	0
25,2	,	138361	,	-26333	,	-27382	,	-30.508873	,	0
25,2	,	138393	,	-26339	,	-27379	,	-34.112167	,	0
25,2	,	138409	,	-26331	,	-27384	,	-37.020866	,	0
25,2	,	138425	,	-26301	,	-27370	,	-38.55124	,	0
25,2	,	138457	,	-26273	,	-27374	,	-37.676212	,	0
25,2	,	138473	,	-26270	,	-27332	,	-33.518414	,	0
25,2	,	138490	,	-26250	,	-27348	,	-26.005121	,	4
25,2	,	138521	,	-26241	,	-27343	,	-15.882151	,	11
25,2	,	138537	,	-26249	,	-27338	,	-4.392806	,	21
25,2	,	138569	,	-26235	,	-27339	,	6.9601564	,	32
25,2	,	138585	,	-26237	,	-27336	,	16.846458	,	43
25,2	,	138601	,	-26233	,	-27347	,	24.411846	,	52
25,2	,	138633	,	-26246	,	-27351	,	29.181816	,	59
25,2	,	138649	,	-26262	,	-27334	,	30.874437	,	63
25,2	,	138665	,	-26253	,	-27347	,	29.447895	,	64
25,2	,	138697	,	-26242	,	-27354	,	25.446285	,	60
25,2	,	138713	,	-26245	,	-27349	,	19.9972	,	53
25,2	,	138745	,	-26257	,	-27343	,	14.191993	,	43
25,2	,	138761	,	-26278	,	-27359	,	8.549815	,	32
25,2	,	138777	,	-26269	,	-27361	,	3.127411	,	21
25,2	,	138809	,	-26277	,	-27359	,	-1.9780979	,	12
25,2	,	138825	,	-26284	,	-27368	,	-6.5087233	,	5
25,2	,	138841	,	-26296	,	-27378	,	-10.327181	,	1
25,2	,	138873	,	-26300	,	-27397	,	-13.49071	,	0
25,2	,	138889	,	-26318	,	-27368	,	-16.14352	,	0
25,2	,	138905	,	-26348	,	-27391	,	-18.588371	,	0
25,2	,	138937	,	-26349	,	-27405	,	-21.273314	,	0
25,2	,	138953	,	-26362	,	-27403	,	-24.406275	,	0
25,2	,	138985	,	-26372	,	-27418	,	-27.785343	,	0
25,2	,	139001	,	-26380	,	-27425	,	-31.04731	,	0
25,2	,	139017	,	-26399	,	-27424	,	-33.89573	,	0
25,2	,	139049	,	-26402	,	-27432	,	-36.186264	,	0
25,2	,	139065	,	-26381	,	-27418	,	-37.6873	,	0
25,2	,	139081	,	-26359	,	-27405	,	-37.726913	,	0
25,3	,	139113	,	-26339	,	-27405	,	-35.379173	,	0
25,3	,	139129	,	-26333	,	-27385	,	-30.085487	,	2
25,3	,	139161	,	-26312	,	-27383	,	-22.010086	,	7
25,3	,	139177	,	-26314	,	-27385	,	-11.9284115	,	15
25,3	,	139193	,	-26313	,	-27378	,	-1.0439367	,	25
25,3	,	139225	,	-26295	,	-27378	,	9.322077	,	35
25,3	,	139241	,	-26313	,	-27378	,	18.1155	,	45
25,3	,	139257	,	-26316	,	-27375	,	24.510315	,	53
25,3	,	139289	,	-26318	,	-27387	,	27.904123	,	59
25,3	,	139305	,	-26331	,	-27384	,	28.158337	,	62
25,3	,	139321	,	-26331	,	-27382	,	25.563946	,	60
25,3	,	139353	,	-26320	,	-27377	,	20.79803	,	55
25,3	,	139369	,	-26324	,	-27381	,	14.911582	,	47
25,3	,	139401	,	-26331	,	-27385	,	8.941483	,	37
25,3	,	139417	,	-26339	,	-27389	,	3.505845	,	27
25,3	,	139433	,	-26343	,	-27390	,	-1.1864233	,	17
25,3	,	139465	,	-26339	,	-27394	,	-5.069341	,	9
25,3	,	139481	,	-26351	,	-27398	,	-8.072702	,	3
25,3	,	139497	,	-26363	,	-27407	,	-10.274998	,	0
25,3	,	139529	,	-26375	,	-27406	,	-12.01665	,	0
25,3	,	139545	,	-26374	,	-27406	,	-13.659803	,	0
25,3	,	139577	,	-26381	,	-27429	,	-15.305859	,	0
25,3	,	139593	,	-26399	,	-27398	,	-16.906433	,	0
25,3	,	139609	,	-26416	,	-27429	,	-18.572042	,	0
25,3	,	139641	,	-26443	,	-27438	,	-20.632727	,	0
25,3	,	139657	,	-26436	,	-27439	,	-23.355347	,	0
25,3	,	139673	,	-26448	,	-27447	,	-26.57093	,	0
25,3	,	139705	,	-26451	,	-27446	,	-29.727419	,	0
25,3	,	139720	,	-26428	,	-27428	,	-32.13109	,	0
25,3	,	139753	,	-26383	,	-27410	,	-32.770683	,	0
25,3	,	139769	,	-26374	,	-27403	,	-30.403223	,	0
25,3	,	139785	,	-26359	,	-27397	,	-24.381447	,	2
25,3	,	139817	,	-26352	,	-27402	,	-15.164383	,	8
25,3	,	139833	,	-26362	,	-27365	,	-4.084632	,	17
25,3	,	139848	,	-26337	,	-27377	,	7.1822596	,	28
25,3	,	139881	,	-26331	,	-27380	,	17.308369	,	39
25,3	,	139897	,	-26346	,	-27383	,	25.486305	,	49
25,3	,	139913	,	-26341	,	-27381	,	31.073965	,	57
25,3	,	139944	,	-26356	,	-27382	,	33.61919	,	62
25,3	,	139961	,	-26356	,	-27378	,	33.05596	,	64
25,3	,	139993	,	-26359	,	-27374	,	29.730015	,	62
25,3	,	140009	,	-26364	,	-27380	,	24.345776	,	56
25,3	,	140025	,	-26348	,	-27379	,	17.847435	,	47
25,3	,	140057	,	-26350	,	-27365	,	11.310555	,	36
25,3	,	140073	,	-26364	,	-27379	,	5.5984726	,	25
25,3	,	140089	,	-26369	,	-27383	,	0.98901653	,	15
25,4	,	140120	,	-26381	,	-27385	,	-2.7024384	,	7
25,4	,	140137	,	-26393	,	-27394	,	-5.8265	,	2
25,4	,	140169	,	-26390	,	-27391	,	-8.687888	,	0
25,4	,	140185	,	-26407	,	-27400	,	-11.392403	,	0
25,4	,	140200	,	-26403	,	-27403	,	-13.900587	,	0
25,4	,	140232	,	-26420	,	-27403	,	-16.138834	,	0
25,4	,	140248	,	-26426	,	-27409	,	-18.084259	,	0
25,4	,	140265	,	-26425	,	-27430	,	-19.747187	,	0
25,4	,	140297	,	-26442	,	-27416	,	-21.078066	,	0
25,4	,	140313	,	-26465	,	-27433	,	-22.168253	,	0
25,4	,	140329	,	-26462	,	-27440	,	-23.328575	,	0
25,4	,	140360	,	-26474	,	-27439	,	-24.710361	,	0
25,4	,	140376	,	-26454	,	-27428	,	-26.048466	,	0
25,4	,	140408	,	-26433	,	-27412	,	-26.63114	,	0
25,4	,	140424	,	-26419	,	-27412	,	-25.50486	,	0
25,4	,	140440	,	-26398	,	-27409	,	-21.967045	,	1
25,4	,	140472	,	-26389	,	-27398	,	-15.875778	,	4
25,4	,	140488	,	-26371	,	-27380	,	-7.641199	,	10
25,4	,	140504	,	-26358	,	-27407	,	1.960288	,	18
25,4	,	140537	,	-26346	,	-27358	,	12.020519	,	27
25,4	,	140552	,	-26349	,	-27369	,	21.577446	,	37
25,4	,	140584	,	-26347	,	-27372	,	29.631372	,	46
25,4	,	140600	,	-26357	,	-27377	,	35.28273	,	54
25,4	,	140616	,	-26366	,	-27383	,	37.89384	,	59
25,4	,	140650	,	-26364	,	-27375	,	37.242817	,	60
25,4	,	140665	,	-26352	,	-27375	,	33.733322	,	57
25,4	,	140681	,	-26354	,	-27374	,	28.350147	,	51
25,4	,	140712	,	-26344	,	-27374	,	22.249573	,	43
25,4	,	140728	,	-26354	,	-27377	,	16.372282	,	34
25,4	,	140744	,	-26354	,	-27393	,	11.246395	,	24
25,4	,	140776	,	-26353	,	-27374	,	7.0311146	,	15
25,4	,	140792	,	-26359	,	-27389	,	3.710682	,	7
25,4	,	140824	,	-26373	,	-27381	,	1.113543	,	2
25,4	,	140840	,	-26387	,	-27391	,	-1.1585877	,	0
25,4	,	140857	,	-26401	,	-27405	,	-3.6175528	,	0
25,4	,	140888	,	-26399	,	-27394	,	-6.59044	,	0
25,4	,	140904	,	-26405	,	-27412	,	-9.982245	,	0
25,4	,	140920	,	-26414	,	-27410	,	-13.415703	,	0
25,4	,	140952	,	-26429	,	-27408	,	-16.59986	,	0
25,4	,	140968	,	-26445	,	-27433	,	-19.508484	,	0
25,4	,	141000	,	-26455	,	-27420	,	-22.27822	,	0
25,4	,	141016	,	-26462	,	-27434	,	-24.98353	,	0
25,4	,	141032	,	-26456	,	-27432	,	-27.448597	,	0
25,4	,	141064	,	-26436	,	-27417	,	-29.134703	,	0
25,4	,	141080	,	-26401	,	-27408	,	-29.12106	,	0
25,4	,	141096	,	-26395	,	-27397	,	-26.434483	,	0
25,5	,	141128	,	-26368	,	-27383	,	-20.634382	,	2
25,5	,	141144	,	-26362	,	-27383	,	-12.032989	,	7
25,5	,	141160	,	-26354	,	-27373	,	-1.5560646	,	15
25,5	,	141192	,	-26347	,	-27366	,	9.488959	,	25
25,5	,	141208	,	-26344	,	-27379	,	19.771729	,	36
25,5	,	141240	,	-26333	,	-27346	,	28.253752	,	46
25,5	,	141256	,	-26335	,	-27361	,	34.321682	,	54
25,5	,	141272	,	-26333	,	-27365	,	37.72552	,	60
25,5	,	141304	,	-26331	,	-27360	,	38.489227	,	63
25,5	,	141320	,	-26333	,	-27365	,	36.903343	,	61
25,5	,	141336	,	-26334	,	-27367	,	33.43959	,	56
25,5	,	141368	,	-26320	,	-27367	,	28.71299	,	48
25,5	,	141384	,	-26319	,	-27364	,	23.513735	,	38
25,5	,	141416	,	-26332	,	-27360	,	18.532116	,	27
25,5	,	141432	,	-26317	,	-27372	,	14.094682	,	17
25,5	,	141448	,	-26336	,	-27378	,	10.300116	,	9
25,5	,	141480	,	-26333	,	-27359	,	7.089179	,	3
25,5	,	141496	,	-26345	,	-27367	,	4.246177	,	0
25,5	,	141512	,	-26360	,	-27371	,	1.4867334	,	0
25,5	,	141544	,	-26362	,	-27369	,	-1.4752243	,	0
25,5	,	141560	,	-26364	,	-27394	,	-4.7154155	,	0
25,5	,	141576	,	-26377	,	-27391	,	-8.044235	,	0
25,5	,	141608	,	-26386	,	-27398	,	-11.277924	,	0
25,5	,	141624	,	-26403	,	-27401	,	-14.39649	,	0
25,5	,	141656	,	-26397	,	-27393	,	-17.411713	,	0
25,5	,	141672	,	-26414	,	-27402	,	-20.19545	,	0
25,5	,	141688	,	-26423	,	-27405	,	-22.600126	,	0
25,5	,	141720	,	-26435	,	-27421	,	-24.637959	,	0
25,5	,	141736	,	-26411	,	-27407	,	-26.245432	,	0
25,5	,	141752	,	-26380	,	-27391	,	-26.831472	,	0
25,5	,	141784	,	-26358	,	-27375	,	-25.317871	,	0
25,5	,	141800	,	-26345	,	-27378	,	-20.85278	,	1
25,5	,	141832	,	-26324	,	-27365	,	-13.38001	,	5
25,5	,	141848	,	-26320	,	-27363	,	-3.5894966	,	12
25,5	,	141864	,	-26299	,	-27350	,	7.4014654	,	21
25,5	,	141896	,	-26291	,	-27351	,	18.411873	,	31
25,5	,	141912	,	-26293	,	-27343	,	28.370556	,	42
25,5	,	141928	,	-26284	,	-27327	,	36.32038	,	51
25,5	,	141960	,	-26297	,	-27345	,	41.533623	,	58
25,5	,	141976	,	-26286	,	-27343	,	43.635414	,	63
25,5	,	141992	,	-26287	,	-27342	,	42.72592	,	64
25,5	,	142023	,	-26293	,	-27340	,	39.33764	,	60
25,5	,	142040	,	-26283	,	-27339	,	34.181572	,	53
25,5	,	142072	,	-26287	,	-27339	,	28.047575	,	44
25,5	,	142088	,	-26277	,	-27343	,	21.743446	,	34
25,6	,	142104	,	-26287	,	-27347	,	15.927099	,	23
25,6	,	142136	,	-26287	,	-27339	,	10.9537525	,	14
25,6	,	142152	,	-26289	,	-27365	,	6.888837	,	7
25,6	,	142168	,	-26292	,	-27332	,	3.6674619	,	2
25,6	,	142200	,	-26311	,	-27355	,	1.0908451	,	0
25,6	,	142215	,	-26325	,	-27367	,	-1.2815773	,	0
25,6	,	142248	,	-26326	,	-27375	,	-3.9314647	,	0
25,6	,	142264	,	-26337	,	-27378	,	-7.0297837	,	0
25,6	,	142280	,	-26341	,	-27379	,	-10.429554	,	0
25,6	,	142312	,	-26360	,	-27378	,	-13.911932	,	0
25,6	,	142328	,	-26352	,	-27384	,	-17.279217	,	0
25,6	,	142344	,	-26367	,	-27390	,	-20.274607	,	0
25,6	,	142376	,	-26370	,	-27401	,	-22.650234	,	0
25,6	,	142392	,	-26391	,	-27403	,	-24.36853	,	0
25,6	,	142408	,	-26396	,	-27390	,	-25.627254	,	0
25,6	,	142440	,	-26344	,	-27373	,	-26.3707	,	0
25,6	,	142455	,	-26325	,	-27362	,	-25.717585	,	0
25,6	,	142488	,	-26321	,	-27362	,	-22.54028	,	0
25,6	,	142504	,	-26293	,	-27336	,	-16.483315	,	3
25,6	,	142520	,	-26279	,	-27350	,	-7.9431047	,	9
25,6	,	142552	,	-26282	,	-27348	,	2.2410002	,	17
25,6	,	142568	,	-26273	,	-27339	,	12.807406	,	27
25,6	,	142584	,	-26242	,	-27332	,	22.533497	,	37
25,6	,	142616	,	-26262	,	-27338	,	30.669647	,	46
25,6	,	142631	,	-26252	,	-27317	,	36.651646	,	54
25,6	,	142664	,	-26257	,	-27334	,	39.98083	,	59
25,6	,	142680	,	-26250	,	-27332	,	40.535812	,	62
25,6	,	142696	,	-26258	,	-27331	,	38.600063	,	59
25,6	,	142727	,	-26251	,	-27334	,	34.680824	,	53
25,6	,	142743	,	-26245	,	-27331	,	29.469791	,	45
25,6	,	142759	,	-26239	,	-27330	,	23.816683	,	35
25,6	,	142791	,	-26257	,	-27330	,	18.432505	,	25
25,6	,	142807	,	-26273	,	-27338	,	13.496158	,	16
25,6	,	142823	,	-26258	,	-27345	,	8.813004	,	8
25,6	,	142856	,	-26266	,	-27355	,	4.385131	,	3
25,6	,	142872	,	-26272	,	-27329	,	0.44007444	,	0
25,6	,	142904	,	-26286	,	-27357	,	-2.9620028	,	0
25,6	,	142920	,	-26306	,	-27366	,	-6.062492	,	0
25,6	,	142935	,	-26297	,	-27367	,	-9.172564	,	0
25,6	,	142968	,	-26316	,	-27370	,	-12.34273	,	0
25,6	,	142983	,	-26321	,	-27380	,	-15.43705	,	0
25,6	,	142999	,	-26327	,	-27390	,	-18.339645	,	0
25,6	,	143032	,	-26357	,	-27394	,	-21.012299	,	0
25,6	,	143048	,	-26363	,	-27397	,	-23.605389	,	0
25,6	,	143079	,	-26363	,	-27415	,	-26.242935	,	0
25,6	,	143095	,	-26379	,	-27419	,	-28.74708	,	0
25,7	,	143111	,	-26373	,	-27399	,	-30.800518	,	0
25,7	,	143143	,	-26319	,	-27378	,	-31.793137	,	0
25,7	,	143159	,	-26300	,	-27364	,	-30.515465	,	0
25,7	,	143176	,	-26286	,	-27361	,	-25.847662	,	1
25,7	,	143207	,	-26273	,	-27353	,	-17.689384	,	5
25,7	,	143223	,	-26257	,	-27354	,	-6.9085417	,	13
25,7	,	143255	,	-26254	,	-27344	,	5.1628656	,	23
25,7	,	143271	,	-26243	,	-27343	,	17.061987	,	35
25,7	,	143287	,	-26243	,	-27335	,	27.467848	,	46
25,7	,	143319	,	-26239	,	-27340	,	35.406197	,	56
25,7	,	143336	,	-26243	,	-27327	,	40.31078	,	63
25,7	,	143351	,	-26246	,	-27345	,	41.990128	,	67
25,7	,	143383	,	-26250	,	-27336	,	40.58095	,	67
25,7	,	143399	,	-26244	,	-27333	,	36.57128	,	63
25,7	,	143415	,	-26244	,	-27333	,	30.781736	,	55
25,7	,	143447	,	-26240	,	-27343	,	24.175447	,	45
25,7	,	143463	,	-26251	,	-27339	,	17.582363	,	33
25,7	,	143495	,	-26241	,	-27337	,	11.553805	,	22
25,7	,	143511	,	-26254	,	-27340	,	6.4082174	,	12
25,7	,	143527	,	-26249	,	-27344	,	2.2690458	,	5
25,7	,	143559	,	-26275	,	-27357	,	-0.98296595	,	1
25,7	,	143575	,	-26268	,	-27336	,	-3.6782553	,	0
25,7	,	143591	,	-26285	,	-27359	,	-6.141266	,	0
25,7	,	143623	,	-26282	,	-27366	,	-8.525098	,	0
25,7	,	143641	,	-26309	,	-27366	,	-10.906429	,	0
25,7	,	143671	,	-26319	,	-27382	,	-13.465129	,	0
25,7	,	143687	,	-26321	,	-27384	,	-16.374838	,	0
25,7	,	143703	,	-26329	,	-27398	,	-19.510448	,	0
25,7	,	143735	,	-26344	,	-27390	,	-22.548815	,	0
25,7	,	143751	,	-26337	,	-27406	,	-25.201674	,	0
25,7	,	143767	,	-26351	,	-27406	,	-27.18859	,	0
25,7	,	143799	,	-26371	,	-27418	,	-28.399534	,	0
25,7	,	143815	,	-26337	,	-27382	,	-28.893803	,	0
25,7	,	143831	,	-26290	,	-27368	,	-28.179111	,	0
25,7	,	143863	,	-26280	,	-27365	,	-25.074146	,	0
25,7	,	143879	,	-26272	,	-27351	,	-18.829514	,	3
25,7	,	143911	,	-26260	,	-27349	,	-9.852933	,	9
25,7	,	143927	,	-26257	,	-27347	,	0.6734514	,	17
25,7	,	143943	,	-26245	,	-27342	,	11.368862	,	27
25,7	,	143975	,	-26242	,	-27341	,	21.016098	,	37
25,7	,	143991	,	-26246	,	-27342	,	28.695127	,	46
25,7	,	144007	,	-26236	,	-27357	,	33.80467	,	53
25,7	,	144039	,	-26245	,	-27347	,	36.140602	,	58
25,7	,	144055	,	-26244	,	-27340	,	35.82727	,	60
25,7	,	144087	,	-26243	,	-27343	,	33.212208	,	57
25,8	,	144103	,	-26242	,	-27338	,	28.88121	,	51
25,8	,	144119	,	-26236	,	-27338	,	23.587303	,	43
25,8	,	144151	,	-26249	,	-27336	,	18.047806	,	33
25,8	,	144167	,	-26263	,	-27347	,	12.662301	,	23
25,8	,	144183	,	-26262	,	-27347	,	7.475811	,	14
25,8	,	144215	,	-26267	,	-27362	,	2.512844	,	7
25,8	,	144231	,	-26267	,	-27354	,	-2.0337086	,	2
25,8	,	144247	,	-26277	,	-27369	,	-5.937684	,	0
25,8	,	144279	,	-26294	,	-27352	,	-9.165911	,	0
25,8	,	144295	,	-26313	,	-27376	,	-12.007252	,	0
25,8	,	144327	,	-26311	,	-27374	,	-14.854028	,	0
25,8	,	144343	,	-26319	,	-27370	,	-17.795507	,	0
25,8	,	144359	,	-26329	,	-27388	,	-20.611649	,	0
25,8	,	144391	,	-26357	,	-27386	,	-23.18188	,	0
25,8	,	144407	,	-26350	,	-27401	,	-25.610184	,	0
25,8	,	144423	,	-26358	,	-27405	,	-27.864353	,	0
25,8	,	144455	,	-26366	,	-27408	,	-29.665928	,	0
25,8	,	144471	,	-26377	,	-27412	,	-30.811203	,	0
25,8	,	144503	,	-26386	,	-27424	,	-31.322426	,	0
25,8	,	144519	,	-26380	,	-27397	,	-31.275742	,	0
25,8	,	144535	,	-26320	,	-27384	,	-30.306618	,	0
25,8	,	144567	,	-26309	,	-27382	,	-27.351196	,	0
25,8	,	144583	,	-26303	,	-27364	,	-21.499413	,	2
25,8	,	144599	,	-26308	,	-27381	,	-13.005876	,	7
25,8	,	144631	,	-26291	,	-27363	,	-3.098218	,	15
25,8	,	144647	,	-26281	,	-27357	,	6.8979425	,	24
25,8	,	144663	,	-26268	,	-27355	,	16.056118	,	33
25,8	,	144695	,	-26266	,	-27361	,	23.802725	,	42
25,8	,	144711	,	-26267	,	-27364	,	29.70965	,	49
25,8	,	144743	,	-26281	,	-27367	,	33.35405	,	54
25,8	,	144758	,	-26286	,	-27361	,	34.344326	,	57
25,8	,	144774	,	-26273	,	-27360	,	32.62804	,	55
25,8	,	144807	,	-26279	,	-27360	,	28.737484	,	50
25,8	,	144823	,	-26287	,	-27375	,	23.48977	,	42
25,8	,	144839	,	-26289	,	-27368	,	17.564228	,	33
25,8	,	144871	,	-26298	,	-27360	,	11.454198	,	24
25,8	,	144887	,	-26294	,	-27366	,	5.5656404	,	15
25,8	,	144918	,	-26305	,	-27371	,	0.25312233	,	8
25,8	,	144935	,	-26305	,	-27374	,	-4.2431393	,	3
25,8	,	144950	,	-26329	,	-27392	,	-7.915982	,	0
25,8	,	144982	,	-26325	,	-27373	,	-10.985263	,	0
25,8	,	144999	,	-26346	,	-27395	,	-13.708472	,	0
25,8	,	145015	,	-26356	,	-27411	,	-16.29447	,	0
25,8	,	145047	,	-26365	,	-27407	,	-18.914822	,	0
25,8	,	145063	,	-26359	,	-27407	,	-21.52501	,	0
25,8	,	145079	,	-26382	,	-27417	,	-23.85013	,	0
25,9	,	145111	,	-26382	,	-27418	,	-25.70026	,	0
25,9	,	145127	,	-26403	,	-27419	,	-27.106544	,	0
25,9	,	145158	,	-26402	,	-27423	,	-28.191309	,	0
25,9	,	145174	,	-26429	,	-27438	,	-29.086056	,	0
25,9	,	145191	,	-26428	,	-27450	,	-29.93842	,	0
25,9	,	145222	,	-26433	,	-27414	,	-30.782679	,	0
25,9	,	145238	,	-26440	,	-27433	,	-31.433264	,	0
25,9	,	145254	,	-26405	,	-27436	,	-31.47315	,	0
25,9	,	145286	,	-26392	,	-27415	,	-30.14308	,	0
25,9	,	145302	,	-26378	,	-27408	,	-26.636297	,	1
25,9	,	145335	,	-26372	,	-27407	,	-20.7131	,	4
25,9	,	145351	,	-26366	,	-27403	,	-12.854858	,	9
25,9	,	145367	,	-26369	,	-27400	,	-4.0441046	,	16
25,9	,	145399	,	-26363	,	-27399	,	4.5475893	,	24
25,9	,	145415	,	-26343	,	-27394	,	12.013466	,	32
25,9	,	145431	,	-26350	,	-27404	,	17.961557	,	39
25,9	,	145462	,	-26343	,	-27388	,	22.260685	,	44
25,9	,	145478	,	-26361	,	-27391	,	24.749392	,	48
25,9	,	145494	,	-26358	,	-27406	,	25.240133	,	49
25,9	,	145526	,	-26366	,	-27396	,	23.70507	,	46
25,9	,	145543	,	-26358	,	-27407	,	20.44925	,	41
25,9	,	145574	,	-26361	,	-27402	,	16.087524	,	34
25,9	,	145591	,	-26360	,	-27402	,	11.344161	,	26
25,9	,	145606	,	-26370	,	-27391	,	6.78825	,	18
25,9	,	145638	,	-26361	,	-27400	,	2.7401438	,	11
25,9	,	145654	,	-26375	,	-27404	,	-0.6311135	,	6
25,9	,	145670	,	-26392	,	-27392	,	-3.3792193	,	2
25,9	,	145702	,	-26405	,	-27408	,	-5.8849835	,	0
25,9	,	145718	,	-26419	,	-27424	,	-8.62849	,	0
25,9	,	145750	,	-26425	,	-27428	,	-11.873669	,	0
25,9	,	145766	,	-26425	,	-27430	,	-15.511196	,	0
25,9	,	145782	,	-26441	,	-27432	,	-19.147953	,	0
25,9	,	145814	,	-26448	,	-27445	,	-22.42818	,	0
25,9	,	145830	,	-26453	,	-27443	,	-25.162575	,	0
25,9	,	145846	,	-26470	,	-27452	,	-27.262337	,	0
25,9	,	145878	,	-26476	,	-27445	,	-28.772652	,	0
25,9	,	145894	,	-26484	,	-27466	,	-29.815807	,	0
25,9	,	145926	,	-26500	,	-27447	,	-30.498917	,	0
25,9	,	145942	,	-26519	,	-27475	,	-31.016058	,	0
25,9	,	145958	,	-26526	,	-27483	,	-31.649273	,	0
25,9	,	145990	,	-26522	,	-27472	,	-32.47106	,	0
25,9	,	146006	,	-26497	,	-27476	,	-33.02517	,	0
25,9	,	146022	,	-26476	,	-27444	,	-32.33781	,	0
25,9	,	146054	,	-26456	,	-27452	,	-29.367702	,	0
25,9	,	146070	,	-26463	,	-27446	,	-23.664818	,	2
25,9	,	146086	,	-26450	,	-27440	,	-15.707666	,	7
25,10	,	146118	,	-26446	,	-27431	,	-6.56213	,	14
25,10	,	146134	,	-26440	,	-27446	,	2.6578636	,	23
25,10	,	146166	,	-26439	,	-27424	,	11.000183	,	32
25,10	,	146182	,	-26449	,	-27425	,	17.668793	,	40
25,10	,	146198	,	-26441	,	-27425	,	22.072407	,	46
25,10	,	146230	,	-26445	,	-27426	,	24.012438	,	50
25,10	,	146246	,	-26444	,	-27427	,	23.708405	,	51
25,10	,	146262	,	-26455	,	-27428	,	21.564545	,	49
25,10	,	146294	,	-26448	,	-27427	,	18.035465	,	44
25,10	,	146310	,	-26448	,	-27421	,	13.689182	,	37
25,10	,	146342	,	-26449	,	-27425	,	9.180014	,	28
25,10	,	146358	,	-26461	,	-27434	,	5.000677	,	19
25,10	,	146374	,	-26461	,	-27413	,	1.3288913	,	11
25,10	,	146406	,	-26464	,	-27432	,	-1.8232498	,	5
25,10	,	146422	,	-26469	,	-27428	,	-4.448242	,	1
25,10	,	146438	,	-26479	,	-27430	,	-6.590314	,	0
25,10	,	146470	,	-26479	,	-27437	,	-8.371	,	0
25,10	,	146486	,	-26486	,	-27443	,	-9.88297	,	0
25,10	,	146502	,	-26506	,	-27433	,	-11.237589	,	0
25,10	,	146534	,	-26513	,	-27458	,	-12.697189	,	0
25,10	,	146550	,	-26517	,	-27466	,	-14.491339	,	0
25,10	,	146582	,	-26526	,	-27461	,	-16.580582	,	0
25,10	,	146598	,	-26531	,	-27471	,	-18.746971	,	0
25,10	,	146614	,	-26544	,	-27441	,	-20.787518	,	0
25,10	,	146646	,	-26566	,	-27492	,	-22.676697	,	0
25,10	,	146662	,	-26566	,	-27485	,	-24.557745	,	0
25,10	,	146678	,	-26580	,	-27498	,	-26.480522	,	0
25,10	,	146710	,	-26590	,	-27495	,	-28.335794	,	0
25,10	,	146726	,	-26570	,	-27495	,	-29.879173	,	0
25,10	,	146758	,	-26543	,	-27464	,	-30.454365	,	0
25,10	,	146774	,	-26539	,	-27458	,	-29.096432	,	0
25,10	,	146790	,	-26501	,	-27445	,	-25.112652	,	1
25,10	,	146822	,	-26504	,	-27446	,	-18.359581	,	4
25,10	,	146838	,	-26497	,	-27451	,	-9.373387	,	10
25,10	,	146854	,	-26484	,	-27423	,	0.7091551	,	18
25,10	,	146886	,	-26477	,	-27425	,	10.683695	,	28
25,10	,	146902	,	-26478	,	-27433	,	19.573765	,	37
25,10	,	146918	,	-26482	,	-27426	,	26.550682	,	45
25,10	,	146950	,	-26489	,	-27426	,	30.943302	,	51
25,10	,	146966	,	-26487	,	-27429	,	32.40689	,	55
25,10	,	146998	,	-26480	,	-27428	,	31.118607	,	55
25,10	,	147014	,	-26489	,	-27423	,	27.724659	,	52
25,10	,	147030	,	-26474	,	-27419	,	23.05568	,	46
25,10	,	147062	,	-26464	,	-27422	,	18.027433	,	38
25,10	,	147078	,	-26491	,	-27409	,	13.423289	,	28
25,10	,	147094	,	-26480	,	-27428	,	9.485532	,	19
25,11	,	147126	,	-26476	,	-27428	,	6.1525745	,	11
25,11	,	147142	,	-26498	,	-27436	,	3.4066472	,	5
25,11	,	147174	,	-26492	,	-27428	,	1.0910892	,	1
25,11	,	147189	,	-26504	,	-27443	,	-1.0431247	,	0
25,11	,	147206	,	-26512	,	-27441	,	-3.1603909	,	0
25,11	,	147238	,	-26506	,	-27443	,	-5.3309937	,	0
25,11	,	147254	,	-26515	,	-27444	,	-7.448653	,	0
25,11	,	147270	,	-26526	,	-27446	,	-9.369167	,	0
25,11	,	147302	,	-26539	,	-27471	,	-11.158953	,	0
25,11	,	147318	,	-26563	,	-27443	,	-13.100958	,	0
25,11	,	147334	,	-26559	,	-27475	,	-15.493061	,	0
25,11	,	147366	,	-26567	,	-27474	,	-18.31725	,	0
25,11	,	147382	,	-26588	,	-27462	,	-21.276009	,	0
25,11	,	147414	,	-26595	,	-27491	,	-24.17363	,	0
25,11	,	147430	,	-26590	,	-27470	,	-26.861767	,	0
25,11	,	147446	,	-26564	,	-27459	,	-28.834148	,	0
25,11	,	147478	,	-26530	,	-27452	,	-29.081917	,	0
25,11	,	147494	,	-26501	,	-27435	,	-26.412888	,	0
25,11	,	147509	,	-26500	,	-27431	,	-20.165989	,	2
25,11	,	147542	,	-26476	,	-27448	,	-10.716955	,	8
25,11	,	147558	,	-26473	,	-27403	,	0.76506805	,	17
25,11	,	147590	,	-26463	,	-27402	,	12.814905	,	28
25,11	,	147606	,	-26455	,	-27401	,	24.005302	,	40
25,11	,	147623	,	-26460	,	-27401	,	33.17731	,	51
25,11	,	147654	,	-26467	,	-27414	,	39.459675	,	60
25,11	,	147670	,	-26462	,	-27406	,	42.321167	,	66
25,11	,	147686	,	-26459	,	-27411	,	41.805717	,	68
25,11	,	147717	,	-26451	,	-27407	,	38.566505	,	66
25,11	,	147734	,	-26459	,	-27413	,	33.551632	,	60
25,11	,	147750	,	-26459	,	-27397	,	27.61073	,	51
25,11	,	147782	,	-26448	,	-27402	,	21.425213	,	40
25,11	,	147798	,	-26451	,	-27389	,	15.645118	,	28
25,11	,	147830	,	-26453	,	-27401	,	10.754641	,	17
25,11	,	147846	,	-26464	,	-27402	,	6.8535604	,	8
25,11	,	147862	,	-26466	,	-27408	,	3.7295542	,	2
25,11	,	147893	,	-26466	,	-27409	,	1.1235738	,	0
25,11	,	147909	,	-26471	,	-27405	,	-1.0995133	,	0
25,11	,	147925	,	-26479	,	-27413	,	-3.0210097	,	0
25,11	,	147957	,	-26485	,	-27418	,	-4.7747188	,	0
25,11	,	147974	,	-26504	,	-27426	,	-6.5685954	,	0
25,11	,	148005	,	-26513	,	-27444	,	-8.677419	,	0
25,11	,	148021	,	-26523	,	-27421	,	-11.307578	,	0
25,11	,	148038	,	-26521	,	-27441	,	-14.3857355	,	0
25,11	,	148069	,	-26548	,	-27443	,	-17.623346	,	0
25,11	,	148085	,	-26555	,	-27448	,	-20.843023	,	0
25,12	,	148101	,	-26558	,	-27463	,	-23.97538	,	0
25,12	,	148134	,	-26556	,	-27455	,	-26.751526	,	0
25,12	,	148150	,	-26526	,	-27430	,	-28.559639	,	0
25,12	,	148166	,	-26496	,	-27413	,	-28.43133	,	0
25,12	,	148197	,	-26465	,	-27409	,	-25.288822	,	0
25,12	,	148213	,	-26444	,	-27401	,	-18.497469	,	3
25,12	,	148245	,	-26429	,	-27412	,	-8.274563	,	9
25,12	,	148261	,	-26432	,	-27361	,	4.2426033	,	19
25,12	,	148277	,	-26412	,	-27374	,	17.332458	,	31
25,12	,	148310	,	-26415	,	-27370	,	29.310978	,	44
25,12	,	148325	,	-26421	,	-27374	,	38.833115	,	55
25,12	,	148341	,	-26417	,	-27378	,	44.921078	,	64
25,12	,	148373	,	-26427	,	-27368	,	47.13636	,	70
25,12	,	148389	,	-26419	,	-27363	,	45.65348	,	72
25,12	,	148421	,	-26418	,	-27373	,	41.18153	,	69
25,12	,	148437	,	-26421	,	-27364	,	34.755745	,	63
25,12	,	148453	,	-26423	,	-27368	,	27.39068	,	53
25,12	,	148485	,	-26415	,	-27381	,	19.948786	,	41
25,12	,	148501	,	-26424	,	-27356	,	13.144386	,	28
25,12	,	148517	,	-26428	,	-27370	,	7.39359	,	17
25,12	,	148549	,	-26442	,	-27374	,	2.7100334	,	8
25,12	,	148565	,	-26438	,	-27379	,	-1.1335387	,	2
25,12	,	148581	,	-26443	,	-27390	,	-4.3157597	,	0
25,12	,	148613	,	-26440	,	-27390	,	-6.842434	,	0
25,12	,	148629	,	-26456	,	-27399	,	-8.695696	,	0
25,12	,	148661	,	-26461	,	-27398	,	-10.037304	,	0
25,12	,	148677	,	-26488	,	-27406	,	-11.256428	,	0
25,12	,	148693	,	-26474	,	-27426	,	-12.758562	,	0
25,12	,	148725	,	-26496	,	-27415	,	-14.645119	,	0
25,12	,	148741	,	-26509	,	-27421	,	-16.81873	,	0
25,12	,	148757	,	-26533	,	-27444	,	-19.337372	,	0
25,12	,	148789	,	-26519	,	-27441	,	-22.26061	,	0
25,12	,	148805	,	-26511	,	-27435	,	-25.169847	,	0
25,12	,	148837	,	-26474	,	-27410	,	-27.040424	,	0
25,12	,	148853	,	-26459	,	-27394	,	-26.606579	,	0
25,12	,	148869	,	-26430	,	-27376	,	-22.9388	,	0
25,12	,	148901	,	-26413	,	-27377	,	-15.812629	,	3
25,12	,	148917	,	-26403	,	-27373	,	-5.7643423	,	10
25,12	,	148933	,	-26381	,	-27386	,	6.0807133	,	20
25,12	,	148965	,	-26380	,	-27354	,	18.359148	,	31
25,12	,	148981	,	-26372	,	-27359	,	29.711111	,	43
25,12	,	149013	,	-26373	,	-27361	,	38.92536	,	54
25,12	,	149029	,	-26373	,	-27362	,	45.130547	,	63
25,12	,	149045	,	-26377	,	-27368	,	47.886147	,	69
25,12	,	149077	,	-26380	,	-27378	,	47.178074	,	71
25,12	,	149093	,	-26373	,	-27370	,	43.431496	,	68
25,13	,	149109	,	-26366	,	-27371	,	37.525715	,	61
25,13	,	149141	,	-26379	,	-27372	,	30.54252	,	51
25,13	,	149157	,	-26376	,	-27365	,	23.333927	,	40
25,13	,	149173	,	-26388	,	-27391	,	16.398779	,	28
25,13	,	149205	,	-26367	,	-27358	,	10.104141	,	17
25,13	,	149221	,	-26393	,	-27384	,	4.79249	,	8
25,13	,	149253	,	-26401	,	-27380	,	0.5007162	,	2
25,13	,	149269	,	-26411	,	-27384	,	-3.126698	,	0
25,13	,	149285	,	-26405	,	-27386	,	-6.4007173	,	0
25,13	,	149317	,	-26428	,	-27404	,	-9.383135	,	0
25,13	,	149333	,	-26433	,	-27408	,	-12.142203	,	0
25,13	,	149349	,	-26444	,	-27406	,	-14.82609	,	0
25,13	,	149381	,	-26452	,	-27414	,	-17.492638	,	0
25,13	,	149397	,	-26459	,	-27416	,	-20.075333	,	0
25,13	,	149429	,	-26478	,	-27426	,	-22.493793	,	0
25,13	,	149445	,	-26486	,	-27431	,	-24.757568	,	0
25,13	,	149461	,	-26467	,	-27414	,	-26.769081	,	0
25,13	,	149493	,	-26429	,	-27406	,	-27.854862	,	0
25,13	,	149509	,	-26402	,	-27387	,	-26.756681	,	0
25,13	,	149525	,	-26378	,	-27385	,	-22.34219	,	1
25,13	,	149557	,	-26370	,	-27371	,	-14.349757	,	5
25,13	,	149573	,	-26373	,	-27369	,	-3.6387205	,	12
25,13	,	149589	,	-26346	,	-27363	,	8.2159815	,	22
25,13	,	149621	,	-26342	,	-27356	,	19.719435	,	33
25,13	,	149637	,	-26342	,	-27363	,	29.753834	,	44
25,13	,	149669	,	-26334	,	-27340	,	37.436626	,	54
25,13	,	149685	,	-26333	,	-27361	,	42.22833	,	61
25,13	,	149701	,	-26348	,	-27358	,	43.961483	,	65
25,13	,	149733	,	-26347	,	-27351	,	42.66166	,	65
25,13	,	149749	,	-26343	,	-27355	,	38.650673	,	61
25,13	,	149765	,	-26340	,	-27360	,	32.7005	,	54
25,13	,	149797	,	-26338	,	-27352	,	25.82931	,	44
25,13	,	149813	,	-26348	,	-27356	,	18.93598	,	33
25,13	,	149845	,	-26347	,	-27358	,	12.578789	,	22
25,13	,	149861	,	-26342	,	-27372	,	7.0642424	,	12
25,13	,	149877	,	-26349	,	-27383	,	2.6120872	,	5
25,13	,	149909	,	-26362	,	-27354	,	-0.75933075	,	1
25,13	,	149925	,	-26377	,	-27378	,	-3.3894556	,	0
25,13	,	149941	,	-26385	,	-27376	,	-5.814285	,	0
25,13	,	149972	,	-26389	,	-27388	,	-8.411076	,	0
25,13	,	149989	,	-26404	,	-27391	,	-11.256033	,	0
25,13	,	150005	,	-26408	,	-27389	,	-14.265214	,	0
25,13	,	150037	,	-26420	,	-27402	,	-17.298267	,	0
25,13	,	150053	,	-26434	,	-27397	,	-20.218006	,	0
25,13	,	150084	,	-26456	,	-27416	,	-23.031956	,	0
25,14	,	150101	,	-26445	,	-27413	,	-25.79807	,	0
25,14	,	150117	,	-26435	,	-27420	,	-28.208305	,	0
25,14	,	150149	,	-26402	,	-27387	,	-29.399036	,	0
25,14	,	150165	,	-26360	,	-27367	,	-28.146942	,	0
25,14	,	150181	,	-26351	,	-27365	,	-23.380013	,	1
25,14	,	150213	,	-26340	,	-27360	,	-14.942645	,	5
25,14	,	150229	,	-26328	,	-27366	,	-3.809702	,	13
25,14	,	150261	,	-26325	,	-27349	,	8.452591	,	24
25,14	,	150277	,	-26316	,	-27354	,	20.226595	,	36
25,14	,	150293	,	-26323	,	-27341	,	30.132545	,	47
25,14	,	150324	,	-26321	,	-27341	,	37.159897	,	56
25,14	,	150341	,	-26320	,	-27351	,	40.781895	,	63
25,14	,	150357	,	-26329	,	-27340	,	41.00767	,	66
25,14	,	150388	,	-26326	,	-27354	,	38.239914	,	65
25,14	,	150404	,	-26317	,	-27347	,	33.211914	,	61
25,14	,	150421	,	-26321	,	-27348	,	26.936338	,	53
25,14	,	150452	,	-26331	,	-27343	,	20.3409	,	42
25,14	,	150469	,	-26328	,	-27355	,	13.9924135	,	30
25,14	,	150501	,	-26331	,	-27345	,	8.2383585	,	19
25,14	,	150517	,	-26328	,	-27354	,	3.3670998	,	10
25,14	,	150532	,	-26342	,	-27361	,	-0.47489405	,	3
25,14	,	150564	,	-26349	,	-27361	,	-3.4207094	,	0
25,14	,	150580	,	-26368	,	-27374	,	-5.8590207	,	0
25,14	,	150596	,	-26376	,	-27347	,	-8.261841	,	0
25,14	,	150629	,	-26394	,	-27382	,	-11.004002	,	0
25,14	,	150645	,	-26395	,	-27384	,	-14.229285	,	0
25,14	,	150676	,	-26411	,	-27383	,	-17.809906	,	0
25,14	,	150693	,	-26425	,	-27398	,	-21.500624	,	0
25,14	,	150709	,	-26432	,	-27395	,	-25.102306	,	0
25,14	,	150740	,	-26427	,	-27393	,	-28.34818	,	0
25,14	,	150757	,	-26411	,	-27391	,	-30.695993	,	0
25,14	,	150772	,	-26377	,	-27376	,	-31.272015	,	0
25,14	,	150804	,	-26355	,	-27371	,	-29.06267	,	0
25,14	,	150820	,	-26342	,	-27368	,	-23.44448	,	2
25,14	,	150836	,	-26327	,	-27344	,	-14.642232	,	7
25,14	,	150869	,	-26304	,	-27341	,	-3.5686455	,	15
25,14	,	150884	,	-26315	,	-27339	,	8.532056	,	26
25,14	,	150916	,	-26284	,	-27338	,	20.275787	,	38
25,14	,	150932	,	-26287	,	-27329	,	30.503448	,	49
25,14	,	150948	,	-26298	,	-27341	,	38.378777	,	59
25,14	,	150980	,	-26301	,	-27338	,	43.153873	,	66
25,14	,	150996	,	-26317	,	-27341	,	44.301605	,	70
25,14	,	151012	,	-26298	,	-27333	,	41.861057	,	69
25,14	,	151044	,	-26309	,	-27336	,	36.570183	,	64
25,14	,	151060	,	-26314	,	-27330	,	29.517157	,	56
25,14	,	151092	,	-26306	,	-27334	,	21.702814	,	45
25,15	,	151108	,	-26314	,	-27336	,	14.000683	,	33
25,15	,	151124	,	-26310	,	-27344	,	7.1161966	,	22
25,15	,	151156	,	-26316	,	-27351	,	1.479783	,	12
25,15	,	151172	,	-26316	,	-27345	,	-2.7465081	,	5
25,15	,	151188	,	-26331	,	-27342	,	-5.6758947	,	1
25,15	,	151220	,	-26327	,	-27356	,	-7.63618	,	0
25,15	,	151236	,	-26357	,	-27361	,	-9.063017	,	0
25,15	,	151252	,	-26359	,	-27367	,	-10.483727	,	0
25,15	,	151284	,	-26362	,	-27388	,	-12.292075	,	0
25,15	,	151300	,	-26377	,	-27360	,	-14.506491	,	0
25,15	,	151332	,	-26383	,	-27396	,	-16.963581	,	0
25,15	,	151348	,	-26398	,	-27405	,	-19.53083	,	0
25,15	,	151364	,	-26410	,	-27409	,	-22.129175	,	0
25,15	,	151396	,	-26399	,	-27393	,	-24.616447	,	0
25,15	,	151412	,	-26362	,	-27389	,	-26.402369	,	0
25,15	,	151428	,	-26333	,	-27373	,	-26.291233	,	0
25,15	,	151460	,	-26313	,	-27360	,	-23.067265	,	0
25,15	,	151476	,	-26306	,	-27354	,	-16.319155	,	3
25,15	,	151508	,	-26298	,	-27354	,	-6.716669	,	9
25,15	,	151524	,	-26304	,	-27354	,	4.289487	,	18
25,15	,	151540	,	-26288	,	-27327	,	15.019872	,	29
25,15	,	151572	,	-26273	,	-27338	,	24.20604	,	39
25,15	,	151588	,	-26276	,	-27332	,	31.24407	,	48
25,15	,	151605	,	-26269	,	-27333	,	35.899597	,	55
25,15	,	151636	,	-26282	,	-27346	,	38.052685	,	59
25,15	,	151652	,	-26271	,	-27335	,	37.72539	,	61
25,15	,	151668	,	-26279	,	-27334	,	35.201157	,	58
25,15	,	151700	,	-26279	,	-27334	,	30.979908	,	52
25,15	,	151716	,	-26288	,	-27339	,	25.585674	,	43
25,15	,	151748	,	-26280	,	-27343	,	19.54192	,	32
25,15	,	151764	,	-26284	,	-27341	,	13.445083	,	22
25,15	,	151780	,	-26291	,	-27342	,	7.834322	,	13
25,15	,	151812	,	-26297	,	-27358	,	2.973547	,	6
25,15	,	151828	,	-26305	,	-27356	,	-1.145493	,	2
25,15	,	151844	,	-26313	,	-27366	,	-4.661399	,	0
25,15	,	151876	,	-26311	,	-27370	,	-7.695057	,	0
25,15	,	151892	,	-26339	,	-27377	,	-10.3424015	,	0
25,15	,	151924	,	-26348	,	-27377	,	-12.865272	,	0
25,15	,	151940	,	-26347	,	-27372	,	-15.550549	,	0
25,15	,	151956	,	-26354	,	-27389	,	-18.335373	,	0
25,15	,	151988	,	-26367	,	-27403	,	-20.928446	,	0
25,15	,	152004	,	-26380	,	-27393	,	-23.181568	,	0
25,15	,	152020	,	-26392	,	-27407	,	-25.15358	,	0
25,15	,	152052	,	-26375	,	-27397	,	-26.827953	,	0
25,15	,	152068	,	-26347	,	-27383	,	-27.695154	,	0
25,15	,	152084	,	-26335	,	-27369	,	-26.799568	,	0
25,16	,	152116	,	-26318	,	-27353	,	-23.381565	,	0
25,16	,	152132	,	-26297	,	-27363	,	-17.282438	,	3
25,16	,	152164	,	-26297	,	-27353	,	-8.914271	,	9
25,16	,	152180	,	-26293	,	-27353	,	0.76028633	,	17
25,16	,	152196	,	-26281	,	-27340	,	10.468581	,	26
25,16	,	152228	,	-26268	,	-27360	,	19.163033	,	35
25,16	,	152244	,	-26278	,	-27320	,	26.194963	,	43
25,16	,	152260	,	-26279	,	-27344	,	31.054571	,	50
25,16	,	152292	,	-26283	,	-27343	,	33.328495	,	54
25,16	,	152308	,	-26261	,	-27346	,	33.035904	,	56
25,16	,	152340	,	-26288	,	-27351	,	30.68667	,	53
25,16	,	152356	,	-26283	,	-27346	,	26.817444	,	47
25,16	,	152372	,	-26271	,	-27354	,	21.901375	,	39
25,16	,	152404	,	-26290	,	-27344	,	16.56229	,	30
25,16	,	152420	,	-26302	,	-27342	,	11.237942	,	21
25,16	,	152436	,	-26293	,	-27344	,	6.0336	,	13
25,16	,	152468	,	-26307	,	-27360	,	1.1021013	,	6
25,16	,	152484	,	-26310	,	-27347	,	-3.3374486	,	2
25,16	,	152515	,	-26329	,	-27368	,	-7.240588	,	0
25,16	,	152532	,	-26342	,	-27371	,	-10.783238	,	0
25,16	,	152548	,	-26341	,	-27376	,	-14.1731205	,	0
25,16	,	152580	,	-26358	,	-27382	,	-17.421326	,	0
25,16	,	152596	,	-26362	,	-27380	,	-20.416044	,	0
25,16	,	152612	,	-26376	,	-27389	,	-23.079498	,	0
25,16	,	152644	,	-26383	,	-27394	,	-25.37214	,	0
25,16	,	152660	,	-26392	,	-27411	,	-27.274055	,	0
25,16	,	152676	,	-26406	,	-27418	,	-28.79345	,	0
25,16	,	152708	,	-26413	,	-27400	,	-29.98806	,	0
25,16	,	152724	,	-26419	,	-27416	,	-30.897953	,	0
25,16	,	152756	,	-26397	,	-27409	,	-31.338526	,	0
25,16	,	152771	,	-26381	,	-27399	,	-30.728064	,	0
25,16	,	152787	,	-26362	,	-27394	,	-28.281635	,	0
25,16	,	152820	,	-26357	,	-27387	,	-23.520763	,	2
25,16	,	152836	,	-26350	,	-27383	,	-16.623459	,	6
25,16	,	152852	,	-26340	,	-27380	,	-8.324365	,	12
25,16	,	152884	,	-26344	,	-27381	,	0.40671825	,	20
25,16	,	152900	,	-26319	,	-27380	,	8.654204	,	28
25,16	,	152932	,	-26329	,	-27375	,	15.781565	,	36
25,16	,	152947	,	-26333	,	-27346	,	21.316118	,	43
25,16	,	152963	,	-26344	,	-27373	,	24.736916	,	48
25,16	,	152996	,	-26342	,	-27365	,	25.67381	,	51
25,16	,	153012	,	-26336	,	-27374	,	24.236656	,	49
25,16	,	153028	,	-26345	,	-27377	,	20.996716	,	45
25,16	,	153059	,	-26351	,	-27374	,	16.61229	,	39
25,16	,	153076	,	-26345	,	-27379	,	11.636304	,	31
25,16	,	153092	,	-26344	,	-27377	,	6.651684	,	23
25,17	,	153123	,	-26363	,	-27375	,	2.1597853	,	15
25,17	,	153140	,	-26360	,	-27371	,	-1.6842041	,	8
25,17	,	153171	,	-26352	,	-27403	,	-4.868491	,	3
25,17	,	153187	,	-26371	,	-27379	,	-7.3008285	,	0
25,17	,	153203	,	-26393	,	-27384	,	-9.133887	,	0
25,17	,	153235	,	-26397	,	-27396	,	-10.886898	,	0
25,17	,	153251	,	-26412	,	-27399	,	-13.0090275	,	0
25,17	,	153268	,	-26423	,	-27413	,	-15.645063	,	0
25,17	,	153300	,	-26427	,	-27422	,	-18.707737	,	0
25,17	,	153315	,	-26431	,	-27417	,	-21.886715	,	0
25,17	,	153347	,	-26444	,	-27426	,	-24.76641	,	0
25,17	,	153363	,	-26450	,	-27426	,	-27.063007	,	0
25,17	,	153379	,	-26468	,	-27441	,	-28.718796	,	0
25,17	,	153411	,	-26476	,	-27440	,	-29.869003	,	0
25,17	,	153427	,	-26482	,	-27454	,	-30.69086	,	0
25,17	,	153443	,	-26513	,	-27474	,	-31.348797	,	0
25,17	,	153475	,	-26511	,	-27472	,	-32.085754	,	0
25,17	,	153492	,	-26530	,	-27480	,	-33.063953	,	0
25,17	,	153507	,	-26538	,	-27482	,	-34.236423	,	0
25,17	,	153539	,	-26537	,	-27485	,	-35.414803	,	0
25,17	,	153555	,	-26507	,	-27460	,	-36.082737	,	0
25,17	,	153587	,	-26488	,	-27453	,	-35.258823	,	0
25,17	,	153603	,	-26486	,	-27449	,	-32.006416	,	0
25,17	,	153619	,	-26467	,	-27454	,	-26.084185	,	3
25,17	,	153651	,	-26461	,	-27431	,	-17.94666	,	8
25,17	,	153667	,	-26457	,	-27431	,	-8.453518	,	16
25,17	,	153683	,	-26458	,	-27434	,	1.2781267	,	25
25,17	,	153716	,	-26431	,	-27436	,	10.212851	,	34
25,17	,	153731	,	-26450	,	-27421	,	17.69725	,	42
25,17	,	153763	,	-26469	,	-27435	,	23.139177	,	49
25,17	,	153779	,	-26464	,	-27432	,	25.842089	,	54
25,17	,	153795	,	-26458	,	-27443	,	25.593351	,	56
25,17	,	153827	,	-26445	,	-27433	,	23.015627	,	53
25,17	,	153843	,	-26469	,	-27433	,	19.098646	,	48
25,17	,	153859	,	-26460	,	-27462	,	14.572781	,	40
25,17	,	153891	,	-26465	,	-27430	,	9.885667	,	31
25,17	,	153907	,	-26462	,	-27436	,	5.458102	,	22
25,17	,	153923	,	-26465	,	-27444	,	1.6566219	,	14
25,17	,	153955	,	-26472	,	-27449	,	-1.3396878	,	7
25,17	,	153971	,	-26498	,	-27454	,	-3.693293	,	2
25,17	,	154003	,	-26512	,	-27451	,	-5.954955	,	0
25,17	,	154019	,	-26502	,	-27451	,	-8.62732	,	0
25,17	,	154035	,	-26507	,	-27464	,	-11.642319	,	0
25,17	,	154067	,	-26512	,	-27458	,	-14.5249605	,	0
25,17	,	154083	,	-26534	,	-27468	,	-16.96222	,	0
25,18	,	154099	,	-26543	,	-27480	,	-19.038242	,	0
25,18	,	154131	,	-26539	,	-27484	,	-20.940247	,	0
25,18	,	154147	,	-26556	,	-27494	,	-22.63968	,	0
25,18	,	154179	,	-26588	,	-27494	,	-24.172102	,	0
25,18	,	154195	,	-26576	,	-27509	,	-25.824924	,	0
25,18	,	154211	,	-26589	,	-27506	,	-27.658346	,	0
25,18	,	154243	,	-26604	,	-27520	,	-29.40864	,	0
25,18	,	154259	,	-26616	,	-27521	,	-30.928473	,	0
25,18	,	154275	,	-26622	,	-27528	,	-32.232723	,	0
25,18	,	154307	,	-26633	,	-27525	,	-33.294044	,	0
25,18	,	154323	,	-26631	,	-27540	,	-33.993073	,	0
25,18	,	154339	,	-26619	,	-27502	,	-34.044933	,	0
25,18	,	154371	,	-26571	,	-27491	,	-32.776268	,	0
25,18	,	154387	,	-26570	,	-27486	,	-29.214111	,	1
25,18	,	154419	,	-26556	,	-27486	,	-22.831076	,	4
25,18	,	154435	,	-26549	,	-27483	,	-14.034262	,	10
25,18	,	154451	,	-26538	,	-27482	,	-3.836359	,	18
25,18	,	154483	,	-26548	,	-27483	,	6.5238934	,	28
25,18	,	154499	,	-26544	,	-27471	,	15.738249	,	38
25,18	,	154515	,	-26522	,	-27477	,	22.841297	,	47
25,18	,	154547	,	-26532	,	-27459	,	27.556877	,	54
25,18	,	154563	,	-26537	,	-27493	,	29.949194	,	58
25,18	,	154596	,	-26539	,	-27447	,	30.047657	,	59
25,18	,	154611	,	-26523	,	-27478	,	28.089651	,	56
25,18	,	154627	,	-26531	,	-27469	,	24.711624	,	50
25,18	,	154659	,	-26527	,	-27472	,	20.638779	,	42
25,18	,	154675	,	-26541	,	-27482	,	16.3525	,	32
25,18	,	154691	,	-26538	,	-27471	,	12.074365	,	22
25,18	,	154723	,	-26542	,	-27481	,	7.9405346	,	13
25,18	,	154739	,	-26542	,	-27478	,	4.1263595	,	6
25,18	,	154770	,	-26540	,	-27477	,	0.8301921	,	2
25,18	,	154787	,	-26547	,	-27483	,	-1.7948701	,	0
25,18	,	154803	,	-26566	,	-27487	,	-3.8132122	,	0
25,18	,	154835	,	-26564	,	-27473	,	-5.5589194	,	0
25,18	,	154851	,	-26587	,	-27491	,	-7.4008355	,	0
25,18	,	154867	,	-26581	,	-27493	,	-9.557859	,	0
25,18	,	154899	,	-26600	,	-27495	,	-12.046353	,	0
25,18	,	154915	,	-26603	,	-27501	,	-14.743886	,	0
25,18	,	154931	,	-26613	,	-27507	,	-17.490646	,	0
25,18	,	154963	,	-26629	,	-27505	,	-20.146948	,	0
25,18	,	154979	,	-26627	,	-27524	,	-22.624035	,	0
25,18	,	155011	,	-26629	,	-27520	,	-24.737406	,	0
25,18	,	155027	,	-26648	,	-27540	,	-26.234095	,	0
25,18	,	155043	,	-26657	,	-27524	,	-27.116192	,	0
25,18	,	155075	,	-26666	,	-27542	,	-27.633305	,	0
25,18	,	155091	,	-26633	,	-27517	,	-27.804543	,	0
25,19	,	155107	,	-26610	,	-27507	,	-26.998077	,	0
25,19	,	155139	,	-26599	,	-27488	,	-24.24295	,	0
25,19	,	155155	,	-26585	,	-27496	,	-19.024006	,	2
25,19	,	155187	,	-26564	,	-27486	,	-11.526794	,	7
25,19	,	155203	,	-26557	,	-27477	,	-2.3622475	,	14
25,19	,	155219	,	-26545	,	-27465	,	7.596925	,	23
25,19	,	155250	,	-26547	,	-27467	,	17.301094	,	32
25,19	,	155267	,	-26541	,	-27475	,	25.697313	,	41
25,19	,	155282	,	-26546	,	-27440	,	31.93222	,	49
25,19	,	155315	,	-26550	,	-27467	,	35.457726	,	55
25,19	,	155331	,	-26558	,	-27459	,	36.04223	,	58
25,19	,	155347	,	-26543	,	-27454	,	33.880127	,	56
25,19	,	155379	,	-26536	,	-27460	,	29.725256	,	51
25,19	,	155395	,	-26545	,	-27449	,	24.613718	,	44
25,19	,	155427	,	-26533	,	-27458	,	19.383951	,	35
25,19	,	155443	,	-26533	,	-27457	,	14.620029	,	26
25,19	,	155458	,	-26536	,	-27442	,	10.710961	,	17
25,19	,	155491	,	-26535	,	-27447	,	7.7480173	,	9
25,19	,	155507	,	-26536	,	-27468	,	5.601441	,	3
25,19	,	155523	,	-26546	,	-27448	,	4.039528	,	0
25,19	,	155555	,	-26564	,	-27452	,	2.664167	,	0
25,19	,	155570	,	-26559	,	-27456	,	0.9980695	,	0
25,19	,	155602	,	-26581	,	-27462	,	-1.2438757	,	0
25,19	,	155618	,	-26585	,	-27462	,	-4.140024	,	0
25,19	,	155634	,	-26592	,	-27469	,	-7.622629	,	0
25,19	,	155666	,	-26596	,	-27465	,	-11.408145	,	0
25,19	,	155682	,	-26593	,	-27476	,	-15.036153	,	0
25,19	,	155698	,	-26607	,	-27473	,	-18.043657	,	0
25,19	,	155731	,	-26627	,	-27490	,	-20.273668	,	0
25,19	,	155746	,	-26633	,	-27479	,	-21.979233	,	0
25,19	,	155762	,	-26645	,	-27489	,	-23.490147	,	0
25,19	,	155794	,	-26653	,	-27503	,	-24.962711	,	0
25,19	,	155810	,	-26650	,	-27483	,	-26.353773	,	0
25,19	,	155842	,	-26621	,	-27477	,	-27.25595	,	0
25,19	,	155858	,	-26593	,	-27458	,	-26.754486	,	0
25,19	,	155874	,	-26559	,	-27449	,	-23.709888	,	0
25,19	,	155906	,	-26556	,	-27441	,	-17.418297	,	3
25,19	,	155922	,	-26546	,	-27438	,	-8.178189	,	9
25,19	,	155938	,	-26524	,	-27421	,	2.8701124	,	18
25,19	,	155970	,	-26528	,	-27440	,	14.364722	,	29
25,19	,	155986	,	-26516	,	-27408	,	25.00285	,	40
25,19	,	156018	,	-26496	,	-27410	,	33.772587	,	50
25,19	,	156034	,	-26506	,	-27414	,	40.168686	,	58
25,19	,	156050	,	-26506	,	-27420	,	43.919815	,	64
25,19	,	156082	,	-26509	,	-27409	,	44.818405	,	67
25,20	,	156098	,	-26511	,	-27406	,	42.92682	,	64
25,20	,	156114	,	-26493	,	-27415	,	38.74443	,	58
25,20	,	156146	,	-26496	,	-27390	,	33.185932	,	49
25,20	,	156162	,	-26486	,	-27408	,	27.26287	,	38
25,20	,	156178	,	-26504	,	-27394	,	21.67283	,	27
25,20	,	156210	,	-26499	,	-27415	,	16.6517	,	17
25,20	,	156226	,	-26488	,	-27384	,	12.246233	,	9
25,20	,	156258	,	-26510	,	-27404	,	8.54279	,	3
25,20	,	156274	,	-26499	,	-27404	,	5.4918404	,	0
25,20	,	156290	,	-26514	,	-27408	,	2.9015436	,	0
25,20	,	156322	,	-26528	,	-27422	,	0.5247836	,	0
25,20	,	156338	,	-26538	,	-27407	,	-1.9927268	,	0
25,20	,	156354	,	-26542	,	-27424	,	-4.9202714	,	0
25,20	,	156386	,	-26546	,	-27427	,	-8.213322	,	0
25,20	,	156402	,	-26549	,	-27429	,	-11.559925	,	0
25,20	,	156434	,	-26560	,	-27441	,	-14.600971	,	0
25,20	,	156450	,	-26577	,	-27440	,	-17.184292	,	0
25,20	,	156466	,	-26581	,	-27437	,	-19.413342	,	0
25,20	,	156498	,	-26595	,	-27448	,	-21.440004	,	0
25,20	,	156514	,	-26602	,	-27461	,	-23.333267	,	0
25,20	,	156530	,	-26580	,	-27444	,	-24.952429	,	0
25,20	,	156562	,	-26551	,	-27425	,	-25.646664	,	0
25,20	,	156579	,	-26531	,	-27411	,	-24.345377	,	0
25,20	,	156594	,	-26504	,	-27399	,	-20.168255	,	1
25,20	,	156626	,	-26488	,	-27397	,	-12.873801	,	5
25,20	,	156642	,	-26489	,	-27384	,	-3.0164547	,	12
25,20	,	156674	,	-26467	,	-27388	,	8.175125	,	21
25,20	,	156690	,	-26457	,	-27363	,	19.34525	,	32
25,20	,	156706	,	-26453	,	-27374	,	29.39945	,	43
25,20	,	156738	,	-26458	,	-27359	,	37.424816	,	53
25,20	,	156754	,	-26451	,	-27362	,	42.69206	,	61
25,20	,	156770	,	-26449	,	-27365	,	44.893906	,	66
25,20	,	156802	,	-26452	,	-27365	,	44.20188	,	67
25,20	,	156818	,	-26463	,	-27358	,	41.014885	,	63
25,20	,	156850	,	-26451	,	-27360	,	35.83332	,	56
25,20	,	156866	,	-26446	,	-27363	,	29.419048	,	47
25,20	,	156882	,	-26445	,	-27361	,	22.737225	,	36
25,20	,	156914	,	-26443	,	-27377	,	16.604357	,	25
25,20	,	156930	,	-26456	,	-27335	,	11.445939	,	15
25,20	,	156946	,	-26467	,	-27352	,	7.2143574	,	7
25,20	,	156978	,	-26475	,	-27361	,	3.5234985	,	2
25,20	,	156994	,	-26485	,	-27372	,	-0.027439594	,	0
25,20	,	157010	,	-26490	,	-27375	,	-3.6501312	,	0
25,20	,	157042	,	-26501	,	-27373	,	-7.36011	,	0
25,20	,	157058	,	-26499	,	-27380	,	-11.022041	,	0
25,20	,	157090	,	-26522	,	-27389	,	-14.447352	,	0
25,21	,	157106	,	-26515	,	-27391	,	-17.517012	,	0
25,21	,	157122	,	-26529	,	-27390	,	-20.127422	,	0
25,21	,	157154	,	-26544	,	-27408	,	-22.209728	,	0
25,21	,	157170	,	-26559	,	-27412	,	-23.918919	,	0
25,21	,	157186	,	-26551	,	-27414	,	-25.458162	,	0
25,21	,	157218	,	-26549	,	-27405	,	-26.685038	,	0
25,21	,	157234	,	-26503	,	-27375	,	-26.94521	,	0
25,21	,	157266	,	-26481	,	-27371	,	-25.151772	,	0
25,21	,	157282	,	-26460	,	-27356	,	-20.32304	,	1
25,21	,	157298	,	-26446	,	-27353	,	-12.2658415	,	5
25,21	,	157330	,	-26429	,	-27350	,	-1.667655	,	13
25,21	,	157346	,	-26424	,	-27343	,	10.241155	,	23
25,21	,	157361	,	-26422	,	-27351	,	21.985497	,	34
25,21	,	157394	,	-26414	,	-27327	,	32.143333	,	45
25,21	,	157410	,	-26410	,	-27339	,	39.700222	,	55
25,21	,	157426	,	-26421	,	-27337	,	44.132828	,	62
25,21	,	157458	,	-26415	,	-27344	,	45.26182	,	66
25,21	,	157474	,	-26425	,	-27338	,	43.259537	,	66
25,21	,	157505	,	-26427	,	-27341	,	38.63662	,	62
25,21	,	157522	,	-26424	,	-27344	,	32.127823	,	54
25,21	,	157538	,	-26413	,	-27340	,	24.68819	,	44
25,21	,	157570	,	-26420	,	-27344	,	17.358017	,	33
25,21	,	157586	,	-26423	,	-27340	,	10.888096	,	22
25,21	,	157602	,	-26425	,	-27355	,	5.582962	,	12
25,21	,	157634	,	-26427	,	-27319	,	1.4764299	,	5
25,21	,	157650	,	-26439	,	-27361	,	-1.5666041	,	1
25,21	,	157682	,	-26447	,	-27359	,	-3.8762162	,	0
25,21	,	157698	,	-26453	,	-27363	,	-5.861178	,	0
25,21	,	157713	,	-26463	,	-27371	,	-7.825191	,	0
25,21	,	157745	,	-26469	,	-27368	,	-9.920722	,	0
25,21	,	157761	,	-26484	,	-27378	,	-12.201939	,	0
25,21	,	157778	,	-26502	,	-27384	,	-14.736565	,	0
25,21	,	157810	,	-26501	,	-27390	,	-17.590229	,	0
25,21	,	157826	,	-26501	,	-27395	,	-20.57054	,	0
25,21	,	157842	,	-26517	,	-27412	,	-23.247028	,	0
25,21	,	157874	,	-26501	,	-27376	,	-25.231646	,	0
25,21	,	157889	,	-26446	,	-27355	,	-25.889324	,	0
25,21	,	157921	,	-26409	,	-27347	,	-23.93999	,	0
25,21	,	157937	,	-26404	,	-27336	,	-18.188538	,	1
25,21	,	157953	,	-26400	,	-27333	,	-8.705903	,	6
25,21	,	157985	,	-26392	,	-27329	,	3.0945988	,	15
25,21	,	158001	,	-26378	,	-27323	,	15.355612	,	26
25,21	,	158018	,	-26367	,	-27319	,	26.548334	,	38
25,21	,	158050	,	-26366	,	-27312	,	35.661507	,	49
25,21	,	158066	,	-26375	,	-27322	,	42.006393	,	58
25,22	,	158097	,	-26381	,	-27315	,	45.065006	,	64
25,22	,	158114	,	-26385	,	-27318	,	44.617424	,	67
25,22	,	158129	,	-26377	,	-27311	,	40.980377	,	66
25,22	,	158161	,	-26366	,	-27316	,	35.08185	,	61
25,22	,	158177	,	-26366	,	-27312	,	28.192764	,	52
25,22	,	158193	,	-26366	,	-27321	,	21.429789	,	41
25,22	,	158226	,	-26371	,	-27307	,	15.445324	,	29
25,22	,	158241	,	-26375	,	-27315	,	10.450612	,	18
25,22	,	158273	,	-26371	,	-27319	,	6.4178257	,	9
25,22	,	158289	,	-26374	,	-27320	,	3.280139	,	3
25,22	,	158306	,	-26384	,	-27337	,	0.9208932	,	0
25,22	,	158338	,	-26399	,	-27308	,	-0.9751668	,	0
25,22	,	158353	,	-26426	,	-27347	,	-2.97779	,	0
25,22	,	158369	,	-26411	,	-27348	,	-5.624888	,	0
25,22	,	158401	,	-26425	,	-27342	,	-8.93804	,	0
25,22	,	158417	,	-26434	,	-27353	,	-12.515329	,	0
25,22	,	158433	,	-26452	,	-27361	,	-16.055904	,	0
25,22	,	158465	,	-26455	,	-27364	,	-19.467348	,	0
25,22	,	158482	,	-26456	,	-27360	,	-22.59982	,	0
25,22	,	158513	,	-26435	,	-27344	,	-25.00878	,	0
25,22	,	158529	,	-26400	,	-27328	,	-25.841888	,	0
25,22	,	158545	,	-26376	,	-27336	,	-24.012608	,	0
25,22	,	158580	,	-26360	,	-27288	,	-18.788288	,	1
25,22	,	158593	,	-26332	,	-27306	,	-10.234238	,	6
25,22	,	158609	,	-26321	,	-27281	,	0.89898586	,	14
25,22	,	158641	,	-26303	,	-27289	,	13.438868	,	25
25,22	,	158657	,	-26301	,	-27284	,	25.991821	,	37
25,22	,	158689	,	-26298	,	-27282	,	37.139263	,	49
25,22	,	158706	,	-26313	,	-27289	,	45.573845	,	60
25,22	,	158721	,	-26309	,	-27280	,	50.28877	,	68
25,22	,	158753	,	-26304	,	-27289	,	50.93638	,	72
25,22	,	158769	,	-26307	,	-27284	,	47.970573	,	71
25,22	,	158785	,	-26305	,	-27278	,	42.32016	,	66
25,22	,	158817	,	-26310	,	-27281	,	35.01358	,	58
25,22	,	158833	,	-26297	,	-27283	,	27.056341	,	47
25,22	,	158849	,	-26298	,	-27276	,	19.41505	,	35
25,22	,	158881	,	-26298	,	-27274	,	12.851805	,	23
25,22	,	158897	,	-26313	,	-27285	,	7.664135	,	12
25,22	,	158929	,	-26309	,	-27294	,	3.697627	,	4
25,22	,	158945	,	-26310	,	-27297	,	0.6866436	,	0
25,22	,	158961	,	-26320	,	-27283	,	-1.5565813	,	0
25,22	,	158993	,	-26324	,	-27301	,	-3.2633853	,	0
25,22	,	159009	,	-26343	,	-27308	,	-4.7746086	,	0
25,22	,	159025	,	-26356	,	-27291	,	-6.509383	,	0
25,22	,	159058	,	-26372	,	-27318	,	-8.872583	,	0
25,22	,	159073	,	-26381	,	-27330	,	-12.070468	,	0
25,23	,	159105	,	-26385	,	-27325	,	-15.975298	,	0
25,23	,	159121	,	-26374	,	-27308	,	-20.055578	,	0
25,23	,	159137	,	-26342	,	-27299	,	-23.316841	,	0
25,23	,	159169	,	-26299	,	-27283	,	-24.343235	,	0
25,23	,	159185	,	-26292	,	-27278	,	-21.805538	,	0
25,23	,	159201	,	-26276	,	-27282	,	-15.308758	,	2
25,23	,	159233	,	-26263	,	-27276	,	-5.6128244	,	8
25,23	,	159249	,	-26253	,	-27282	,	5.890353	,	17
25,23	,	159265	,	-26240	,	-27245	,	17.690855	,	28
25,23	,	159297	,	-26236	,	-27256	,	28.455288	,	39
25,23	,	159313	,	-26248	,	-27252	,	37.078568	,	49
25,23	,	159345	,	-26245	,	-27255	,	42.653244	,	57
25,23	,	159361	,	-26254	,	-27247	,	44.66698	,	62
25,23	,	159377	,	-26249	,	-27256	,	43.186996	,	64
25,23	,	159409	,	-26243	,	-27246	,	38.84968	,	62
25,23	,	159425	,	-26243	,	-27251	,	32.694275	,	56
25,23	,	159441	,	-26250	,	-27254	,	25.778372	,	47
25,23	,	159473	,	-26251	,	-27259	,	18.863792	,	36
25,23	,	159489	,	-26258	,	-27264	,	12.412215	,	25
25,23	,	159521	,	-26268	,	-27258	,	6.6389694	,	15
25,23	,	159537	,	-26280	,	-27266	,	1.5082426	,	7
25,23	,	159553	,	-26278	,	-27269	,	-3.1176486	,	2
25,23	,	159585	,	-26288	,	-27268	,	-7.2569685	,	0
25,23	,	159601	,	-26289	,	-27282	,	-10.815355	,	0
25,23	,	159617	,	-26301	,	-27296	,	-13.722786	,	0
25,23	,	159649	,	-26305	,	-27301	,	-15.996289	,	0
25,23	,	159665	,	-26315	,	-27296	,	-17.724077	,	0
25,23	,	159681	,	-26325	,	-27306	,	-19.042442	,	0
25,23	,	159713	,	-26340	,	-27324	,	-20.158188	,	0
25,23	,	159729	,	-26347	,	-27299	,	-21.310078	,	0
25,23	,	159761	,	-26356	,	-27321	,	-22.631237	,	0
25,23	,	159777	,	-26325	,	-27293	,	-23.906803	,	0
25,23	,	159793	,	-26291	,	-27285	,	-24.275	,	0
25,23	,	159825	,	-26271	,	-27282	,	-22.442371	,	0
25,23	,	159841	,	-26256	,	-27273	,	-17.519726	,	1
25,23	,	159857	,	-26253	,	-27271	,	-9.614637	,	5
25,23	,	159889	,	-26242	,	-27257	,	0.26579	,	12
25,23	,	159905	,	-26244	,	-27259	,	10.684516	,	21
25,23	,	159937	,	-26226	,	-27277	,	20.270658	,	31
25,23	,	159953	,	-26224	,	-27278	,	28.086695	,	40
25,23	,	159969	,	-26226	,	-27243	,	33.643238	,	47
25,23	,	160001	,	-26246	,	-27260	,	36.587326	,	52
25,23	,	160017	,	-26232	,	-27260	,	36.66476	,	54
25,23	,	160033	,	-26237	,	-27265	,	34.06932	,	53
25,23	,	160065	,	-26234	,	-27268	,	29.485636	,	49
25,23	,	160081	,	-26241	,	-27269	,	23.738483	,	42
25,24	,	160097	,	-26240	,	-27281	,	17.556152	,	33
25,24	,	160129	,	-26250	,	-27274	,	11.492751	,	23
25,24	,	160145	,	-26243	,	-27268	,	5.9310446	,	14
25,24	,	160177	,	-26247	,	-27276	,	1.1807213	,	7
25,24	,	160193	,	-26272	,	-27282	,	-2.6371908	,	2
25,24	,	160209	,	-26269	,	-27285	,	-5.7694535	,	0
25,24	,	160240	,	-26287	,	-27295	,	-8.584553	,	0
25,24	,	160257	,	-26303	,	-27311	,	-11.368331	,	0
25,24	,	160273	,	-26302	,	-27311	,	-14.325306	,	0
25,24	,	160305	,	-26325	,	-27320	,	-17.47538	,	0
25,24	,	160321	,	-26337	,	-27325	,	-20.764172	,	0
25,24	,	160352	,	-26341	,	-27332	,	-24.149044	,	0
25,24	,	160369	,	-26360	,	-27334	,	-27.469688	,	0
25,24	,	160384	,	-26369	,	-27345	,	-30.536324	,	0
25,24	,	160417	,	-26382	,	-27364	,	-33.241512	,	0
25,24	,	160433	,	-26398	,	-27345	,	-35.531082	,	0
25,24	,	160449	,	-26386	,	-27353	,	-37.304653	,	0
25,24	,	160481	,	-26343	,	-27331	,	-38.019707	,	0
25,24	,	160497	,	-26322	,	-27316	,	-36.51776	,	0
25,24	,	160513	,	-26301	,	-27316	,	-31.705969	,	1
25,24	,	160545	,	-26301	,	-27325	,	-23.397936	,	5
25,24	,	160561	,	-26308	,	-27316	,	-12.5667	,	13
25,24	,	160592	,	-26301	,	-27311	,	-0.9533024	,	23
25,24	,	160608	,	-26298	,	-27322	,	9.729472	,	34
25,24	,	160624	,	-26289	,	-27314	,	18.35978	,	44
25,24	,	160657	,	-26302	,	-27320	,	24.386862	,	52
25,24	,	160673	,	-26304	,	-27295	,	27.55437	,	58
25,24	,	160689	,	-26313	,	-27324	,	27.817688	,	61
25,24	,	160721	,	-26313	,	-27318	,	25.449448	,	60
25,24	,	160737	,	-26313	,	-27319	,	21.070026	,	56
25,24	,	160768	,	-26324	,	-27322	,	15.483879	,	48
25,24	,	160784	,	-26312	,	-27319	,	9.46946	,	38
25,24	,	160800	,	-26322	,	-27325	,	3.7349396	,	27
25,24	,	160832	,	-26324	,	-27324	,	-1.1827703	,	17
25,24	,	160848	,	-26331	,	-27318	,	-5.0684505	,	9
25,24	,	160865	,	-26341	,	-27328	,	-7.9888306	,	3
25,24	,	160897	,	-26354	,	-27355	,	-10.21953	,	0
25,24	,	160912	,	-26353	,	-27329	,	-12.105336	,	0
25,24	,	160929	,	-26379	,	-27354	,	-13.913502	,	0
25,24	,	160960	,	-26378	,	-27365	,	-15.862064	,	0
25,24	,	160976	,	-26397	,	-27368	,	-18.077785	,	0
25,24	,	161008	,	-26408	,	-27374	,	-20.559887	,	0
25,24	,	161024	,	-26420	,	-27376	,	-23.265385	,	0
25,24	,	161040	,	-26435	,	-27380	,	-26.117386	,	0
25,24	,	161073	,	-26444	,	-27388	,	-29.002201	,	0
25,24	,	161089	,	-26455	,	-27399	,	-31.765354	,	0
25,25	,	161105	,	-26461	,	-27403	,	-34.189423	,	0
25,25	,	161136	,	-26473	,	-27417	,	-36.05098	,	0
25,25	,	161152	,	-26493	,	-27411	,	-37.27633	,	0
25,25	,	161184	,	-26488	,	-27411	,	-37.955433	,	0
25,25	,	161200	,	-26455	,	-27387	,	-37.89675	,	0
25,25	,	161216	,	-26432	,	-27379	,	-36.273155	,	0
25,25	,	161248	,	-26419	,	-27382	,	-32.106003	,	1
25,25	,	161264	,	-26420	,	-27371	,	-25.109495	,	5
25,25	,	161280	,	-26420	,	-27382	,	-15.996607	,	11
25,25	,	161312	,	-26409	,	-27376	,	-6.062188	,	20
25,25	,	161328	,	-26416	,	-27361	,	3.4132338	,	29
25,25	,	161360	,	-26403	,	-27376	,	11.452633	,	38
25,25	,	161376	,	-26400	,	-27354	,	17.518442	,	46
25,25	,	161392	,	-26410	,	-27374	,	21.449757	,	52
25,25	,	161424	,	-26408	,	-27365	,	23.206673	,	55
25,25	,	161440	,	-26420	,	-27361	,	22.83767	,	55
25,25	,	161456	,	-26410	,	-27369	,	20.60516	,	51
25,25	,	161488	,	-26424	,	-27365	,	16.99507	,	45
25,25	,	161504	,	-26410	,	-27360	,	12.610984	,	36
25,25	,	161520	,	-26435	,	-27369	,	8.00783	,	27
25,25	,	161552	,	-26422	,	-27373	,	3.5551772	,	18
25,25	,	161568	,	-26417	,	-27361	,	-0.4216237	,	10
25,25	,	161600	,	-26435	,	-27394	,	-3.5823421	,	4
25,25	,	161616	,	-26435	,	-27357	,	-5.8795977	,	1
25,25	,	161632	,	-26456	,	-27390	,	-7.6126027	,	0
25,25	,	161664	,	-26457	,	-27392	,	-9.1912	,	0
25,25	,	161680	,	-26469	,	-27410	,	-10.922958	,	0
25,25	,	161696	,	-26489	,	-27410	,	-12.973906	,	0
25,25	,	161728	,	-26504	,	-27415	,	-15.52454	,	0
25,25	,	161744	,	-26505	,	-27412	,	-18.67242	,	0
25,25	,	161776	,	-26523	,	-27418	,	-22.222391	,	0
25,25	,	161792	,	-26530	,	-27430	,	-25.828007	,	0
25,25	,	161808	,	-26535	,	-27437	,	-29.155584	,	0
25,25	,	161840	,	-26546	,	-27454	,	-31.882309	,	0
25,25	,	161856	,	-26556	,	-27440	,	-33.79477	,	0
25,25	,	161872	,	-26572	,	-27468	,	-34.90528	,	0
25,25	,	161904	,	-26591	,	-27464	,	-35.46522	,	0
25,25	,	161920	,	-26581	,	-27464	,	-35.760048	,	0
25,25	,	161936	,	-26561	,	-27447	,	-35.640007	,	0
25,25	,	161968	,	-26539	,	-27433	,	-34.34639	,	0
25,25	,	161984	,	-26524	,	-27418	,	-30.968431	,	1
25,25	,	162016	,	-26508	,	-27423	,	-25.029583	,	4
25,25	,	162032	,	-26495	,	-27419	,	-16.697525	,	9
25,25	,	162048	,	-26492	,	-27414	,	-6.6938543	,	17
25,25	,	162080	,	-26498	,	-27403	,	3.8140383	,	27
25,25	,	162096	,	-26498	,	-27416	,	13.422202	,	37
25,26	,	162112	,	-26485	,	-27408	,	20.984188	,	46
25,26	,	162144	,	-26492	,	-27415	,	25.976778	,	53
25,26	,	162160	,	-26498	,	-27412	,	28.318233	,	57
25,26	,	162192	,	-26498	,	-27418	,	28.116234	,	58
25,26	,	162208	,	-26505	,	-27406	,	25.691116	,	55
25,26	,	162224	,	-26489	,	-27409	,	21.633553	,	50
25,26	,	162256	,	-26491	,	-27412	,	16.78751	,	42
25,26	,	162272	,	-26500	,	-27406	,	11.96445	,	32
25,26	,	162288	,	-26507	,	-27427	,	7.566618	,	22
25,26	,	162320	,	-26502	,	-27391	,	3.6727772	,	13
25,26	,	162336	,	-26513	,	-27415	,	0.32386017	,	6
25,26	,	162352	,	-26524	,	-27419	,	-2.518101	,	2
25,26	,	162384	,	-26529	,	-27420	,	-5.0541453	,	0
25,26	,	162400	,	-26537	,	-27419	,	-7.4853754	,	0
25,26	,	162432	,	-26551	,	-27430	,	-9.928268	,	0
25,26	,	162448	,	-26557	,	-27433	,	-12.471039	,	0
25,26	,	162464	,	-26565	,	-27433	,	-15.126274	,	0
25,26	,	162496	,	-26570	,	-27435	,	-17.769304	,	0
25,26	,	162512	,	-26575	,	-27453	,	-20.181408	,	0
25,26	,	162528	,	-26582	,	-27463	,	-22.13861	,	0
25,26	,	162562	,	-26605	,	-27450	,	-23.582226	,	0
25,26	,	162576	,	-26622	,	-27472	,	-24.779964	,	0
25,26	,	162608	,	-26631	,	-27471	,	-26.151386	,	0
25,26	,	162624	,	-26630	,	-27480	,	-27.84306	,	0
25,26	,	162640	,	-26655	,	-27481	,	-29.664131	,	0
25,26	,	162672	,	-26631	,	-27467	,	-31.293104	,	0
25,26	,	162688	,	-26612	,	-27454	,	-32.10774	,	0
25,26	,	162704	,	-26586	,	-27438	,	-31.093323	,	0
25,26	,	162736	,	-26560	,	-27434	,	-27.29261	,	1
25,26	,	162752	,	-26549	,	-27430	,	-20.30274	,	4
25,26	,	162768	,	-26559	,	-27417	,	-10.641955	,	10
25,26	,	162800	,	-26525	,	-27416	,	0.38554	,	19
25,26	,	162816	,	-26532	,	-27413	,	11.416961	,	30
25,26	,	162848	,	-26520	,	-27418	,	21.369713	,	41
25,26	,	162864	,	-26515	,	-27408	,	29.405985	,	50
25,26	,	162880	,	-26527	,	-27411	,	34.967003	,	58
25,26	,	162912	,	-26529	,	-27412	,	37.66832	,	63
25,26	,	162928	,	-26520	,	-27408	,	37.409065	,	64
25,26	,	162944	,	-26510	,	-27414	,	34.684845	,	61
25,26	,	162975	,	-26525	,	-27412	,	30.379553	,	55
25,26	,	162991	,	-26523	,	-27424	,	25.222534	,	46
25,26	,	163024	,	-26506	,	-27390	,	19.772093	,	35
25,26	,	163040	,	-26528	,	-27419	,	14.600574	,	24
25,26	,	163056	,	-26527	,	-27413	,	10.0080595	,	15
25,26	,	163088	,	-26523	,	-27416	,	5.986759	,	7
25,27	,	163104	,	-26518	,	-27425	,	2.615499	,	2
25,27	,	163120	,	-26552	,	-27423	,	-0.05883503	,	0
25,27	,	163151	,	-26538	,	-27423	,	-2.3280478	,	0
25,27	,	163168	,	-26557	,	-27421	,	-4.535264	,	0
25,27	,	163184	,	-26550	,	-27430	,	-6.773866	,	0
25,27	,	163216	,	-26555	,	-27431	,	-8.924663	,	0
25,27	,	163231	,	-26575	,	-27450	,	-10.843229	,	0
25,27	,	163264	,	-26577	,	-27422	,	-12.596973	,	0
25,27	,	163280	,	-26603	,	-27450	,	-14.42912	,	0
25,27	,	163296	,	-26606	,	-27455	,	-16.589321	,	0
25,27	,	163327	,	-26623	,	-27450	,	-19.201086	,	0
25,27	,	163344	,	-26625	,	-27458	,	-22.161037	,	0
25,27	,	163359	,	-26619	,	-27457	,	-25.09694	,	0
25,27	,	163391	,	-26598	,	-27443	,	-27.292944	,	0
25,27	,	163407	,	-26581	,	-27426	,	-27.790798	,	0
25,27	,	163439	,	-26554	,	-27414	,	-25.717443	,	0
25,27	,	163456	,	-26531	,	-27416	,	-20.561548	,	2
25,27	,	163471	,	-26528	,	-27396	,	-12.41555	,	7
25,27	,	163504	,	-26509	,	-27393	,	-2.0987024	,	15
25,27	,	163519	,	-26498	,	-27384	,	9.16511	,	25
25,27	,	163535	,	-26491	,	-27376	,	20.165272	,	36
25,27	,	163567	,	-26492	,	-27374	,	29.797352	,	47
25,27	,	163584	,	-26490	,	-27377	,	37.109764	,	56
25,27	,	163599	,	-26478	,	-27373	,	41.534813	,	63
25,27	,	163631	,	-26489	,	-27376	,	43.014793	,	67
25,27	,	163647	,	-26492	,	-27374	,	41.772743	,	66
25,27	,	163679	,	-26496	,	-27373	,	38.131508	,	61
25,27	,	163695	,	-26472	,	-27376	,	32.71309	,	53
25,27	,	163711	,	-26470	,	-27354	,	26.57291	,	43
25,27	,	163743	,	-26483	,	-27366	,	20.73952	,	32
25,27	,	163759	,	-26485	,	-27359	,	15.651968	,	21
25,27	,	163775	,	-26476	,	-27369	,	11.322295	,	12
25,27	,	163807	,	-26484	,	-27377	,	7.7593966	,	5
25,27	,	163823	,	-26494	,	-27379	,	4.907055	,	1
25,27	,	163855	,	-26489	,	-27372	,	2.5339909	,	0
25,27	,	163871	,	-26504	,	-27380	,	0.4110067	,	0
25,27	,	163887	,	-26511	,	-27382	,	-1.6627216	,	0
25,27	,	163919	,	-26511	,	-27395	,	-3.868114	,	0
25,27	,	163935	,	-26530	,	-27412	,	-6.2643642	,	0
25,27	,	163951	,	-26537	,	-27378	,	-8.882442	,	0
25,27	,	163983	,	-26550	,	-27406	,	-11.778492	,	0
25,27	,	163999	,	-26567	,	-27413	,	-14.971962	,	0
25,27	,	164015	,	-26567	,	-27422	,	-18.415718	,	0
25,27	,	164048	,	-26579	,	-27415	,	-21.897724	,	0
25,27	,	164063	,	-26574	,	-27422	,	-25.03147	,	0
25,27	,	164095	,	-26541	,	-27394	,	-27.187126	,	0
25,28	,	164111	,	-26507	,	-27382	,	-27.310081	,	0
25,28	,	164127	,	-26479	,	-27365	,	-24.21368	,	0
25,28	,	164159	,	-26458	,	-27362	,	-17.266506	,	3
25,28	,	164175	,	-26449	,	-27364	,	-6.820367	,	9
25,28	,	164191	,	-26440	,	-27337	,	5.846917	,	19
25,28	,	164223	,	-26421	,	-27332	,	19.031534	,	31
25,28	,	164239	,	-26421	,	-27336	,	31.178452	,	44
25,28	,	164271	,	-26399	,	-27330	,	41.156258	,	56
25,28	,	164287	,	-26423	,	-27339	,	48.231224	,	65
25,28	,	164303	,	-26412	,	-27338	,	51.894287	,	72
25,28	,	164335	,	-26419	,	-27329	,	51.948883	,	75
25,28	,	164351	,	-26422	,	-27328	,	48.68754	,	72
25,28	,	164367	,	-26411	,	-27327	,	42.816803	,	66
25,28	,	164399	,	-26402	,	-27334	,	35.41786	,	56
25,28	,	164415	,	-26399	,	-27319	,	27.75826	,	44
25,28	,	164447	,	-26406	,	-27328	,	20.812546	,	31
25,28	,	164463	,	-26405	,	-27334	,	15.000982	,	19
25,28	,	164479	,	-26406	,	-27333	,	10.355544	,	10
25,28	,	164511	,	-26417	,	-27333	,	6.723398	,	3
25,28	,	164527	,	-26424	,	-27326	,	3.783299	,	0
25,28	,	164543	,	-26438	,	-27341	,	1.1045256	,	0
25,28	,	164575	,	-26439	,	-27347	,	-1.6698258	,	0
25,28	,	164591	,	-26441	,	-27344	,	-4.6319447	,	0
25,28	,	164607	,	-26433	,	-27345	,	-7.535507	,	0
25,28	,	164639	,	-26451	,	-27361	,	-10.003676	,	0
25,28	,	164655	,	-26452	,	-27338	,	-11.877747	,	0
25,28	,	164687	,	-26487	,	-27366	,	-13.382037	,	0
25,28	,	164703	,	-26493	,	-27370	,	-15.046067	,	0
25,28	,	164719	,	-26496	,	-27376	,	-17.292297	,	0
25,28	,	164751	,	-26477	,	-27360	,	-19.913893	,	0
25,28	,	164767	,	-26445	,	-27341	,	-21.94473	,	0
25,28	,	164783	,	-26410	,	-27318	,	-21.954762	,	0
25,28	,	164815	,	-26385	,	-27312	,	-18.650158	,	0
25,28	,	164831	,	-26368	,	-27317	,	-11.522491	,	3
25,28	,	164863	,	-26342	,	-27303	,	-1.0492334	,	10
25,28	,	164879	,	-26338	,	-27306	,	11.573454	,	20
25,28	,	164895	,	-26328	,	-27283	,	24.737017	,	32
25,28	,	164927	,	-26312	,	-27277	,	36.80479	,	45
25,28	,	164943	,	-26305	,	-27279	,	46.57681	,	57
25,28	,	164959	,	-26311	,	-27289	,	53.34198	,	66
25,28	,	164991	,	-26315	,	-27283	,	56.63705	,	72
25,28	,	165007	,	-26319	,	-27276	,	56.248993	,	75
25,28	,	165023	,	-26320	,	-27275	,	52.398285	,	72
25,28	,	165055	,	-26311	,	-27277	,	45.815376	,	65
25,28	,	165071	,	-26303	,	-27277	,	37.66103	,	55
25,29	,	165103	,	-26302	,	-27271	,	29.228975	,	43
25,29	,	165119	,	-26309	,	-27270	,	21.500217	,	30
25,29	,	165135	,	-26318	,	-27275	,	14.881725	,	18
25,29	,	165166	,	-26332	,	-27274	,	9.271814	,	9
25,29	,	165183	,	-26319	,	-27282	,	4.411499	,	3
25,29	,	165199	,	-26330	,	-27292	,	0.24751091	,	0
25,29	,	165231	,	-26329	,	-27296	,	-3.1315417	,	0
25,29	,	165247	,	-26341	,	-27293	,	-5.749305	,	0
25,29	,	165278	,	-26341	,	-27293	,	-7.7548604	,	0
25,29	,	165295	,	-26359	,	-27304	,	-9.362134	,	0
25,29	,	165311	,	-26359	,	-27315	,	-10.8298	,	0
25,29	,	165343	,	-26374	,	-27318	,	-12.3676815	,	0
25,29	,	165359	,	-26390	,	-27300	,	-14.127647	,	0
25,29	,	165375	,	-26401	,	-27319	,	-16.278618	,	0
25,29	,	165407	,	-26385	,	-27312	,	-18.780304	,	0
25,29	,	165423	,	-26343	,	-27289	,	-20.910973	,	0
25,29	,	165439	,	-26319	,	-27285	,	-21.255129	,	0
25,29	,	165471	,	-26296	,	-27266	,	-18.475649	,	0
25,29	,	165487	,	-26276	,	-27262	,	-12.0746565	,	2
25,29	,	165518	,	-26250	,	-27253	,	-2.4424305	,	8
25,29	,	165535	,	-26253	,	-27250	,	9.375266	,	17
25,29	,	165552	,	-26240	,	-27244	,	21.831408	,	28
25,29	,	165583	,	-26235	,	-27260	,	33.26514	,	40
25,29	,	165599	,	-26231	,	-27226	,	42.375748	,	51
25,29	,	165615	,	-26226	,	-27235	,	48.39282	,	60
25,29	,	165647	,	-26240	,	-27234	,	50.992577	,	66
25,29	,	165663	,	-26238	,	-27244	,	50.144604	,	68
25,29	,	165694	,	-26227	,	-27248	,	46.216663	,	66
25,29	,	165710	,	-26232	,	-27233	,	40.08895	,	60
25,29	,	165727	,	-26236	,	-27243	,	32.78852	,	51
25,29	,	165759	,	-26238	,	-27239	,	25.123283	,	40
25,29	,	165775	,	-26241	,	-27244	,	17.685198	,	28
25,29	,	165791	,	-26231	,	-27248	,	10.964793	,	17
25,29	,	165823	,	-26232	,	-27232	,	5.4082336	,	8
25,29	,	165839	,	-26244	,	-27246	,	1.2587833	,	2
25,29	,	165854	,	-26264	,	-27257	,	-1.7136207	,	0
25,29	,	165887	,	-26260	,	-27254	,	-4.087369	,	0
25,29	,	165903	,	-26274	,	-27265	,	-6.3280964	,	0
25,29	,	165935	,	-26275	,	-27266	,	-8.6120825	,	0
25,29	,	165951	,	-26284	,	-27282	,	-10.931791	,	0
25,29	,	165967	,	-26299	,	-27287	,	-13.237409	,	0
25,29	,	165998	,	-26299	,	-27290	,	-15.529632	,	0
25,29	,	166014	,	-26312	,	-27304	,	-17.772097	,	0
25,29	,	166030	,	-26336	,	-27328	,	-19.948627	,	0
25,29	,	166062	,	-26342	,	-27289	,	-22.218624	,	0
25,29	,	166078	,	-26314	,	-27303	,	-24.528728	,	0
25,30	,	166110	,	-26279	,	-27275	,	-26.029037	,	0
25,30	,	166126	,	-26247	,	-27266	,	-25.246458	,	0
25,30	,	166143	,	-26234	,	-27244	,	-20.98256	,	0
25,30	,	166174	,	-26225	,	-27247	,	-13.0927725	,	4
25,30	,	166190	,	-26200	,	-27250	,	-2.4662962	,	11
25,30	,	166206	,	-26197	,	-27244	,	9.554299	,	21
25,30	,	166238	,	-26195	,	-27235	,	21.502985	,	33
25,30	,	166254	,	-26193	,	-27242	,	31.909029	,	44
25,30	,	166270	,	-26198	,	-27251	,	39.569733	,	54
25,30	,	166302	,	-26187	,	-27216	,	43.82028	,	61
25,30	,	166318	,	-26197	,	-27241	,	44.61563	,	65
25,30	,	166350	,	-26195	,	-27243	,	42.3456	,	65
25,30	,	166366	,	-26202	,	-27243	,	37.616875	,	61
25,30	,	166382	,	-26190	,	-27237	,	31.231316	,	54
25,30	,	166414	,	-26198	,	-27244	,	24.133942	,	44
25,30	,	166430	,	-26194	,	-27233	,	17.174679	,	32
25,30	,	166446	,	-26207	,	-27249	,	10.891014	,	21
25,30	,	166478	,	-26210	,	-27250	,	5.474989	,	11
25,30	,	166494	,	-26217	,	-27261	,	0.88959694	,	4
25,30	,	166526	,	-26230	,	-27263	,	-3.015926	,	0
25,30	,	166544	,	-26245	,	-27271	,	-6.510585	,	0
25,30	,	166558	,	-26245	,	-27276	,	-9.8758955	,	0
25,30	,	166590	,	-26259	,	-27277	,	-13.19212	,	0
25,30	,	166606	,	-26261	,	-27292	,	-16.35587	,	0
25,30	,	166622	,	-26276	,	-27298	,	-19.230682	,	0
25,30	,	166654	,	-26302	,	-27296	,	-21.829777	,	0
25,30	,	166670	,	-26319	,	-27315	,	-24.448563	,	0
25,30	,	166702	,	-26316	,	-27324	,	-27.360317	,	0
25,30	,	166718	,	-26323	,	-27326	,	-30.382275	,	0
25,30	,	166734	,	-26348	,	-27341	,	-33.085052	,	0
25,30	,	166766	,	-26358	,	-27320	,	-35.30268	,	0
25,30	,	166782	,	-26348	,	-27332	,	-37.012188	,	0
25,30	,	166798	,	-26326	,	-27320	,	-37.804825	,	0
25,30	,	166830	,	-26290	,	-27305	,	-36.745975	,	0
25,30	,	166846	,	-26278	,	-27302	,	-32.808235	,	1
25,30	,	166862	,	-26264	,	-27295	,	-25.572577	,	4
25,30	,	166894	,	-26257	,	-27291	,	-15.563313	,	11
25,30	,	166910	,	-26253	,	-27284	,	-4.0017347	,	21
25,30	,	166942	,	-26248	,	-27287	,	7.62086	,	32
25,30	,	166958	,	-26227	,	-27289	,	18.025045	,	43
25,30	,	166974	,	-26240	,	-27303	,	26.420462	,	53
25,30	,	167006	,	-26244	,	-27272	,	32.265038	,	61
25,30	,	167022	,	-26260	,	-27293	,	35.056187	,	66
25,30	,	167038	,	-26255	,	-27288	,	34.563614	,	67
25,30	,	167070	,	-26260	,	-27279	,	31.103615	,	64
25,30	,	167086	,	-26257	,	-27287	,	25.490128	,	57
25,31	,	167118	,	-26268	,	-27302	,	18.710386	,	47
25,31	,	167134	,	-26271	,	-27304	,	11.608605	,	36
25,31	,	167150	,	-26268	,	-27292	,	4.8321266	,	25
25,31	,	167182	,	-26272	,	-27300	,	-1.0745125	,	15
25,31	,	167198	,	-26278	,	-27307	,	-5.7457976	,	7
25,31	,	167214	,	-26294	,	-27318	,	-9.170259	,	2
25,31	,	167246	,	-26305	,	-27318	,	-11.694676	,	0
25,31	,	167262	,	-26316	,	-27326	,	-13.810103	,	0
25,31	,	167278	,	-26335	,	-27335	,	-15.945516	,	0
25,31	,	167310	,	-26342	,	-27342	,	-18.398153	,	0
25,31	,	167326	,	-26344	,	-27345	,	-21.19955	,	0
25,31	,	167358	,	-26380	,	-27352	,	-24.177376	,	0
25,31	,	167374	,	-26372	,	-27351	,	-27.23848	,	0
25,31	,	167390	,	-26386	,	-27357	,	-30.245907	,	0
25,31	,	167422	,	-26398	,	-27369	,	-32.898415	,	0
25,31	,	167438	,	-26404	,	-27383	,	-34.964687	,	0
25,31	,	167454	,	-26430	,	-27364	,	-36.411922	,	0
25,31	,	167486	,	-26436	,	-27383	,	-37.41452	,	0
25,31	,	167502	,	-26439	,	-27396	,	-38.14338	,	0
25,31	,	167534	,	-26440	,	-27379	,	-38.485954	,	0
25,31	,	167550	,	-26405	,	-27360	,	-37.96303	,	0
25,31	,	167566	,	-26387	,	-27359	,	-35.72453	,	0
25,31	,	167598	,	-26377	,	-27355	,	-30.965462	,	2
25,31	,	167614	,	-26371	,	-27362	,	-23.580406	,	6
25,31	,	167630	,	-26368	,	-27346	,	-14.28793	,	13
25,31	,	167662	,	-26361	,	-27350	,	-4.2547693	,	22
25,31	,	167678	,	-26376	,	-27370	,	5.2616587	,	32
25,31	,	167694	,	-26370	,	-27326	,	13.098896	,	41
25,31	,	167726	,	-26375	,	-27344	,	18.450241	,	48
25,31	,	167742	,	-26386	,	-27355	,	21.009819	,	53
25,31	,	167774	,	-26378	,	-27353	,	20.873901	,	55
25,31	,	167790	,	-26384	,	-27362	,	18.525665	,	53
25,31	,	167805	,	-26383	,	-27361	,	14.721875	,	49
25,31	,	167838	,	-26379	,	-27363	,	10.25286	,	42
25,31	,	167854	,	-26389	,	-27362	,	5.7970276	,	33
25,31	,	167870	,	-26388	,	-27364	,	1.7915215	,	23
25,31	,	167902	,	-26395	,	-27373	,	-1.5784817	,	14
25,31	,	167918	,	-26405	,	-27390	,	-4.318122	,	7
25,31	,	167950	,	-26405	,	-27361	,	-6.5724907	,	2
25,31	,	167966	,	-26438	,	-27390	,	-8.603114	,	0
25,31	,	167982	,	-26431	,	-27382	,	-10.781221	,	0
25,31	,	168014	,	-26444	,	-27386	,	-13.319113	,	0
25,31	,	168030	,	-26448	,	-27386	,	-16.084236	,	0
25,31	,	168046	,	-26468	,	-27402	,	-18.853996	,	0
25,31	,	168078	,	-26472	,	-27409	,	-21.52766	,	0
25,31	,	168094	,	-26486	,	-27420	,	-24.059576	,	0
25,32	,	168110	,	-26489	,	-27420	,	-26.357891	,	0
25,32	,	168142	,	-26503	,	-27429	,	-28.300951	,	0
25,32	,	168158	,	-26518	,	-27418	,	-29.855669	,	0
25,32	,	168190	,	-26529	,	-27439	,	-31.13635	,	0
25,32	,	168206	,	-26544	,	-27453	,	-32.302437	,	0
25,32	,	168222	,	-26568	,	-27452	,	-33.529434	,	0
25,32	,	168253	,	-26559	,	-27467	,	-34.94593	,	0
25,32	,	168269	,	-26567	,	-27455	,	-36.352673	,	0
25,32	,	168286	,	-26572	,	-27464	,	-37.276043	,	0
25,32	,	168318	,	-26547	,	-27444	,	-37.22026	,	0
25,32	,	168334	,	-26523	,	-27424	,	-35.53512	,	0
25,32	,	168366	,	-26503	,	-27421	,	-31.448673	,	1
25,32	,	168382	,	-26500	,	-27434	,	-24.609928	,	5
25,32	,	168398	,	-26498	,	-27404	,	-15.509745	,	11
25,32	,	168429	,	-26493	,	-27424	,	-5.3217134	,	20
25,32	,	168445	,	-26489	,	-27414	,	4.625599	,	30
25,32	,	168461	,	-26486	,	-27424	,	13.255903	,	39
25,32	,	168494	,	-26485	,	-27418	,	19.869444	,	47
25,32	,	168510	,	-26488	,	-27426	,	24.10733	,	53
25,32	,	168526	,	-26505	,	-27430	,	25.81525	,	57
25,32	,	168558	,	-26500	,	-27419	,	24.98794	,	57
25,32	,	168573	,	-26486	,	-27426	,	22.02092	,	53
25,32	,	168605	,	-26482	,	-27421	,	17.845036	,	47
25,32	,	168621	,	-26481	,	-27433	,	13.516024	,	38
25,32	,	168637	,	-26501	,	-27422	,	9.65818	,	28
25,32	,	168669	,	-26503	,	-27424	,	6.291958	,	19
25,32	,	168686	,	-26507	,	-27435	,	3.1658607	,	11
25,32	,	168701	,	-26502	,	-27436	,	0.18953323	,	5
25,32	,	168733	,	-26512	,	-27433	,	-2.5124252	,	1
25,32	,	168749	,	-26528	,	-27435	,	-4.8908315	,	0
25,32	,	168781	,	-26536	,	-27439	,	-7.1524773	,	0
25,32	,	168797	,	-26544	,	-27443	,	-9.5584	,	0
25,32	,	168813	,	-26542	,	-27450	,	-12.137321	,	0
25,32	,	168845	,	-26556	,	-27453	,	-14.683318	,	0
25,32	,	168862	,	-26564	,	-27442	,	-17.00914	,	0
25,32	,	168878	,	-26560	,	-27454	,	-19.01579	,	0
25,32	,	168909	,	-26591	,	-27470	,	-20.644175	,	0
25,32	,	168925	,	-26604	,	-27475	,	-22.092201	,	0
25,32	,	168957	,	-26617	,	-27485	,	-23.777626	,	0
25,32	,	168973	,	-26630	,	-27488	,	-25.94746	,	0
25,32	,	168989	,	-26642	,	-27497	,	-28.561932	,	0
25,32	,	169021	,	-26641	,	-27500	,	-31.351044	,	0
25,32	,	169037	,	-26642	,	-27491	,	-33.812305	,	0
25,32	,	169053	,	-26620	,	-27474	,	-35.241245	,	0
25,32	,	169085	,	-26587	,	-27475	,	-34.72799	,	0
25,33	,	169101	,	-26569	,	-27443	,	-31.319323	,	0
25,33	,	169117	,	-26559	,	-27457	,	-24.57584	,	3
25,33	,	169149	,	-26547	,	-27446	,	-14.962055	,	9
25,33	,	169166	,	-26549	,	-27439	,	-3.6736526	,	18
25,33	,	169197	,	-26532	,	-27437	,	7.8130026	,	29
25,33	,	169213	,	-26538	,	-27426	,	18.176409	,	40
25,33	,	169229	,	-26534	,	-27421	,	26.419905	,	50
25,33	,	169261	,	-26530	,	-27427	,	31.92651	,	58
25,33	,	169277	,	-26529	,	-27431	,	34.56183	,	63
25,33	,	169293	,	-26539	,	-27430	,	34.541492	,	65
25,33	,	169325	,	-26536	,	-27443	,	32.212296	,	62
25,33	,	169341	,	-26536	,	-27410	,	28.074205	,	56
25,33	,	169373	,	-26537	,	-27433	,	22.805973	,	47
25,33	,	169389	,	-26530	,	-27414	,	17.143902	,	36
25,33	,	169405	,	-26533	,	-27419	,	11.761634	,	25
25,33	,	169437	,	-26537	,	-27426	,	7.1238394	,	15
25,33	,	169453	,	-26540	,	-27421	,	3.3950052	,	7
25,33	,	169469	,	-26546	,	-27422	,	0.5105634	,	2
25,33	,	169501	,	-26548	,	-27420	,	-1.7119744	,	0
25,33	,	169517	,	-26554	,	-27438	,	-3.4788857	,	0
25,33	,	169535	,	-26558	,	-27446	,	-4.968632	,	0
25,33	,	169565	,	-26575	,	-27433	,	-6.3729224	,	0
25,33	,	169581	,	-26575	,	-27443	,	-7.9102683	,	0
25,33	,	169613	,	-26593	,	-27444	,	-9.734503	,	0
25,33	,	169629	,	-26602	,	-27442	,	-11.93055	,	0
25,33	,	169645	,	-26606	,	-27449	,	-14.511228	,	0
25,33	,	169677	,	-26623	,	-27464	,	-17.349262	,	0
25,33	,	169693	,	-26631	,	-27462	,	-20.27843	,	0
25,33	,	169709	,	-26633	,	-27475	,	-23.13086	,	0
25,33	,	169741	,	-26658	,	-27481	,	-25.71997	,	0
25,33	,	169757	,	-26649	,	-27480	,	-27.935255	,	0
25,33	,	169789	,	-26657	,	-27484	,	-29.622137	,	0
25,33	,	169805	,	-26618	,	-27446	,	-30.323753	,	0
25,33	,	169821	,	-26562	,	-27428	,	-29.021336	,	0
25,33	,	169853	,	-26543	,	-27419	,	-24.328213	,	1
25,33	,	169869	,	-26547	,	-27407	,	-15.630553	,	5
25,33	,	169885	,	-26527	,	-27404	,	-3.8246279	,	13
25,33	,	169917	,	-26522	,	-27407	,	9.336506	,	24
25,33	,	169933	,	-26520	,	-27404	,	22.062359	,	37
25,33	,	169949	,	-26501	,	-27397	,	32.890602	,	49
25,33	,	169981	,	-26502	,	-27398	,	40.9517	,	59
25,33	,	169997	,	-26504	,	-27401	,	45.891857	,	67
25,33	,	170029	,	-26505	,	-27405	,	47.605576	,	71
25,33	,	170045	,	-26505	,	-27372	,	46.23983	,	71
25,33	,	170061	,	-26497	,	-27386	,	42.30806	,	67
25,33	,	170093	,	-26498	,	-27375	,	36.64781	,	59
25,34	,	170109	,	-26489	,	-27382	,	30.206573	,	48
25,34	,	170125	,	-26494	,	-27373	,	23.81346	,	35
25,34	,	170157	,	-26494	,	-27381	,	18.014507	,	23
25,34	,	170173	,	-26501	,	-27387	,	13.016623	,	13
25,34	,	170205	,	-26501	,	-27389	,	8.795163	,	5
25,34	,	170221	,	-26502	,	-27395	,	5.263694	,	1
25,34	,	170237	,	-26496	,	-27402	,	2.4010968	,	0
25,34	,	170269	,	-26513	,	-27387	,	0.19473076	,	0
25,34	,	170285	,	-26517	,	-27395	,	-1.553035	,	0
25,34	,	170301	,	-26533	,	-27407	,	-3.2180758	,	0
25,34	,	170333	,	-26550	,	-27415	,	-5.2149487	,	0
25,34	,	170348	,	-26548	,	-27416	,	-7.8400135	,	0
25,34	,	170364	,	-26554	,	-27421	,	-11.024203	,	0
25,34	,	170397	,	-26571	,	-27410	,	-14.414021	,	0
25,34	,	170413	,	-26575	,	-27422	,	-17.729855	,	0
25,34	,	170445	,	-26577	,	-27429	,	-20.765991	,	0
25,34	,	170461	,	-26586	,	-27424	,	-23.256723	,	0
25,34	,	170476	,	-26588	,	-27440	,	-24.985558	,	0
25,34	,	170508	,	-26558	,	-27398	,	-25.697306	,	0
25,34	,	170527	,	-26530	,	-27398	,	-24.7655	,	0
25,34	,	170541	,	-26483	,	-27370	,	-21.221237	,	0
25,34	,	170573	,	-26470	,	-27362	,	-14.276332	,	3
25,34	,	170589	,	-26442	,	-27368	,	-3.9225779	,	9
25,34	,	170621	,	-26442	,	-27359	,	8.884252	,	19
25,34	,	170636	,	-26431	,	-27352	,	22.505264	,	31
25,34	,	170652	,	-26424	,	-27349	,	35.141647	,	44
25,34	,	170685	,	-26422	,	-27352	,	45.337364	,	56
25,34	,	170701	,	-26415	,	-27350	,	52.19102	,	66
25,34	,	170718	,	-26427	,	-27368	,	55.3163	,	72
25,34	,	170749	,	-26430	,	-27334	,	54.68448	,	75
25,34	,	170764	,	-26410	,	-27349	,	50.692947	,	72
25,34	,	170781	,	-26404	,	-27342	,	44.3843	,	66
25,34	,	170812	,	-26407	,	-27341	,	37.10376	,	56
25,34	,	170828	,	-26395	,	-27340	,	29.924498	,	44
25,34	,	170861	,	-26399	,	-27339	,	23.541332	,	31
25,34	,	170877	,	-26416	,	-27359	,	18.22525	,	19
25,34	,	170893	,	-26394	,	-27341	,	13.85658	,	9
25,34	,	170925	,	-26401	,	-27349	,	10.340464	,	3
25,34	,	170940	,	-26421	,	-27344	,	7.5968666	,	0
25,34	,	170956	,	-26417	,	-27380	,	5.254154	,	0
25,34	,	170989	,	-26419	,	-27349	,	2.9449735	,	0
25,34	,	171005	,	-26444	,	-27357	,	0.51560044	,	0
25,34	,	171037	,	-26452	,	-27362	,	-2.258578	,	0
25,34	,	171053	,	-26458	,	-27365	,	-5.6105957	,	0
25,34	,	171068	,	-26462	,	-27373	,	-9.452079	,	0
25,35	,	171100	,	-26471	,	-27379	,	-13.412164	,	0
25,35	,	171116	,	-26474	,	-27385	,	-17.083118	,	0
25,35	,	171132	,	-26497	,	-27387	,	-20.220407	,	0
25,35	,	171164	,	-26491	,	-27398	,	-22.800362	,	0
25,35	,	171181	,	-26471	,	-27389	,	-24.675093	,	0
25,35	,	171197	,	-26431	,	-27350	,	-25.124987	,	0
25,35	,	171229	,	-26411	,	-27333	,	-23.027107	,	0
25,35	,	171245	,	-26359	,	-27323	,	-17.453312	,	2
25,35	,	171277	,	-26346	,	-27318	,	-8.067411	,	7
25,35	,	171292	,	-26335	,	-27324	,	4.5636206	,	16
25,35	,	171308	,	-26335	,	-27305	,	18.852718	,	28
25,35	,	171340	,	-26318	,	-27306	,	32.737885	,	42
25,35	,	171357	,	-26314	,	-27298	,	44.469044	,	55
25,35	,	171373	,	-26320	,	-27293	,	52.8961	,	66
25,35	,	171404	,	-26323	,	-27301	,	57.34073	,	74
25,35	,	171420	,	-26320	,	-27310	,	57.609413	,	78
25,35	,	171452	,	-26330	,	-27276	,	54.07163	,	76
25,35	,	171468	,	-26313	,	-27290	,	47.573254	,	71
25,35	,	171484	,	-26315	,	-27287	,	39.323956	,	62
25,35	,	171516	,	-26300	,	-27291	,	30.667006	,	50
25,35	,	171532	,	-26301	,	-27289	,	22.762884	,	36
25,35	,	171548	,	-26311	,	-27281	,	16.295242	,	23
25,35	,	171581	,	-26305	,	-27290	,	11.357255	,	12
25,35	,	171596	,	-26304	,	-27296	,	7.751753	,	4
25,35	,	171613	,	-26317	,	-27300	,	5.225199	,	0
25,35	,	171644	,	-26315	,	-27306	,	3.4082441	,	0
25,35	,	171660	,	-26332	,	-27318	,	1.863596	,	0
25,35	,	171692	,	-26329	,	-27305	,	0.21479797	,	0
25,35	,	171708	,	-26351	,	-27320	,	-1.7955222	,	0
25,35	,	171724	,	-26358	,	-27329	,	-4.3422537	,	0
25,35	,	171756	,	-26359	,	-27329	,	-7.4658604	,	0
25,35	,	171772	,	-26357	,	-27334	,	-10.881941	,	0
25,35	,	171788	,	-26381	,	-27346	,	-14.146696	,	0
25,35	,	171820	,	-26389	,	-27338	,	-17.0839	,	0
25,35	,	171836	,	-26394	,	-27344	,	-19.75824	,	0
25,35	,	171868	,	-26359	,	-27326	,	-21.95435	,	0
25,35	,	171884	,	-26322	,	-27304	,	-22.753096	,	0
25,35	,	171900	,	-26291	,	-27299	,	-20.791306	,	0
25,35	,	171932	,	-26285	,	-27282	,	-15.177001	,	1
25,35	,	171948	,	-26252	,	-27257	,	-6.0810947	,	6
25,35	,	171964	,	-26241	,	-27262	,	5.543647	,	15
25,35	,	171996	,	-26242	,	-27251	,	18.314405	,	26
25,35	,	172012	,	-26224	,	-27251	,	30.592302	,	38
25,35	,	172028	,	-26211	,	-27248	,	40.99341	,	50
25,35	,	172060	,	-26225	,	-27258	,	48.65848	,	60
25,35	,	172076	,	-26223	,	-27256	,	52.986595	,	67
25,36	,	172108	,	-26220	,	-27259	,	53.680298	,	71
25,36	,	172124	,	-26221	,	-27260	,	51.013245	,	70
25,36	,	172140	,	-26205	,	-27238	,	45.782745	,	65
25,36	,	172172	,	-26211	,	-27248	,	39.07487	,	56
25,36	,	172188	,	-26216	,	-27239	,	31.871254	,	45
25,36	,	172204	,	-26214	,	-27242	,	24.780666	,	33
25,36	,	172236	,	-26218	,	-27242	,	18.174667	,	21
25,36	,	172252	,	-26206	,	-27251	,	12.376766	,	11
25,36	,	172284	,	-26225	,	-27252	,	7.6220617	,	4
25,36	,	172300	,	-26229	,	-27260	,	3.846345	,	0
25,36	,	172316	,	-26246	,	-27266	,	0.66241074	,	0
25,36	,	172348	,	-26252	,	-27278	,	-2.3881185	,	0
25,36	,	172364	,	-26271	,	-27302	,	-5.6477203	,	0
25,36	,	172380	,	-26267	,	-27265	,	-9.248636	,	0
25,36	,	172412	,	-26288	,	-27298	,	-13.073956	,	0
25,36	,	172428	,	-26296	,	-27304	,	-16.926329	,	0
25,36	,	172460	,	-26302	,	-27308	,	-20.64727	,	0
25,36	,	172476	,	-26325	,	-27315	,	-24.098251	,	0
25,36	,	172492	,	-26325	,	-27320	,	-27.212408	,	0
25,36	,	172524	,	-26325	,	-27328	,	-29.857487	,	0
25,36	,	172540	,	-26313	,	-27316	,	-31.616964	,	0
25,36	,	172556	,	-26289	,	-27298	,	-31.815311	,	0
25,36	,	172588	,	-26256	,	-27284	,	-29.636559	,	0
25,36	,	172604	,	-26235	,	-27266	,	-24.374733	,	2
25,36	,	172620	,	-26209	,	-27256	,	-15.824446	,	7
25,36	,	172652	,	-26185	,	-27245	,	-4.4246035	,	15
25,36	,	172668	,	-26177	,	-27243	,	8.853468	,	26
25,36	,	172700	,	-26176	,	-27241	,	22.568672	,	39
25,36	,	172716	,	-26167	,	-27251	,	35.041096	,	52
25,36	,	172732	,	-26179	,	-27246	,	44.78953	,	64
25,36	,	172764	,	-26174	,	-27241	,	50.792152	,	73
25,36	,	172780	,	-26178	,	-27246	,	52.63562	,	79
25,36	,	172796	,	-26160	,	-27243	,	50.657806	,	78
25,36	,	172828	,	-26171	,	-27253	,	45.808685	,	73
25,36	,	172844	,	-26178	,	-27234	,	39.13421	,	65
25,36	,	172876	,	-26174	,	-27245	,	31.445257	,	54
25,36	,	172892	,	-26176	,	-27252	,	23.457655	,	41
25,36	,	172907	,	-26188	,	-27249	,	15.8061695	,	28
25,36	,	172940	,	-26183	,	-27258	,	8.8947525	,	16
25,36	,	172956	,	-26189	,	-27257	,	2.9796467	,	7
25,36	,	172972	,	-26197	,	-27265	,	-1.7983117	,	1
25,36	,	173004	,	-26210	,	-27276	,	-5.549019	,	0
25,36	,	173020	,	-26225	,	-27279	,	-8.633923	,	0
25,36	,	173036	,	-26230	,	-27286	,	-11.472941	,	0
25,36	,	173068	,	-26247	,	-27304	,	-14.337948	,	0
25,36	,	173084	,	-26256	,	-27268	,	-17.333508	,	0
25,37	,	173115	,	-26270	,	-27303	,	-20.46653	,	0
25,37	,	173132	,	-26285	,	-27313	,	-23.687424	,	0
25,37	,	173147	,	-26303	,	-27325	,	-26.968338	,	0
25,37	,	173179	,	-26313	,	-27335	,	-30.298939	,	0
25,37	,	173196	,	-26323	,	-27338	,	-33.562767	,	0
25,37	,	173212	,	-26327	,	-27333	,	-36.483597	,	0
25,37	,	173244	,	-26332	,	-27345	,	-38.691887	,	0
25,37	,	173260	,	-26335	,	-27337	,	-39.83956	,	0
25,37	,	173291	,	-26297	,	-27321	,	-39.51853	,	0
25,37	,	173308	,	-26279	,	-27315	,	-37.037052	,	0
25,37	,	173323	,	-26260	,	-27291	,	-31.701088	,	2
25,37	,	173355	,	-26245	,	-27304	,	-23.395964	,	7
25,37	,	173372	,	-26234	,	-27296	,	-12.718117	,	15
25,37	,	173388	,	-26235	,	-27283	,	-0.804183	,	25
25,37	,	173420	,	-26233	,	-27273	,	10.890079	,	36
25,37	,	173436	,	-26217	,	-27287	,	21.025738	,	47
25,37	,	173452	,	-26222	,	-27284	,	28.779976	,	57
25,37	,	173484	,	-26226	,	-27286	,	33.753635	,	64
25,37	,	173499	,	-26229	,	-27289	,	35.747856	,	68
25,37	,	173531	,	-26224	,	-27300	,	34.868126	,	67
25,37	,	173547	,	-26228	,	-27285	,	31.624062	,	62
25,37	,	173563	,	-26228	,	-27299	,	26.75104	,	54
25,37	,	173596	,	-26236	,	-27290	,	20.971954	,	44
25,37	,	173612	,	-26254	,	-27299	,	14.802514	,	33
25,37	,	173628	,	-26244	,	-27308	,	8.541707	,	22
25,37	,	173660	,	-26253	,	-27309	,	2.531025	,	12
25,37	,	173676	,	-26260	,	-27310	,	-2.8344774	,	5
25,37	,	173707	,	-26264	,	-27315	,	-7.3387685	,	1
25,37	,	173724	,	-26277	,	-27323	,	-10.965308	,	0
25,37	,	173739	,	-26298	,	-27326	,	-13.908412	,	0
25,37	,	173771	,	-26317	,	-27343	,	-16.618595	,	0
25,37	,	173787	,	-26303	,	-27316	,	-19.464418	,	0
25,37	,	173803	,	-26339	,	-27353	,	-22.415897	,	0
25,37	,	173836	,	-26341	,	-27360	,	-25.34669	,	0
25,37	,	173852	,	-26364	,	-27362	,	-28.27539	,	0
25,37	,	173868	,	-26373	,	-27375	,	-31.219788	,	0
25,37	,	173899	,	-26394	,	-27379	,	-34.1496	,	0
25,37	,	173915	,	-26400	,	-27387	,	-36.98974	,	0
25,37	,	173947	,	-26413	,	-27390	,	-39.574974	,	0
25,37	,	173963	,	-26426	,	-27403	,	-41.699635	,	0
25,37	,	173979	,	-26433	,	-27402	,	-43.21196	,	0
25,37	,	174011	,	-26447	,	-27423	,	-44.027145	,	0
25,37	,	174027	,	-26452	,	-27391	,	-44.123634	,	0
25,37	,	174043	,	-26408	,	-27383	,	-43.27677	,	0
25,37	,	174075	,	-26377	,	-27373	,	-40.624725	,	0
25,37	,	174091	,	-26383	,	-27372	,	-35.14647	,	2
25,38	,	174123	,	-26360	,	-27373	,	-26.68342	,	7
25,38	,	174139	,	-26366	,	-27359	,	-16.053959	,	15
25,38	,	174155	,	-26365	,	-27366	,	-4.6128426	,	25
25,38	,	174187	,	-26351	,	-27365	,	6.182171	,	36
25,38	,	174203	,	-26359	,	-27358	,	15.23433	,	46
25,38	,	174219	,	-26357	,	-27362	,	21.880707	,	55
25,38	,	174251	,	-26371	,	-27367	,	25.72941	,	61
25,38	,	174267	,	-26375	,	-27373	,	26.630106	,	64
25,38	,	174283	,	-26370	,	-27361	,	24.785599	,	62
25,38	,	174315	,	-26382	,	-27371	,	20.807041	,	57
25,38	,	174331	,	-26377	,	-27369	,	15.492775	,	49
25,38	,	174363	,	-26374	,	-27373	,	9.673999	,	39
25,38	,	174379	,	-26383	,	-27363	,	4.1418905	,	28
25,38	,	174395	,	-26380	,	-27367	,	-0.5644765	,	18
25,38	,	174427	,	-26396	,	-27378	,	-4.258311	,	9
25,38	,	174443	,	-26391	,	-27382	,	-7.022831	,	3
25,38	,	174459	,	-26408	,	-27387	,	-9.064618	,	0
25,38	,	174491	,	-26419	,	-27371	,	-10.681463	,	0
25,38	,	174507	,	-26428	,	-27396	,	-12.251656	,	0
25,38	,	174539	,	-26436	,	-27407	,	-14.044588	,	0
25,38	,	174555	,	-26453	,	-27413	,	-16.15485	,	0
25,38	,	174571	,	-26471	,	-27413	,	-18.656464	,	0
25,38	,	174603	,	-26472	,	-27416	,	-21.58971	,	0
25,38	,	174619	,	-26492	,	-27424	,	-24.803911	,	0
25,38	,	174635	,	-26488	,	-27427	,	-27.983934	,	0
25,38	,	174667	,	-26507	,	-27436	,	-30.77692	,	0
25,38	,	174683	,	-26506	,	-27449	,	-32.90014	,	0
25,38	,	174715	,	-26519	,	-27467	,	-34.1989	,	0
25,38	,	174731	,	-26526	,	-27438	,	-34.657364	,	0
25,38	,	174747	,	-26542	,	-27467	,	-34.43532	,	0
25,38	,	174779	,	-26528	,	-27445	,	-33.72377	,	0
25,38	,	174795	,	-26515	,	-27442	,	-32.397896	,	0
25,38	,	174811	,	-26500	,	-27440	,	-29.959528	,	1
25,38	,	174843	,	-26480	,	-27424	,	-25.866611	,	3
25,38	,	174859	,	-26480	,	-27425	,	-19.889782	,	7
25,38	,	174875	,	-26482	,	-27421	,	-12.397529	,	12
25,38	,	174907	,	-26474	,	-27418	,	-4.305498	,	19
25,38	,	174923	,	-26467	,	-27424	,	3.4177322	,	27
25,38	,	174955	,	-26469	,	-27412	,	10.081453	,	34
25,38	,	174971	,	-26460	,	-27405	,	15.257306	,	40
25,38	,	174987	,	-26474	,	-27427	,	18.710726	,	45
25,38	,	175019	,	-26473	,	-27424	,	20.305817	,	47
25,38	,	175035	,	-26472	,	-27427	,	20.038895	,	46
25,38	,	175051	,	-26481	,	-27422	,	18.143414	,	42
25,38	,	175083	,	-26475	,	-27424	,	15.022993	,	37
25,39	,	175099	,	-26467	,	-27413	,	11.244356	,	30
25,39	,	175131	,	-26470	,	-27416	,	7.4967003	,	22
25,39	,	175147	,	-26489	,	-27420	,	4.2154055	,	15
25,39	,	175163	,	-26489	,	-27434	,	1.3499122	,	9
25,39	,	175195	,	-26504	,	-27408	,	-1.3712962	,	4
25,39	,	175211	,	-26500	,	-27439	,	-4.1221647	,	1
25,39	,	175227	,	-26513	,	-27445	,	-6.8934746	,	0
25,39	,	175259	,	-26533	,	-27436	,	-9.663315	,	0
25,39	,	175275	,	-26526	,	-27458	,	-12.506135	,	0
25,39	,	175291	,	-26532	,	-27459	,	-15.32642	,	0
25,39	,	175323	,	-26542	,	-27464	,	-17.819633	,	0
25,39	,	175339	,	-26550	,	-27471	,	-19.797255	,	0
25,39	,	175371	,	-26567	,	-27474	,	-21.313059	,	0
25,39	,	175387	,	-26584	,	-27474	,	-22.62795	,	0
25,39	,	175403	,	-26598	,	-27490	,	-24.107845	,	0
25,39	,	175435	,	-26600	,	-27480	,	-25.962034	,	0
25,39	,	175451	,	-26622	,	-27496	,	-28.117924	,	0
25,39	,	175467	,	-26637	,	-27496	,	-30.448227	,	0
25,39	,	175499	,	-26639	,	-27495	,	-32.86795	,	0
25,39	,	175515	,	-26613	,	-27505	,	-34.975826	,	0
25,39	,	175547	,	-26593	,	-27479	,	-35.801544	,	0
25,39	,	175563	,	-26573	,	-27470	,	-34.18387	,	0
25,39	,	175579	,	-26570	,	-27465	,	-29.474466	,	1
25,39	,	175610	,	-26556	,	-27458	,	-21.900015	,	5
25,39	,	175627	,	-26549	,	-27458	,	-12.346579	,	12
25,39	,	175643	,	-26550	,	-27451	,	-1.9922409	,	21
25,39	,	175675	,	-26538	,	-27460	,	7.9452114	,	31
25,39	,	175691	,	-26528	,	-27443	,	16.530989	,	40
25,39	,	175707	,	-26539	,	-27437	,	23.215042	,	48
25,39	,	175739	,	-26536	,	-27440	,	27.60468	,	54
25,39	,	175755	,	-26549	,	-27438	,	29.42855	,	58
25,39	,	175786	,	-26531	,	-27439	,	28.747623	,	58
25,39	,	175802	,	-26534	,	-27430	,	26.096092	,	54
25,39	,	175819	,	-26543	,	-27419	,	22.231583	,	47
25,39	,	175851	,	-26527	,	-27434	,	17.799221	,	38
25,39	,	175867	,	-26539	,	-27435	,	13.352076	,	28
25,39	,	175883	,	-26532	,	-27415	,	9.3207035	,	19
25,39	,	175915	,	-26545	,	-27427	,	5.885003	,	11
25,39	,	175931	,	-26548	,	-27436	,	2.9946384	,	5
25,39	,	175962	,	-26554	,	-27437	,	0.47090197	,	1
25,39	,	175978	,	-26543	,	-27437	,	-1.7781591	,	0
25,39	,	175994	,	-26563	,	-27449	,	-3.698339	,	0
25,39	,	176026	,	-26571	,	-27444	,	-5.365151	,	0
25,39	,	176043	,	-26577	,	-27458	,	-7.053175	,	0
25,39	,	176059	,	-26583	,	-27459	,	-8.947628	,	0
25,39	,	176091	,	-26587	,	-27458	,	-11.0165615	,	0
25,40	,	176107	,	-26601	,	-27489	,	-13.139954	,	0
25,40	,	176122	,	-26602	,	-27456	,	-15.223293	,	0
25,40	,	176154	,	-26626	,	-27480	,	-17.241472	,	0
25,40	,	176170	,	-26636	,	-27481	,	-19.308685	,	0
25,40	,	176202	,	-26628	,	-27490	,	-21.509321	,	0
25,40	,	176219	,	-26646	,	-27498	,	-23.638023	,	0
25,40	,	176234	,	-26651	,	-27493	,	-25.4209	,	0
25,40	,	176266	,	-26628	,	-27475	,	-26.61776	,	0
25,40	,	176282	,	-26594	,	-27459	,	-26.594036	,	0
25,40	,	176298	,	-26578	,	-27446	,	-24.32931	,	0
25,40	,	176330	,	-26566	,	-27432	,	-19.15301	,	2
25,40	,	176346	,	-26550	,	-27439	,	-11.237671	,	7
25,40	,	176378	,	-26543	,	-27423	,	-1.4251528	,	14
25,40	,	176394	,	-26538	,	-27411	,	9.094254	,	23
25,40	,	176410	,	-26527	,	-27419	,	19.064613	,	33
25,40	,	176442	,	-26521	,	-27412	,	27.493542	,	42
25,40	,	176458	,	-26510	,	-27411	,	33.821167	,	50
25,40	,	176474	,	-26517	,	-27414	,	37.82771	,	56
25,40	,	176507	,	-26521	,	-27414	,	39.413654	,	60
25,40	,	176523	,	-26508	,	-27410	,	38.613228	,	59
25,40	,	176538	,	-26518	,	-27405	,	35.782692	,	54
25,40	,	176570	,	-26503	,	-27413	,	31.52907	,	47
25,40	,	176586	,	-26500	,	-27379	,	26.583609	,	38
25,40	,	176618	,	-26506	,	-27401	,	21.652954	,	28
25,40	,	176634	,	-26510	,	-27401	,	17.124325	,	19
25,40	,	176650	,	-26503	,	-27411	,	13.088196	,	11
25,40	,	176682	,	-26515	,	-27406	,	9.569762	,	5
25,40	,	176698	,	-26522	,	-27402	,	6.4874344	,	1
25,40	,	176714	,	-26531	,	-27410	,	3.5937476	,	0
25,40	,	176746	,	-26541	,	-27415	,	0.6193819	,	0
25,40	,	176762	,	-26541	,	-27406	,	-2.5676215	,	0
25,40	,	176794	,	-26537	,	-27416	,	-5.8218355	,	0
25,40	,	176810	,	-26550	,	-27428	,	-8.787385	,	0
25,40	,	176826	,	-26565	,	-27406	,	-11.27994	,	0
25,40	,	176858	,	-26564	,	-27420	,	-13.417593	,	0
25,40	,	176874	,	-26578	,	-27430	,	-15.343869	,	0
25,40	,	176890	,	-26583	,	-27434	,	-17.110176	,	0
25,40	,	176922	,	-26587	,	-27445	,	-18.716192	,	0
25,40	,	176938	,	-26586	,	-27448	,	-20.048626	,	0
25,40	,	176954	,	-26566	,	-27433	,	-20.78529	,	0
25,40	,	176986	,	-26530	,	-27409	,	-20.252865	,	0
25,40	,	177002	,	-26527	,	-27402	,	-17.598557	,	0
25,40	,	177034	,	-26488	,	-27388	,	-12.32773	,	2
25,40	,	177050	,	-26482	,	-27398	,	-4.5128365	,	7
25,40	,	177066	,	-26474	,	-27369	,	5.203988	,	14
25,41	,	177098	,	-26465	,	-27373	,	15.644063	,	23
25,41	,	177114	,	-26456	,	-27366	,	25.499054	,	33
25,41	,	177130	,	-26458	,	-27366	,	33.705418	,	42
25,41	,	177162	,	-26449	,	-27364	,	39.526234	,	50
25,41	,	177178	,	-26456	,	-27374	,	42.58619	,	55
25,41	,	177210	,	-26453	,	-27356	,	42.842453	,	58
25,41	,	177226	,	-26449	,	-27361	,	40.570347	,	56
25,41	,	177242	,	-26443	,	-27358	,	36.392662	,	51
25,41	,	177274	,	-26434	,	-27366	,	31.170086	,	44
25,41	,	177290	,	-26440	,	-27352	,	25.744535	,	35
25,41	,	177306	,	-26450	,	-27371	,	20.619223	,	25
25,41	,	177338	,	-26446	,	-27363	,	15.889562	,	16
25,41	,	177354	,	-26455	,	-27372	,	11.517364	,	8
25,41	,	177386	,	-26436	,	-27367	,	7.581975	,	3
25,41	,	177402	,	-26450	,	-27369	,	4.3101864	,	0
25,41	,	177418	,	-26446	,	-27370	,	1.8509512	,	0
25,41	,	177450	,	-26461	,	-27377	,	0.078252554	,	0
25,41	,	177466	,	-26469	,	-27371	,	-1.3622744	,	0
25,41	,	177482	,	-26473	,	-27379	,	-2.8702958	,	0
25,41	,	177514	,	-26477	,	-27392	,	-4.6545076	,	0
25,41	,	177530	,	-26487	,	-27372	,	-6.700173	,	0
25,41	,	177546	,	-26499	,	-27403	,	-8.961441	,	0
25,41	,	177578	,	-26523	,	-27407	,	-11.5213585	,	0
25,41	,	177594	,	-26519	,	-27409	,	-14.515224	,	0
25,41	,	177626	,	-26529	,	-27409	,	-17.838535	,	0
25,41	,	177642	,	-26507	,	-27407	,	-20.9893	,	0
25,41	,	177658	,	-26489	,	-27382	,	-23.094496	,	0
25,41	,	177690	,	-26467	,	-27374	,	-23.119205	,	0
25,41	,	177706	,	-26434	,	-27357	,	-20.22644	,	0
25,41	,	177722	,	-26408	,	-27359	,	-13.982195	,	2
25,41	,	177754	,	-26397	,	-27358	,	-4.5475416	,	8
25,41	,	177770	,	-26389	,	-27323	,	7.121563	,	17
25,41	,	177802	,	-26373	,	-27326	,	19.517166	,	28
25,41	,	177818	,	-26370	,	-27330	,	31.115946	,	40
25,41	,	177834	,	-26367	,	-27340	,	40.66847	,	51
25,41	,	177866	,	-26364	,	-27335	,	47.28536	,	60
25,41	,	177881	,	-26376	,	-27325	,	50.47868	,	66
25,41	,	177898	,	-26380	,	-27329	,	50.10041	,	69
25,41	,	177930	,	-26376	,	-27325	,	46.39591	,	67
25,41	,	177946	,	-26364	,	-27319	,	40.16754	,	61
25,41	,	177962	,	-26369	,	-27325	,	32.620323	,	52
25,41	,	177994	,	-26359	,	-27326	,	24.924425	,	41
25,41	,	178010	,	-26359	,	-27329	,	17.966375	,	29
25,41	,	178041	,	-26359	,	-27328	,	12.292379	,	18
25,41	,	178057	,	-26363	,	-27327	,	8.0519495	,	9
25,41	,	178074	,	-26379	,	-27328	,	4.998008	,	3
25,42	,	178106	,	-26374	,	-27332	,	2.6503944	,	0
25,42	,	178122	,	-26386	,	-27342	,	0.59307957	,	0
25,42	,	178138	,	-26398	,	-27337	,	-1.4627974	,	0
25,42	,	178170	,	-26405	,	-27334	,	-3.7840455	,	0
25,42	,	178185	,	-26403	,	-27343	,	-6.469284	,	0
25,42	,	178218	,	-26421	,	-27355	,	-9.369166	,	0
25,42	,	178234	,	-26431	,	-27344	,	-12.341179	,	0
25,42	,	178250	,	-26426	,	-27354	,	-15.296747	,	0
25,42	,	178282	,	-26458	,	-27367	,	-18.100744	,	0
25,42	,	178298	,	-26460	,	-27377	,	-20.762848	,	0
25,42	,	178314	,	-26421	,	-27357	,	-23.157503	,	0
25,42	,	178345	,	-26405	,	-27334	,	-24.42101	,	0
25,42	,	178361	,	-26362	,	-27322	,	-23.240213	,	0
25,42	,	178377	,	-26342	,	-27308	,	-18.592499	,	1
25,42	,	178410	,	-26334	,	-27305	,	-10.285529	,	5
25,42	,	178426	,	-26307	,	-27296	,	0.87350273	,	13
25,42	,	178458	,	-26300	,	-27307	,	13.515804	,	24
25,42	,	178474	,	-26298	,	-27257	,	26.123177	,	36
25,42	,	178490	,	-26281	,	-27283	,	37.231163	,	48
25,42	,	178521	,	-26290	,	-27268	,	45.724438	,	59
25,42	,	178537	,	-26290	,	-27275	,	50.89482	,	67
25,42	,	178553	,	-26292	,	-27274	,	52.402985	,	72
25,42	,	178585	,	-26287	,	-27280	,	50.41554	,	72
25,42	,	178602	,	-26286	,	-27273	,	45.615547	,	68
25,42	,	178633	,	-26277	,	-27290	,	39.01211	,	60
25,42	,	178649	,	-26286	,	-27277	,	31.658098	,	49
25,42	,	178665	,	-26289	,	-27281	,	24.337172	,	37
25,42	,	178698	,	-26286	,	-27290	,	17.502958	,	25
25,42	,	178714	,	-26287	,	-27284	,	11.467883	,	14
25,42	,	178730	,	-26297	,	-27289	,	6.425084	,	6
25,42	,	178761	,	-26312	,	-27290	,	2.286827	,	1
25,42	,	178778	,	-26311	,	-27297	,	-1.2652187	,	0
25,42	,	178793	,	-26322	,	-27300	,	-4.4990845	,	0
25,42	,	178825	,	-26329	,	-27301	,	-7.532338	,	0
25,42	,	178841	,	-26323	,	-27306	,	-10.349823	,	0
25,42	,	178873	,	-26346	,	-27314	,	-12.834259	,	0
25,42	,	178890	,	-26358	,	-27323	,	-15.02513	,	0
25,42	,	178906	,	-26366	,	-27340	,	-17.172276	,	0
25,42	,	178937	,	-26371	,	-27321	,	-19.41008	,	0
25,42	,	178953	,	-26388	,	-27349	,	-21.6719	,	0
25,42	,	178970	,	-26396	,	-27343	,	-23.883749	,	0
25,42	,	179002	,	-26374	,	-27332	,	-25.853737	,	0
25,42	,	179018	,	-26346	,	-27322	,	-26.883326	,	0
25,42	,	179049	,	-26318	,	-27302	,	-25.821625	,	0
25,42	,	179065	,	-26298	,	-27293	,	-21.687666	,	1
25,42	,	179081	,	-26289	,	-27290	,	-14.269675	,	5
25,43	,	179114	,	-26275	,	-27289	,	-4.2604475	,	12
25,43	,	179129	,	-26256	,	-27274	,	7.1304913	,	22
25,43	,	179145	,	-26252	,	-27294	,	18.639977	,	33
25,43	,	179177	,	-26254	,	-27250	,	29.05045	,	44
25,43	,	179193	,	-26250	,	-27276	,	37.231976	,	54
25,43	,	179209	,	-26247	,	-27277	,	42.42626	,	62
25,43	,	179241	,	-26265	,	-27281	,	44.341408	,	67
25,43	,	179257	,	-26262	,	-27270	,	42.98234	,	67
25,43	,	179289	,	-26252	,	-27267	,	38.75963	,	63
25,43	,	179305	,	-26262	,	-27270	,	32.574234	,	56
25,43	,	179322	,	-26253	,	-27271	,	25.461105	,	46
25,43	,	179353	,	-26269	,	-27266	,	18.261082	,	35
25,43	,	179369	,	-26258	,	-27279	,	11.552385	,	24
25,43	,	179385	,	-26264	,	-27284	,	5.7436914	,	14
25,43	,	179417	,	-26262	,	-27274	,	1.1321344	,	6
25,43	,	179433	,	-26281	,	-27295	,	-2.2505221	,	1
25,43	,	179465	,	-26287	,	-27292	,	-4.7399096	,	0
25,43	,	179481	,	-26287	,	-27306	,	-6.788074	,	0
25,43	,	179497	,	-26317	,	-27306	,	-8.738586	,	0
25,43	,	179529	,	-26311	,	-27310	,	-10.89542	,	0
25,43	,	179545	,	-26334	,	-27319	,	-13.448985	,	0
25,43	,	179561	,	-26345	,	-27333	,	-16.425625	,	0
25,43	,	179593	,	-26351	,	-27335	,	-19.766726	,	0
25,43	,	179609	,	-26363	,	-27342	,	-23.257599	,	0
25,43	,	179625	,	-26381	,	-27326	,	-26.628765	,	0
25,43	,	179657	,	-26387	,	-27351	,	-29.732893	,	0
25,43	,	179673	,	-26380	,	-27344	,	-32.36865	,	0
25,43	,	179705	,	-26334	,	-27328	,	-33.86689	,	0
25,43	,	179721	,	-26316	,	-27313	,	-33.017906	,	0
25,43	,	179737	,	-26307	,	-27303	,	-28.81382	,	0
25,43	,	179769	,	-26277	,	-27299	,	-21.158594	,	4
25,43	,	179785	,	-26283	,	-27287	,	-10.777544	,	11
25,43	,	179801	,	-26267	,	-27284	,	1.0563936	,	21
25,43	,	179833	,	-26260	,	-27285	,	12.859698	,	32
25,43	,	179849	,	-26259	,	-27292	,	23.355331	,	43
25,43	,	179881	,	-26248	,	-27264	,	31.625063	,	53
25,43	,	179897	,	-26259	,	-27291	,	37.12475	,	61
25,43	,	179913	,	-26270	,	-27287	,	39.555332	,	66
25,43	,	179945	,	-26266	,	-27295	,	38.813457	,	68
25,43	,	179961	,	-26267	,	-27289	,	35.230698	,	64
25,43	,	179977	,	-26274	,	-27284	,	29.57159	,	57
25,43	,	180009	,	-26270	,	-27277	,	22.731281	,	47
25,43	,	180025	,	-26277	,	-27286	,	15.558653	,	36
25,43	,	180057	,	-26278	,	-27289	,	8.754878	,	25
25,43	,	180073	,	-26275	,	-27291	,	2.8216934	,	15
25,43	,	180089	,	-26287	,	-27321	,	-1.9379578	,	7
25,44	,	180121	,	-26297	,	-27285	,	-5.5369115	,	2
25,44	,	180137	,	-26317	,	-27311	,	-8.3541765	,	0
25,44	,	180153	,	-26324	,	-27315	,	-10.930247	,	0
25,44	,	180185	,	-26335	,	-27320	,	-13.659509	,	0
25,44	,	180201	,	-26344	,	-27331	,	-16.643436	,	0
25,44	,	180217	,	-26341	,	-27336	,	-19.712568	,	0
25,44	,	180249	,	-26360	,	-27344	,	-22.541664	,	0
25,44	,	180265	,	-26383	,	-27350	,	-24.986065	,	0
25,44	,	180297	,	-26392	,	-27356	,	-27.24466	,	0
25,44	,	180313	,	-26401	,	-27358	,	-29.520641	,	0
25,44	,	180329	,	-26417	,	-27360	,	-31.791546	,	0
25,44	,	180361	,	-26426	,	-27386	,	-33.946873	,	0
25,44	,	180377	,	-26414	,	-27376	,	-35.7633	,	0
25,44	,	180393	,	-26399	,	-27370	,	-36.674995	,	0
25,44	,	180425	,	-26373	,	-27346	,	-35.805557	,	0
25,44	,	180441	,	-26364	,	-27329	,	-32.35897	,	0
25,44	,	180473	,	-26335	,	-27334	,	-26.01313	,	3
25,44	,	180489	,	-26344	,	-27336	,	-17.089989	,	9
25,44	,	180505	,	-26334	,	-27325	,	-6.591428	,	17
25,44	,	180537	,	-26324	,	-27317	,	4.1215343	,	27
25,44	,	180553	,	-26325	,	-27324	,	13.859807	,	37
25,44	,	180569	,	-26324	,	-27304	,	21.743324	,	46
25,44	,	180600	,	-26325	,	-27318	,	27.165703	,	53
25,44	,	180617	,	-26329	,	-27320	,	29.855816	,	58
25,44	,	180633	,	-26336	,	-27322	,	29.847626	,	60
25,44	,	180665	,	-26337	,	-27313	,	27.424187	,	57
25,44	,	180681	,	-26339	,	-27318	,	23.12117	,	51
25,44	,	180713	,	-26348	,	-27314	,	17.624441	,	43
25,44	,	180729	,	-26328	,	-27324	,	11.679977	,	33
25,44	,	180745	,	-26342	,	-27325	,	6.086092	,	23
25,44	,	180777	,	-26338	,	-27320	,	1.4470291	,	14
25,44	,	180793	,	-26345	,	-27344	,	-2.030519	,	7
25,44	,	180809	,	-26355	,	-27312	,	-4.461216	,	2
25,44	,	180841	,	-26369	,	-27336	,	-6.223934	,	0
25,44	,	180857	,	-26375	,	-27343	,	-7.8213863	,	0
25,44	,	180889	,	-26393	,	-27348	,	-9.663669	,	0
25,44	,	180905	,	-26403	,	-27353	,	-12.010105	,	0
25,44	,	180921	,	-26423	,	-27362	,	-14.988326	,	0
25,44	,	180953	,	-26432	,	-27371	,	-18.593376	,	0
25,44	,	180969	,	-26441	,	-27375	,	-22.639587	,	0
25,44	,	180985	,	-26444	,	-27389	,	-26.71626	,	0
25,44	,	181017	,	-26457	,	-27399	,	-30.318165	,	0
25,44	,	181033	,	-26469	,	-27396	,	-33.10968	,	0
25,44	,	181049	,	-26468	,	-27405	,	-34.977695	,	0
25,44	,	181081	,	-26493	,	-27412	,	-35.932064	,	0
25,44	,	181097	,	-26458	,	-27390	,	-35.98037	,	0
25,45	,	181128	,	-26439	,	-27372	,	-34.743206	,	0
25,45	,	181145	,	-26423	,	-27366	,	-31.449549	,	1
25,45	,	181161	,	-26402	,	-27368	,	-25.574366	,	4
25,45	,	181193	,	-26388	,	-27365	,	-17.183033	,	9
25,45	,	181209	,	-26394	,	-27366	,	-6.9548483	,	17
25,45	,	181224	,	-26382	,	-27346	,	3.887	,	27
25,45	,	181257	,	-26388	,	-27369	,	13.965419	,	37
25,45	,	181273	,	-26381	,	-27339	,	22.156006	,	47
25,45	,	181305	,	-26387	,	-27350	,	27.755947	,	55
25,45	,	181320	,	-26388	,	-27364	,	30.48935	,	60
25,45	,	181337	,	-26387	,	-27359	,	30.453894	,	61
25,45	,	181369	,	-26394	,	-27352	,	28.066315	,	58
25,45	,	181384	,	-26396	,	-27352	,	23.917057	,	53
25,45	,	181401	,	-26397	,	-27361	,	18.648155	,	45
25,45	,	181433	,	-26394	,	-27350	,	12.947849	,	35
25,45	,	181448	,	-26399	,	-27360	,	7.4754934	,	25
25,45	,	181464	,	-26403	,	-27365	,	2.6876354	,	15
25,45	,	181497	,	-26401	,	-27385	,	-1.20503	,	7
25,45	,	181513	,	-26427	,	-27347	,	-4.232627	,	2
25,45	,	181545	,	-26430	,	-27380	,	-6.7311983	,	0
25,45	,	181560	,	-26439	,	-27380	,	-9.120598	,	0
25,45	,	181576	,	-26443	,	-27389	,	-11.574719	,	0
25,45	,	181608	,	-26465	,	-27387	,	-14.103777	,	0
25,45	,	181624	,	-26465	,	-27388	,	-16.740845	,	0
25,45	,	181640	,	-26480	,	-27395	,	-19.46294	,	0
25,45	,	181673	,	-26493	,	-27413	,	-22.174538	,	0
25,45	,	181689	,	-26503	,	-27412	,	-24.824654	,	0
25,45	,	181720	,	-26502	,	-27418	,	-27.309189	,	0
25,45	,	181737	,	-26521	,	-27436	,	-29.400919	,	0
25,45	,	181752	,	-26524	,	-27427	,	-30.941532	,	0
25,45	,	181784	,	-26535	,	-27436	,	-31.911655	,	0
25,45	,	181800	,	-26495	,	-27416	,	-32.123856	,	0
25,45	,	181816	,	-26471	,	-27403	,	-30.845766	,	0
25,45	,	181848	,	-26456	,	-27383	,	-27.093437	,	1
25,45	,	181864	,	-26447	,	-27383	,	-20.46394	,	4
25,45	,	181880	,	-26451	,	-27383	,	-11.519769	,	10
25,45	,	181912	,	-26429	,	-27370	,	-1.452322	,	18
25,45	,	181929	,	-26426	,	-27374	,	8.542688	,	28
25,45	,	181960	,	-26420	,	-27373	,	17.552254	,	37
25,45	,	181976	,	-26418	,	-27354	,	24.869925	,	46
25,45	,	181992	,	-26428	,	-27374	,	29.94778	,	53
25,45	,	182024	,	-26433	,	-27367	,	32.386887	,	58
25,45	,	182040	,	-26439	,	-27370	,	32.02534	,	59
25,45	,	182056	,	-26425	,	-27372	,	29.143637	,	56
25,45	,	182088	,	-26416	,	-27370	,	24.575062	,	50
25,46	,	182104	,	-26428	,	-27365	,	19.396431	,	42
25,46	,	182136	,	-26442	,	-27375	,	14.29963	,	32
25,46	,	182152	,	-26433	,	-27365	,	9.468909	,	23
25,46	,	182168	,	-26443	,	-27368	,	5.0013714	,	14
25,46	,	182200	,	-26442	,	-27384	,	1.0513105	,	7
25,46	,	182216	,	-26456	,	-27357	,	-2.3188643	,	2
25,46	,	182232	,	-26460	,	-27379	,	-5.1996565	,	0
25,46	,	182264	,	-26463	,	-27383	,	-7.731065	,	0
25,46	,	182280	,	-26476	,	-27387	,	-9.989017	,	0
25,46	,	182296	,	-26478	,	-27396	,	-12.029543	,	0
25,46	,	182328	,	-26487	,	-27401	,	-13.897721	,	0
25,46	,	182344	,	-26498	,	-27398	,	-15.613327	,	0
25,46	,	182376	,	-26501	,	-27402	,	-17.214321	,	0
25,46	,	182392	,	-26525	,	-27405	,	-18.779097	,	0
25,46	,	182408	,	-26528	,	-27408	,	-20.458134	,	0
25,46	,	182440	,	-26526	,	-27427	,	-22.289406	,	0
25,46	,	182456	,	-26542	,	-27419	,	-24.042072	,	0
25,46	,	182472	,	-26529	,	-27402	,	-25.392494	,	0
25,46	,	182504	,	-26487	,	-27387	,	-25.77948	,	0
25,46	,	182520	,	-26474	,	-27379	,	-24.20803	,	0
25,46	,	182552	,	-26451	,	-27369	,	-19.818111	,	1
25,46	,	182568	,	-26445	,	-27367	,	-12.518278	,	5
25,46	,	182584	,	-26430	,	-27354	,	-3.0053682	,	12
25,46	,	182616	,	-26423	,	-27357	,	7.562703	,	21
25,46	,	182632	,	-26424	,	-27348	,	17.893957	,	31
25,46	,	182648	,	-26411	,	-27352	,	26.809647	,	41
25,46	,	182680	,	-26413	,	-27342	,	33.49235	,	49
25,46	,	182696	,	-26415	,	-27357	,	37.525913	,	55
25,46	,	182728	,	-26418	,	-27351	,	38.763042	,	59
25,46	,	182744	,	-26416	,	-27352	,	37.338673	,	59
25,46	,	182760	,	-26418	,	-27342	,	33.70633	,	55
25,46	,	182792	,	-26402	,	-27355	,	28.605095	,	48
25,46	,	182808	,	-26419	,	-27350	,	22.910421	,	39
25,46	,	182824	,	-26406	,	-27349	,	17.32732	,	29
25,46	,	182856	,	-26423	,	-27350	,	12.249202	,	19
25,46	,	182872	,	-26417	,	-27357	,	7.8188744	,	11
25,46	,	182888	,	-26425	,	-27357	,	4.040635	,	5
25,46	,	182920	,	-26416	,	-27330	,	0.9279642	,	1
25,46	,	182936	,	-26438	,	-27361	,	-1.5339806	,	0
25,46	,	182968	,	-26442	,	-27365	,	-3.5714564	,	0
25,46	,	182984	,	-26433	,	-27367	,	-5.4554844	,	0
25,46	,	183000	,	-26455	,	-27376	,	-7.2323427	,	0
25,46	,	183032	,	-26456	,	-27374	,	-8.922894	,	0
25,46	,	183048	,	-26476	,	-27376	,	-10.69792	,	0
25,46	,	183064	,	-26469	,	-27384	,	-12.688326	,	0
25,46	,	183096	,	-26481	,	-27386	,	-14.807667	,	0
25,47	,	183112	,	-26487	,	-27388	,	-16.84539	,	0
25,47	,	183144	,	-26503	,	-27410	,	-18.70187	,	0
25,47	,	183160	,	-26494	,	-27373	,	-20.358963	,	0
25,47	,	183176	,	-26439	,	-27363	,	-21.36923	,	0
25,47	,	183207	,	-26422	,	-27350	,	-20.538506	,	0
25,47	,	183223	,	-26404	,	-27341	,	-16.683475	,	0
25,47	,	183240	,	-26389	,	-27332	,	-9.567765	,	3
25,47	,	183272	,	-26370	,	-27336	,	0.12834644	,	10
25,47	,	183288	,	-26358	,	-27317	,	11.286142	,	19
25,47	,	183304	,	-26362	,	-27311	,	22.584034	,	30
25,47	,	183336	,	-26353	,	-27309	,	32.624557	,	41
25,47	,	183352	,	-26347	,	-27314	,	40.283424	,	51
25,47	,	183384	,	-26356	,	-27316	,	44.94226	,	58
25,47	,	183400	,	-26356	,	-27317	,	46.360348	,	62
25,47	,	183416	,	-26353	,	-27317	,	44.654663	,	63
25,47	,	183447	,	-26336	,	-27307	,	40.464706	,	60
25,47	,	183464	,	-26339	,	-27299	,	34.848934	,	53
25,47	,	183481	,	-26328	,	-27309	,	28.873747	,	44
25,47	,	183512	,	-26334	,	-27305	,	23.311375	,	33
25,47	,	183528	,	-26334	,	-27309	,	18.540829	,	22
25,47	,	183560	,	-26334	,	-27305	,	14.592491	,	12
25,47	,	183576	,	-26339	,	-27305	,	11.329369	,	5
25,47	,	183592	,	-26347	,	-27320	,	8.53973	,	1
25,47	,	183623	,	-26351	,	-27293	,	5.9591064	,	0
25,47	,	183640	,	-26370	,	-27322	,	3.308846	,	0
25,47	,	183656	,	-26357	,	-27320	,	0.39581466	,	0
25,47	,	183688	,	-26378	,	-27331	,	-2.7368848	,	0
25,47	,	183704	,	-26375	,	-27333	,	-5.9106407	,	0
25,47	,	183720	,	-26374	,	-27331	,	-8.917707	,	0
25,47	,	183752	,	-26393	,	-27335	,	-11.5300665	,	0
25,47	,	183768	,	-26397	,	-27341	,	-13.702893	,	0
25,47	,	183799	,	-26393	,	-27350	,	-15.511431	,	0
25,47	,	183815	,	-26397	,	-27347	,	-16.864437	,	0
25,47	,	183832	,	-26391	,	-27356	,	-17.544455	,	0
25,47	,	183864	,	-26362	,	-27307	,	-17.229183	,	0
25,47	,	183880	,	-26304	,	-27296	,	-15.175617	,	0
25,47	,	183896	,	-26288	,	-27293	,	-10.287788	,	2
25,47	,	183928	,	-26267	,	-27282	,	-1.9948263	,	6
25,47	,	183943	,	-26257	,	-27287	,	9.128972	,	14
25,47	,	183976	,	-26256	,	-27272	,	21.60934	,	25
25,47	,	183992	,	-26248	,	-27272	,	33.612774	,	37
25,47	,	184008	,	-26241	,	-27261	,	43.52384	,	49
25,47	,	184039	,	-26244	,	-27270	,	50.31377	,	58
25,47	,	184055	,	-26235	,	-27275	,	53.552494	,	64
25,47	,	184071	,	-26249	,	-27274	,	53.292465	,	67
25,48	,	184103	,	-26250	,	-27273	,	49.869205	,	65
25,48	,	184119	,	-26240	,	-27257	,	43.873444	,	61
25,48	,	184135	,	-26232	,	-27251	,	36.31082	,	53
25,48	,	184167	,	-26230	,	-27254	,	28.412504	,	42
25,48	,	184183	,	-26237	,	-27262	,	21.139482	,	30
25,48	,	184215	,	-26235	,	-27264	,	14.938887	,	18
25,48	,	184231	,	-26247	,	-27270	,	9.861778	,	9
25,48	,	184248	,	-26236	,	-27270	,	5.7891464	,	3
25,48	,	184279	,	-26247	,	-27275	,	2.60531	,	0
25,48	,	184295	,	-26254	,	-27281	,	0.15442228	,	0
25,48	,	184311	,	-26261	,	-27258	,	-1.8562434	,	0
25,48	,	184343	,	-26264	,	-27280	,	-3.719594	,	0
25,48	,	184359	,	-26281	,	-27289	,	-5.6339364	,	0
25,48	,	184391	,	-26292	,	-27297	,	-7.796304	,	0
25,48	,	184407	,	-26311	,	-27303	,	-10.429803	,	0
25,48	,	184423	,	-26312	,	-27307	,	-13.644641	,	0
25,48	,	184455	,	-26318	,	-27309	,	-17.256008	,	0
25,48	,	184471	,	-26333	,	-27321	,	-20.864376	,	0
25,48	,	184487	,	-26335	,	-27310	,	-24.126362	,	0
25,48	,	184519	,	-26302	,	-27302	,	-26.603722	,	0
25,48	,	184535	,	-26278	,	-27307	,	-27.394474	,	0
25,48	,	184551	,	-26249	,	-27252	,	-25.376806	,	0
25,48	,	184584	,	-26212	,	-27254	,	-19.77192	,	2
25,48	,	184599	,	-26204	,	-27253	,	-10.478502	,	7
25,48	,	184631	,	-26196	,	-27249	,	1.676363	,	16
25,48	,	184647	,	-26174	,	-27240	,	15.119038	,	28
25,48	,	184663	,	-26170	,	-27241	,	28.192402	,	41
25,48	,	184695	,	-26169	,	-27236	,	39.48449	,	54
25,48	,	184711	,	-26174	,	-27238	,	47.820557	,	65
25,48	,	184727	,	-26179	,	-27241	,	52.379375	,	73
25,48	,	184759	,	-26169	,	-27241	,	52.91658	,	77
25,48	,	184775	,	-26175	,	-27250	,	49.86392	,	75
25,48	,	184807	,	-26171	,	-27225	,	44.10998	,	70
25,48	,	184823	,	-26172	,	-27233	,	36.690613	,	61
25,48	,	184839	,	-26177	,	-27246	,	28.586649	,	49
25,48	,	184871	,	-26172	,	-27238	,	20.598433	,	36
25,48	,	184887	,	-26178	,	-27239	,	13.335455	,	23
25,48	,	184903	,	-26181	,	-27247	,	7.180545	,	12
25,48	,	184936	,	-26194	,	-27254	,	2.2039948	,	4
25,48	,	184951	,	-26197	,	-27257	,	-1.7896066	,	0
25,48	,	184983	,	-26199	,	-27256	,	-5.045841	,	0
25,48	,	184999	,	-26233	,	-27276	,	-7.8284516	,	0
25,48	,	185015	,	-26227	,	-27253	,	-10.540155	,	0
25,48	,	185047	,	-26240	,	-27268	,	-13.455778	,	0
25,48	,	185063	,	-26262	,	-27287	,	-16.576979	,	0
25,48	,	185079	,	-26267	,	-27281	,	-19.890984	,	0
25,49	,	185111	,	-26280	,	-27293	,	-23.345833	,	0
