Data recorded on Mon Jul 24 11-59-52 CAT 2017
Time: 12:0:10
Time		Millis		IR PPG		Red PPG		Filtered		SSF
0,19	,	46792	,	-17634	,	-16264	,	4.6327696	,	1
0,19	,	46824	,	-17642	,	-16259	,	4.0964947	,	0
0,19	,	46840	,	-17636	,	-16251	,	3.537538	,	0
0,19	,	46856	,	-17636	,	-16266	,	2.8771572	,	0
0,19	,	46888	,	-17642	,	-16266	,	2.154748	,	0
0,19	,	46904	,	-17646	,	-16266	,	1.3655887	,	0
0,19	,	46936	,	-17647	,	-16270	,	0.43988442	,	0
0,19	,	46952	,	-17652	,	-16266	,	-0.65276766	,	0
0,19	,	46968	,	-17655	,	-16265	,	-1.8932004	,	0
0,19	,	47000	,	-17658	,	-16269	,	-3.236771	,	0
0,19	,	47016	,	-17669	,	-16268	,	-4.6457324	,	0
0,19	,	47032	,	-17657	,	-16273	,	-6.0698833	,	0
0,19	,	47064	,	-17661	,	-16271	,	-7.3193593	,	0
0,19	,	47080	,	-17668	,	-16285	,	-8.170543	,	0
0,19	,	47112	,	-17663	,	-16268	,	-8.581141	,	0
0,19	,	47128	,	-17676	,	-16276	,	-8.64334	,	0
0,19	,	47144	,	-17674	,	-16284	,	-8.517929	,	0
0,19	,	47176	,	-17676	,	-16282	,	-8.361376	,	0
0,19	,	47192	,	-17684	,	-16287	,	-8.244817	,	0
0,19	,	47208	,	-17687	,	-16280	,	-8.236686	,	0
0,19	,	47239	,	-17694	,	-16288	,	-8.430902	,	0
0,19	,	47255	,	-17680	,	-16288	,	-8.798603	,	0
0,19	,	47272	,	-17682	,	-16276	,	-9.07614	,	0
0,19	,	47304	,	-17668	,	-16279	,	-8.8784485	,	0
0,19	,	47320	,	-17666	,	-16288	,	-7.8890486	,	0
0,19	,	47352	,	-17660	,	-16278	,	-5.9826984	,	0
0,19	,	47367	,	-17652	,	-16277	,	-3.2520218	,	1
0,19	,	47384	,	-17653	,	-16278	,	0.059396505	,	3
0,19	,	47416	,	-17641	,	-16266	,	3.6217012	,	6
0,19	,	47432	,	-17633	,	-16272	,	7.1572437	,	9
0,19	,	47448	,	-17642	,	-16271	,	10.453372	,	12
0,19	,	47480	,	-17643	,	-16261	,	13.156991	,	15
0,19	,	47495	,	-17645	,	-16272	,	14.830279	,	17
0,19	,	47527	,	-17649	,	-16268	,	15.213286	,	18
0,19	,	47544	,	-17644	,	-16278	,	14.326029	,	18
0,19	,	47560	,	-17639	,	-16274	,	12.473902	,	17
0,19	,	47592	,	-17642	,	-16269	,	10.13447	,	15
0,19	,	47607	,	-17632	,	-16274	,	7.765789	,	12
0,19	,	47623	,	-17643	,	-16270	,	5.7011476	,	9
0,19	,	47655	,	-17640	,	-16275	,	4.0534925	,	6
0,19	,	47671	,	-17639	,	-16269	,	2.7586865	,	3
0,19	,	47687	,	-17646	,	-16269	,	1.7335138	,	1
0,19	,	47720	,	-17650	,	-16281	,	0.85787296	,	0
0,19	,	47736	,	-17642	,	-16271	,	0.0059491396	,	0
0,19	,	47767	,	-17649	,	-16281	,	-0.8153775	,	0
0,19	,	47783	,	-17654	,	-16288	,	-1.5630879	,	0
0,19	,	47799	,	-17654	,	-16278	,	-2.287289	,	0
0,20	,	47831	,	-17655	,	-16280	,	-3.031262	,	0
0,20	,	47847	,	-17660	,	-16287	,	-3.769342	,	0
0,20	,	47864	,	-17663	,	-16280	,	-4.486325	,	0
0,20	,	47895	,	-17657	,	-16289	,	-5.160847	,	0
0,20	,	47911	,	-17661	,	-16289	,	-5.6841245	,	0
0,20	,	47944	,	-17664	,	-16295	,	-5.950682	,	0
0,20	,	47960	,	-17662	,	-16290	,	-5.9611583	,	0
0,20	,	47975	,	-17673	,	-16289	,	-5.8001986	,	0
0,20	,	48007	,	-17682	,	-16296	,	-5.6733527	,	0
0,20	,	48023	,	-17684	,	-16301	,	-5.861253	,	0
0,20	,	48039	,	-17689	,	-16290	,	-6.5128603	,	0
0,20	,	48071	,	-17687	,	-16296	,	-7.551413	,	0
0,20	,	48087	,	-17690	,	-16290	,	-8.736371	,	0
0,20	,	48103	,	-17693	,	-16297	,	-9.802677	,	0
0,20	,	48136	,	-17700	,	-16293	,	-10.606968	,	0
0,20	,	48151	,	-17698	,	-16298	,	-11.131957	,	0
0,20	,	48183	,	-17709	,	-16309	,	-11.41453	,	0
0,20	,	48199	,	-17708	,	-16301	,	-11.538206	,	0
0,20	,	48215	,	-17691	,	-16295	,	-11.488933	,	0
0,20	,	48247	,	-17683	,	-16292	,	-10.9548645	,	0
0,20	,	48263	,	-17671	,	-16286	,	-9.487222	,	0
0,20	,	48279	,	-17664	,	-16296	,	-6.8227415	,	1
0,20	,	48311	,	-17666	,	-16295	,	-3.0598564	,	3
0,20	,	48327	,	-17661	,	-16282	,	1.3289151	,	6
0,20	,	48359	,	-17659	,	-16283	,	5.718734	,	10
0,20	,	48375	,	-17656	,	-16280	,	9.587686	,	14
0,20	,	48391	,	-17654	,	-16280	,	12.595296	,	17
0,20	,	48423	,	-17650	,	-16281	,	14.589645	,	20
0,20	,	48439	,	-17651	,	-16284	,	15.577597	,	21
0,20	,	48455	,	-17643	,	-16278	,	15.672973	,	21
0,20	,	48487	,	-17646	,	-16286	,	15.071796	,	20
0,20	,	48503	,	-17648	,	-16269	,	13.961529	,	18
0,20	,	48535	,	-17646	,	-16273	,	12.454485	,	15
0,20	,	48551	,	-17646	,	-16276	,	10.66503	,	11
0,20	,	48567	,	-17650	,	-16278	,	8.732009	,	7
0,20	,	48599	,	-17647	,	-16284	,	6.7674694	,	4
0,20	,	48615	,	-17645	,	-16276	,	4.8899145	,	1
0,20	,	48631	,	-17643	,	-16285	,	3.258113	,	0
0,20	,	48663	,	-17649	,	-16278	,	1.9878395	,	0
0,20	,	48679	,	-17648	,	-16286	,	1.0593352	,	0
0,20	,	48695	,	-17647	,	-16282	,	0.379943	,	0
0,20	,	48727	,	-17647	,	-16285	,	-0.10350144	,	0
0,20	,	48743	,	-17645	,	-16277	,	-0.39933378	,	0
0,20	,	48775	,	-17653	,	-16276	,	-0.53902364	,	0
0,20	,	48791	,	-17662	,	-16286	,	-0.67953694	,	0
0,21	,	48807	,	-17660	,	-16283	,	-1.0649929	,	0
0,21	,	48839	,	-17663	,	-16288	,	-1.8084264	,	0
0,21	,	48855	,	-17664	,	-16289	,	-2.8225136	,	0
0,21	,	48871	,	-17665	,	-16290	,	-3.9311535	,	0
0,21	,	48903	,	-17671	,	-16290	,	-4.978612	,	0
0,21	,	48919	,	-17679	,	-16301	,	-5.9347796	,	0
0,21	,	48951	,	-17679	,	-16295	,	-6.8798723	,	0
0,21	,	48967	,	-17678	,	-16288	,	-7.822337	,	0
0,21	,	48983	,	-17692	,	-16291	,	-8.683689	,	0
0,21	,	49015	,	-17687	,	-16296	,	-9.446659	,	0
0,21	,	49031	,	-17695	,	-16306	,	-10.115795	,	0
0,21	,	49047	,	-17698	,	-16300	,	-10.66601	,	0
0,21	,	49079	,	-17703	,	-16302	,	-11.109577	,	0
0,21	,	49095	,	-17705	,	-16308	,	-11.473804	,	0
0,21	,	49111	,	-17715	,	-16311	,	-11.786436	,	0
0,21	,	49143	,	-17707	,	-16309	,	-12.066984	,	0
0,21	,	49159	,	-17715	,	-16316	,	-12.243607	,	0
0,21	,	49191	,	-17718	,	-16330	,	-12.223375	,	0
0,21	,	49207	,	-17709	,	-16293	,	-11.964811	,	0
0,21	,	49223	,	-17690	,	-16305	,	-11.276863	,	0
0,21	,	49255	,	-17691	,	-16304	,	-9.787682	,	0
0,21	,	49271	,	-17688	,	-16297	,	-7.3140016	,	1
0,21	,	49287	,	-17673	,	-16291	,	-4.002305	,	3
0,21	,	49319	,	-17675	,	-16298	,	-0.117544174	,	6
0,21	,	49335	,	-17666	,	-16298	,	4.0179152	,	9
0,21	,	49367	,	-17667	,	-16301	,	8.012785	,	13
0,21	,	49383	,	-17665	,	-16302	,	11.475954	,	16
0,21	,	49399	,	-17660	,	-16301	,	14.093377	,	19
0,21	,	49431	,	-17675	,	-16297	,	15.650926	,	21
0,21	,	49447	,	-17670	,	-16293	,	15.970528	,	22
0,21	,	49463	,	-17667	,	-16305	,	15.0321245	,	21
0,21	,	49495	,	-17668	,	-16296	,	13.121376	,	19
0,21	,	49511	,	-17657	,	-16293	,	10.710981	,	16
0,21	,	49527	,	-17658	,	-16295	,	8.313539	,	13
0,21	,	49559	,	-17670	,	-16287	,	6.271667	,	9
0,21	,	49575	,	-17672	,	-16295	,	4.5642304	,	6
0,21	,	49606	,	-17658	,	-16287	,	3.0528495	,	3
0,21	,	49622	,	-17665	,	-16290	,	1.8037243	,	1
0,21	,	49639	,	-17674	,	-16299	,	0.8906646	,	0
0,21	,	49671	,	-17668	,	-16277	,	0.18017256	,	0
0,21	,	49687	,	-17667	,	-16285	,	-0.4429729	,	0
0,21	,	49703	,	-17677	,	-16299	,	-0.9824901	,	0
0,21	,	49734	,	-17676	,	-16292	,	-1.5009886	,	0
0,21	,	49750	,	-17679	,	-16292	,	-2.0881732	,	0
0,21	,	49782	,	-17687	,	-16301	,	-2.7804623	,	0
0,21	,	49799	,	-17685	,	-16305	,	-3.6065638	,	0
0,22	,	49815	,	-17692	,	-16305	,	-4.562716	,	0
0,22	,	49847	,	-17681	,	-16300	,	-5.5394893	,	0
0,22	,	49862	,	-17688	,	-16298	,	-6.325704	,	0
0,22	,	49878	,	-17691	,	-16306	,	-6.765127	,	0
0,22	,	49911	,	-17693	,	-16308	,	-6.882388	,	0
0,22	,	49927	,	-17694	,	-16313	,	-6.785719	,	0
0,22	,	49958	,	-17700	,	-16310	,	-6.5777273	,	0
0,22	,	49974	,	-17704	,	-16303	,	-6.3821297	,	0
0,22	,	49991	,	-17698	,	-16314	,	-6.2855616	,	0
0,22	,	50023	,	-17711	,	-16309	,	-6.281619	,	0
0,22	,	50039	,	-17711	,	-16314	,	-6.3887625	,	0
0,22	,	50054	,	-17709	,	-16322	,	-6.6387467	,	0
0,22	,	50087	,	-17712	,	-16314	,	-6.940204	,	0
0,22	,	50102	,	-17721	,	-16331	,	-7.196316	,	0
0,22	,	50134	,	-17722	,	-16310	,	-7.4504786	,	0
0,22	,	50150	,	-17715	,	-16321	,	-7.732509	,	0
0,22	,	50166	,	-17711	,	-16305	,	-7.8739324	,	0
0,22	,	50199	,	-17697	,	-16313	,	-7.553116	,	0
0,22	,	50214	,	-17689	,	-16306	,	-6.423725	,	0
0,22	,	50230	,	-17680	,	-16306	,	-4.254594	,	1
0,22	,	50262	,	-17688	,	-16302	,	-1.1310544	,	3
0,22	,	50279	,	-17678	,	-16298	,	2.4974527	,	6
0,22	,	50310	,	-17680	,	-16305	,	6.0722756	,	9
0,22	,	50326	,	-17682	,	-16310	,	9.128728	,	12
0,22	,	50342	,	-17680	,	-16297	,	11.307562	,	15
0,22	,	50374	,	-17674	,	-16302	,	12.449093	,	17
0,22	,	50390	,	-17673	,	-16298	,	12.664786	,	18
0,22	,	50406	,	-17677	,	-16301	,	12.179579	,	18
0,22	,	50438	,	-17673	,	-16303	,	11.167549	,	17
0,22	,	50454	,	-17667	,	-16302	,	9.815109	,	15
0,22	,	50470	,	-17680	,	-16304	,	8.33589	,	12
0,22	,	50502	,	-17680	,	-16292	,	6.78999	,	9
0,22	,	50518	,	-17677	,	-16305	,	5.133614	,	6
0,22	,	50550	,	-17678	,	-16305	,	3.438103	,	3
0,22	,	50566	,	-17668	,	-16302	,	1.9088473	,	1
0,22	,	50582	,	-17679	,	-16303	,	0.7556851	,	0
0,22	,	50614	,	-17674	,	-16305	,	0.02923119	,	0
0,22	,	50630	,	-17681	,	-16298	,	-0.39129895	,	0
0,22	,	50646	,	-17674	,	-16298	,	-0.644716	,	0
0,22	,	50678	,	-17689	,	-16300	,	-0.84540904	,	0
0,22	,	50694	,	-17684	,	-16309	,	-1.1393209	,	0
0,22	,	50726	,	-17687	,	-16303	,	-1.62383	,	0
0,22	,	50742	,	-17693	,	-16307	,	-2.2828815	,	0
0,22	,	50758	,	-17683	,	-16301	,	-3.0422606	,	0
0,22	,	50790	,	-17695	,	-16309	,	-3.777777	,	0
0,23	,	50806	,	-17691	,	-16299	,	-4.3837223	,	0
0,23	,	50822	,	-17695	,	-16317	,	-4.829717	,	0
0,23	,	50854	,	-17697	,	-16312	,	-5.1233096	,	0
0,23	,	50870	,	-17703	,	-16311	,	-5.327142	,	0
0,23	,	50886	,	-17706	,	-16324	,	-5.555377	,	0
0,23	,	50918	,	-17709	,	-16323	,	-5.905607	,	0
0,23	,	50934	,	-17709	,	-16323	,	-6.3930426	,	0
0,23	,	50966	,	-17732	,	-16321	,	-7.0346594	,	0
0,23	,	50982	,	-17727	,	-16326	,	-7.9669423	,	0
0,23	,	50998	,	-17730	,	-16321	,	-9.246903	,	0
0,23	,	51030	,	-17727	,	-16332	,	-10.652149	,	0
0,23	,	51046	,	-17733	,	-16321	,	-11.844957	,	0
0,23	,	51062	,	-17737	,	-16330	,	-12.6172285	,	0
0,23	,	51094	,	-17740	,	-16335	,	-12.951042	,	0
0,23	,	51110	,	-17745	,	-16335	,	-12.933132	,	0
0,23	,	51142	,	-17737	,	-16332	,	-12.629678	,	0
0,23	,	51158	,	-17724	,	-16327	,	-11.929258	,	0
0,23	,	51174	,	-17720	,	-16328	,	-10.544243	,	0
0,23	,	51206	,	-17714	,	-16322	,	-8.277128	,	1
0,23	,	51222	,	-17711	,	-16317	,	-5.1991277	,	3
0,23	,	51238	,	-17707	,	-16329	,	-1.5923786	,	6
0,23	,	51270	,	-17701	,	-16303	,	2.183558	,	9
0,23	,	51286	,	-17695	,	-16315	,	5.814926	,	12
0,23	,	51302	,	-17701	,	-16314	,	9.032952	,	15
0,23	,	51334	,	-17692	,	-16319	,	11.568969	,	18
0,23	,	51350	,	-17696	,	-16306	,	13.247189	,	20
0,23	,	51382	,	-17692	,	-16313	,	14.032892	,	21
0,23	,	51398	,	-17691	,	-16311	,	13.988595	,	20
0,23	,	51414	,	-17691	,	-16306	,	13.261124	,	18
0,23	,	51446	,	-17685	,	-16315	,	12.06069	,	15
0,23	,	51462	,	-17686	,	-16308	,	10.635479	,	12
0,23	,	51478	,	-17697	,	-16321	,	9.14348	,	9
0,23	,	51510	,	-17689	,	-16301	,	7.5658107	,	6
0,23	,	51526	,	-17698	,	-16311	,	5.8685174	,	3
0,23	,	51558	,	-17689	,	-16313	,	4.1264524	,	1
0,23	,	51574	,	-17695	,	-16310	,	2.4871364	,	0
0,23	,	51590	,	-17692	,	-16325	,	1.082331	,	0
0,23	,	51622	,	-17686	,	-16315	,	0.0044642687	,	0
0,23	,	51638	,	-17690	,	-16320	,	-0.654835	,	0
0,23	,	51654	,	-17699	,	-16315	,	-0.9270295	,	0
0,23	,	51686	,	-17696	,	-16313	,	-1.033666	,	0
0,23	,	51702	,	-17694	,	-16323	,	-1.1615763	,	0
0,23	,	51718	,	-17711	,	-16315	,	-1.3951596	,	0
0,23	,	51749	,	-17703	,	-16319	,	-1.8550215	,	0
0,23	,	51766	,	-17707	,	-16319	,	-2.5822911	,	0
0,23	,	51798	,	-17716	,	-16321	,	-3.4783063	,	0
0,24	,	51814	,	-17712	,	-16321	,	-4.469807	,	0
0,24	,	51830	,	-17724	,	-16325	,	-5.5157022	,	0
0,24	,	51862	,	-17721	,	-16315	,	-6.575803	,	0
0,24	,	51878	,	-17720	,	-16320	,	-7.5737443	,	0
0,24	,	51894	,	-17728	,	-16329	,	-8.3713455	,	0
0,24	,	51926	,	-17727	,	-16334	,	-8.894987	,	0
0,24	,	51942	,	-17735	,	-16343	,	-9.177864	,	0
0,24	,	51974	,	-17729	,	-16322	,	-9.268057	,	0
0,24	,	51990	,	-17739	,	-16334	,	-9.186175	,	0
0,24	,	52005	,	-17742	,	-16341	,	-8.999991	,	0
0,24	,	52037	,	-17742	,	-16333	,	-8.833412	,	0
0,24	,	52053	,	-17743	,	-16335	,	-8.728462	,	0
0,24	,	52069	,	-17747	,	-16338	,	-8.631003	,	0
0,24	,	52102	,	-17751	,	-16348	,	-8.513236	,	0
0,24	,	52118	,	-17751	,	-16346	,	-8.403477	,	0
0,24	,	52134	,	-17753	,	-16339	,	-8.308214	,	0
0,24	,	52166	,	-17746	,	-16343	,	-8.1454935	,	0
0,24	,	52182	,	-17737	,	-16339	,	-7.7137766	,	0
0,24	,	52213	,	-17726	,	-16332	,	-6.7115593	,	0
0,24	,	52229	,	-17719	,	-16332	,	-4.8665366	,	1
0,24	,	52246	,	-17717	,	-16332	,	-2.1252725	,	2
0,24	,	52278	,	-17720	,	-16335	,	1.2334859	,	4
0,24	,	52294	,	-17717	,	-16329	,	4.6877956	,	7
0,24	,	52310	,	-17714	,	-16323	,	7.7302494	,	10
0,24	,	52341	,	-17707	,	-16324	,	10.081731	,	13
0,24	,	52357	,	-17705	,	-16323	,	11.708588	,	15
0,24	,	52389	,	-17703	,	-16324	,	12.687615	,	16
0,24	,	52405	,	-17702	,	-16324	,	13.086716	,	16
0,24	,	52421	,	-17700	,	-16320	,	12.960222	,	15
0,24	,	52454	,	-17699	,	-16318	,	12.390097	,	14
0,24	,	52469	,	-17704	,	-16324	,	11.463631	,	12
0,24	,	52486	,	-17703	,	-16317	,	10.221021	,	9
0,24	,	52517	,	-17690	,	-16320	,	8.75708	,	6
0,24	,	52533	,	-17702	,	-16323	,	7.296824	,	3
0,24	,	52549	,	-17700	,	-16313	,	5.9814506	,	1
0,24	,	52581	,	-17694	,	-16324	,	4.806261	,	0
0,24	,	52597	,	-17694	,	-16320	,	3.821251	,	0
0,24	,	52630	,	-17699	,	-16324	,	3.0909922	,	0
0,24	,	52645	,	-17692	,	-16332	,	2.5755684	,	0
0,24	,	52661	,	-17699	,	-16314	,	2.2034595	,	0
0,24	,	52693	,	-17706	,	-16326	,	1.8575873	,	0
0,24	,	52709	,	-17707	,	-16330	,	1.3345395	,	0
0,24	,	52725	,	-17710	,	-16327	,	0.49046087	,	0
0,24	,	52758	,	-17704	,	-16326	,	-0.6281912	,	0
0,24	,	52773	,	-17710	,	-16336	,	-1.8219736	,	0
0,25	,	52806	,	-17715	,	-16322	,	-2.919685	,	0
0,25	,	52821	,	-17720	,	-16330	,	-3.9166498	,	0
0,25	,	52837	,	-17712	,	-16334	,	-4.84795	,	0
0,25	,	52869	,	-17718	,	-16338	,	-5.6209564	,	0
0,25	,	52885	,	-17716	,	-16324	,	-6.100841	,	0
0,25	,	52901	,	-17727	,	-16322	,	-6.2828484	,	0
0,25	,	52933	,	-17730	,	-16339	,	-6.3308134	,	0
0,25	,	52949	,	-17735	,	-16339	,	-6.4676924	,	0
0,25	,	52981	,	-17732	,	-16335	,	-6.8053703	,	0
0,25	,	52997	,	-17734	,	-16346	,	-7.2709284	,	0
0,25	,	53013	,	-17737	,	-16342	,	-7.7037826	,	0
0,25	,	53045	,	-17741	,	-16343	,	-8.008476	,	0
0,25	,	53061	,	-17746	,	-16341	,	-8.204323	,	0
0,25	,	53077	,	-17746	,	-16336	,	-8.36014	,	0
0,25	,	53109	,	-17741	,	-16343	,	-8.466347	,	0
0,25	,	53125	,	-17750	,	-16337	,	-8.4188595	,	0
0,25	,	53141	,	-17731	,	-16331	,	-8.097538	,	0
0,25	,	53173	,	-17717	,	-16334	,	-7.2496758	,	0
0,25	,	53189	,	-17722	,	-16328	,	-5.54153	,	0
0,25	,	53221	,	-17724	,	-16337	,	-2.9885426	,	1
0,25	,	53237	,	-17717	,	-16338	,	-0.018298626	,	3
0,25	,	53253	,	-17711	,	-16324	,	2.9377034	,	5
0,25	,	53285	,	-17704	,	-16329	,	5.672431	,	7
0,25	,	53301	,	-17709	,	-16325	,	8.086685	,	9
0,25	,	53317	,	-17701	,	-16330	,	10.04312	,	11
0,25	,	53349	,	-17706	,	-16334	,	11.39957	,	12
0,25	,	53365	,	-17711	,	-16317	,	12.031132	,	13
0,25	,	53397	,	-17703	,	-16332	,	11.852938	,	13
0,25	,	53413	,	-17702	,	-16322	,	10.972834	,	12
0,25	,	53429	,	-17702	,	-16324	,	9.66775	,	10
0,25	,	53461	,	-17697	,	-16325	,	8.208251	,	8
0,25	,	53477	,	-17700	,	-16318	,	6.8041263	,	6
0,25	,	53493	,	-17693	,	-16323	,	5.6019	,	4
0,25	,	53525	,	-17703	,	-16320	,	4.660191	,	2
0,25	,	53541	,	-17700	,	-16321	,	3.914191	,	1
0,25	,	53557	,	-17692	,	-16328	,	3.279431	,	0
0,25	,	53589	,	-17688	,	-16321	,	2.8297298	,	0
0,25	,	53605	,	-17699	,	-16327	,	2.6640975	,	0
0,25	,	53637	,	-17702	,	-16322	,	2.6460056	,	0
0,25	,	53653	,	-17695	,	-16319	,	2.5238185	,	0
0,25	,	53669	,	-17704	,	-16334	,	2.1832964	,	0
0,25	,	53701	,	-17710	,	-16324	,	1.5754253	,	0
0,25	,	53717	,	-17702	,	-16325	,	0.65852654	,	0
0,25	,	53733	,	-17711	,	-16328	,	-0.4778887	,	0
0,25	,	53765	,	-17719	,	-16324	,	-1.7237616	,	0
0,25	,	53781	,	-17709	,	-16325	,	-3.0454838	,	0
0,26	,	53813	,	-17715	,	-16336	,	-4.311424	,	0
0,26	,	53829	,	-17711	,	-16322	,	-5.297984	,	0
0,26	,	53845	,	-17717	,	-16322	,	-5.8749094	,	0
0,26	,	53877	,	-17725	,	-16334	,	-6.100195	,	0
0,26	,	53893	,	-17720	,	-16329	,	-6.160202	,	0
0,26	,	53909	,	-17723	,	-16321	,	-6.1652074	,	0
0,26	,	53941	,	-17735	,	-16319	,	-6.153276	,	0
0,26	,	53957	,	-17730	,	-16333	,	-6.230938	,	0
0,26	,	53973	,	-17731	,	-16331	,	-6.4480867	,	0
0,26	,	54005	,	-17730	,	-16336	,	-6.6853	,	0
0,26	,	54021	,	-17741	,	-16331	,	-6.8216214	,	0
0,26	,	54053	,	-17742	,	-16340	,	-6.899108	,	0
0,26	,	54069	,	-17740	,	-16342	,	-7.0211115	,	0
0,26	,	54085	,	-17731	,	-16326	,	-7.1232753	,	0
0,26	,	54117	,	-17731	,	-16335	,	-6.9606533	,	0
0,26	,	54133	,	-17714	,	-16329	,	-6.2572317	,	0
0,26	,	54149	,	-17708	,	-16328	,	-4.759734	,	0
0,26	,	54181	,	-17704	,	-16322	,	-2.3399487	,	1
0,26	,	54197	,	-17700	,	-16329	,	0.8474169	,	3
0,26	,	54229	,	-17696	,	-16319	,	4.4227743	,	6
0,26	,	54245	,	-17692	,	-16312	,	7.959583	,	9
0,26	,	54260	,	-17685	,	-16321	,	11.111641	,	12
0,26	,	54292	,	-17679	,	-16308	,	13.694976	,	15
0,26	,	54309	,	-17682	,	-16319	,	15.636951	,	17
0,26	,	54325	,	-17679	,	-16312	,	16.84533	,	18
0,26	,	54357	,	-17674	,	-16315	,	17.24889	,	19
0,26	,	54373	,	-17674	,	-16314	,	16.914974	,	18
0,26	,	54389	,	-17661	,	-16305	,	16.0544	,	16
0,26	,	54421	,	-17668	,	-16302	,	14.945599	,	13
0,26	,	54437	,	-17665	,	-16297	,	13.767625	,	10
0,26	,	54468	,	-17665	,	-16303	,	12.542658	,	7
0,26	,	54485	,	-17658	,	-16309	,	11.2882	,	4
0,26	,	54501	,	-17671	,	-16314	,	10.041133	,	2
0,26	,	54533	,	-17670	,	-16300	,	8.726583	,	1
0,26	,	54548	,	-17665	,	-16301	,	7.243202	,	0
0,26	,	54565	,	-17674	,	-16305	,	5.620022	,	0
0,26	,	54596	,	-17669	,	-16294	,	3.9435096	,	0
0,26	,	54612	,	-17670	,	-16305	,	2.3180761	,	0
0,26	,	54644	,	-17667	,	-16308	,	0.902179	,	0
0,26	,	54661	,	-17667	,	-16301	,	-0.16133034	,	0
0,26	,	54677	,	-17669	,	-16296	,	-0.8191415	,	0
0,26	,	54709	,	-17671	,	-16301	,	-1.1229992	,	0
0,26	,	54725	,	-17676	,	-16309	,	-1.2162713	,	0
0,26	,	54740	,	-17669	,	-16300	,	-1.2527001	,	0
0,26	,	54773	,	-17671	,	-16296	,	-1.2751422	,	0
0,26	,	54789	,	-17676	,	-16304	,	-1.2627347	,	0
0,27	,	54820	,	-17681	,	-16311	,	-1.2885587	,	0
0,27	,	54836	,	-17681	,	-16314	,	-1.4933679	,	0
0,27	,	54852	,	-17690	,	-16311	,	-1.9749408	,	0
0,27	,	54884	,	-17684	,	-16320	,	-2.748795	,	0
0,27	,	54900	,	-17684	,	-16310	,	-3.6828215	,	0
0,27	,	54916	,	-17688	,	-16317	,	-4.5414977	,	0
0,27	,	54949	,	-17691	,	-16318	,	-5.1808767	,	0
0,27	,	54964	,	-17697	,	-16328	,	-5.620369	,	0
0,27	,	54980	,	-17699	,	-16309	,	-5.9694843	,	0
0,27	,	55012	,	-17699	,	-16325	,	-6.3158245	,	0
0,27	,	55028	,	-17707	,	-16322	,	-6.6785526	,	0
0,27	,	55060	,	-17707	,	-16327	,	-7.0688057	,	0
0,27	,	55076	,	-17707	,	-16320	,	-7.47661	,	0
0,27	,	55092	,	-17696	,	-16318	,	-7.764036	,	0
0,27	,	55125	,	-17683	,	-16308	,	-7.6050606	,	0
0,27	,	55140	,	-17670	,	-16308	,	-6.556591	,	0
0,27	,	55156	,	-17670	,	-16310	,	-4.3203545	,	1
0,27	,	55188	,	-17663	,	-16304	,	-0.9932833	,	3
0,27	,	55204	,	-17659	,	-16302	,	2.9992323	,	6
0,27	,	55236	,	-17647	,	-16294	,	7.181553	,	9
0,27	,	55252	,	-17650	,	-16296	,	11.170906	,	13
0,27	,	55268	,	-17633	,	-16292	,	14.676315	,	16
0,27	,	55300	,	-17635	,	-16287	,	17.529716	,	19
0,27	,	55316	,	-17625	,	-16300	,	19.666073	,	21
0,27	,	55332	,	-17641	,	-16289	,	20.988255	,	23
0,27	,	55364	,	-17628	,	-16283	,	21.328049	,	23
0,27	,	55380	,	-17625	,	-16290	,	20.661293	,	21
0,27	,	55396	,	-17622	,	-16291	,	19.239891	,	18
0,27	,	55428	,	-17622	,	-16290	,	17.395908	,	15
0,27	,	55444	,	-17621	,	-16266	,	15.364271	,	11
0,27	,	55476	,	-17613	,	-16276	,	13.323312	,	8
0,27	,	55492	,	-17606	,	-16274	,	11.502482	,	5
0,27	,	55508	,	-17612	,	-16284	,	10.114659	,	3
0,27	,	55540	,	-17609	,	-16281	,	9.167742	,	1
0,27	,	55556	,	-17606	,	-16283	,	8.51246	,	0
0,27	,	55572	,	-17606	,	-16280	,	8.022258	,	0
0,27	,	55604	,	-17613	,	-16283	,	7.578852	,	0
0,27	,	55620	,	-17611	,	-16281	,	7.011467	,	0
0,27	,	55652	,	-17614	,	-16279	,	6.188528	,	0
0,27	,	55668	,	-17613	,	-16288	,	5.0969424	,	0
0,27	,	55684	,	-17608	,	-16268	,	3.8445692	,	0
0,27	,	55716	,	-17616	,	-16272	,	2.600983	,	0
0,27	,	55732	,	-17626	,	-16279	,	1.4052684	,	0
0,27	,	55748	,	-17621	,	-16277	,	0.13663971	,	0
0,27	,	55780	,	-17625	,	-16277	,	-1.2434202	,	0
0,27	,	55796	,	-17624	,	-16278	,	-2.6186266	,	0
0,28	,	55812	,	-17623	,	-16276	,	-3.8255398	,	0
0,28	,	55844	,	-17623	,	-16283	,	-4.7006845	,	0
0,28	,	55860	,	-17630	,	-16286	,	-5.165535	,	0
0,28	,	55892	,	-17638	,	-16277	,	-5.3397875	,	0
0,28	,	55908	,	-17639	,	-16265	,	-5.4824414	,	0
0,28	,	55924	,	-17645	,	-16279	,	-5.8011584	,	0
0,28	,	55956	,	-17646	,	-16288	,	-6.3637486	,	0
0,28	,	55972	,	-17652	,	-16285	,	-7.1366425	,	0
0,28	,	55988	,	-17656	,	-16291	,	-8.051252	,	0
0,28	,	56020	,	-17654	,	-16298	,	-9.014866	,	0
0,28	,	56036	,	-17661	,	-16291	,	-9.89122	,	0
0,28	,	56068	,	-17658	,	-16288	,	-10.551025	,	0
0,28	,	56084	,	-17648	,	-16278	,	-10.837486	,	0
0,28	,	56100	,	-17640	,	-16282	,	-10.471367	,	0
0,28	,	56132	,	-17627	,	-16288	,	-9.133505	,	0
0,28	,	56148	,	-17610	,	-16266	,	-6.5802836	,	1
0,28	,	56164	,	-17612	,	-16275	,	-2.7564492	,	3
0,28	,	56196	,	-17604	,	-16271	,	2.0281043	,	6
0,28	,	56212	,	-17600	,	-16269	,	7.1687183	,	10
0,28	,	56228	,	-17600	,	-16273	,	12.022025	,	15
0,28	,	56260	,	-17592	,	-16271	,	16.054182	,	19
0,28	,	56276	,	-17597	,	-16273	,	18.918938	,	23
0,28	,	56308	,	-17588	,	-16263	,	20.474651	,	25
0,28	,	56324	,	-17593	,	-16272	,	20.760063	,	26
0,28	,	56340	,	-17595	,	-16264	,	19.906075	,	25
0,28	,	56372	,	-17586	,	-16267	,	18.102661	,	23
0,28	,	56388	,	-17588	,	-16261	,	15.692206	,	20
0,28	,	56404	,	-17590	,	-16266	,	13.059632	,	16
0,28	,	56436	,	-17582	,	-16268	,	10.478163	,	11
0,28	,	56452	,	-17584	,	-16266	,	8.173835	,	7
0,28	,	56484	,	-17585	,	-16275	,	6.3042264	,	3
0,28	,	56500	,	-17580	,	-16263	,	4.8933387	,	1
0,28	,	56516	,	-17587	,	-16267	,	3.889564	,	0
0,28	,	56548	,	-17588	,	-16263	,	3.1667173	,	0
0,28	,	56564	,	-17584	,	-16264	,	2.5665507	,	0
0,28	,	56580	,	-17581	,	-16261	,	2.0440562	,	0
0,28	,	56612	,	-17588	,	-16258	,	1.6362144	,	0
0,28	,	56628	,	-17582	,	-16262	,	1.3316815	,	0
0,28	,	56644	,	-17598	,	-16264	,	1.0366008	,	0
0,28	,	56676	,	-17596	,	-16270	,	0.5687292	,	0
0,28	,	56692	,	-17599	,	-16263	,	-0.22736162	,	0
0,28	,	56724	,	-17600	,	-16266	,	-1.3307621	,	0
0,28	,	56740	,	-17602	,	-16271	,	-2.5912738	,	0
0,28	,	56756	,	-17602	,	-16281	,	-3.8289478	,	0
0,28	,	56788	,	-17606	,	-16273	,	-4.892798	,	0
0,29	,	56804	,	-17604	,	-16267	,	-5.6981134	,	0
0,29	,	56819	,	-17616	,	-16281	,	-6.2501106	,	0
0,29	,	56851	,	-17613	,	-16263	,	-6.6520047	,	0
0,29	,	56867	,	-17622	,	-16286	,	-7.021207	,	0
0,29	,	56900	,	-17624	,	-16277	,	-7.433462	,	0
0,29	,	56916	,	-17622	,	-16286	,	-7.9099197	,	0
0,29	,	56932	,	-17629	,	-16286	,	-8.388307	,	0
0,29	,	56964	,	-17633	,	-16282	,	-8.811335	,	0
0,29	,	56980	,	-17640	,	-16281	,	-9.212776	,	0
0,29	,	56996	,	-17639	,	-16293	,	-9.649485	,	0
0,29	,	57028	,	-17636	,	-16291	,	-10.067734	,	0
0,29	,	57044	,	-17648	,	-16288	,	-10.330195	,	0
0,29	,	57075	,	-17652	,	-16279	,	-10.433357	,	0
0,29	,	57091	,	-17639	,	-16296	,	-10.44726	,	0
0,29	,	57107	,	-17625	,	-16285	,	-10.167561	,	0
0,29	,	57139	,	-17621	,	-16276	,	-9.1379	,	0
0,29	,	57156	,	-17615	,	-16278	,	-7.0608363	,	1
0,29	,	57172	,	-17608	,	-16282	,	-3.9927473	,	3
0,29	,	57204	,	-17607	,	-16278	,	-0.23630619	,	6
0,29	,	57220	,	-17603	,	-16285	,	3.7713587	,	9
0,29	,	57236	,	-17599	,	-16274	,	7.566079	,	13
0,29	,	57267	,	-17599	,	-16272	,	10.771957	,	16
0,29	,	57283	,	-17596	,	-16288	,	13.135246	,	19
0,29	,	57315	,	-17593	,	-16268	,	14.541945	,	21
0,29	,	57331	,	-17596	,	-16272	,	15.00959	,	22
0,29	,	57347	,	-17589	,	-16263	,	14.640841	,	21
0,29	,	57380	,	-17595	,	-16268	,	13.605307	,	19
0,29	,	57396	,	-17594	,	-16271	,	12.075018	,	16
0,29	,	57411	,	-17591	,	-16271	,	10.206642	,	13
0,29	,	57443	,	-17590	,	-16272	,	8.214668	,	9
0,29	,	57459	,	-17594	,	-16278	,	6.311708	,	6
0,29	,	57491	,	-17593	,	-16282	,	4.601301	,	3
0,29	,	57508	,	-17595	,	-16279	,	3.1097324	,	1
0,29	,	57523	,	-17597	,	-16280	,	1.8377562	,	0
0,29	,	57555	,	-17596	,	-16279	,	0.76599073	,	0
0,29	,	57571	,	-17606	,	-16280	,	-0.15799153	,	0
0,29	,	57587	,	-17602	,	-16281	,	-1.0263617	,	0
0,29	,	57620	,	-17601	,	-16282	,	-1.8687063	,	0
0,29	,	57636	,	-17606	,	-16273	,	-2.6100614	,	0
0,29	,	57651	,	-17610	,	-16287	,	-3.2242486	,	0
0,29	,	57683	,	-17607	,	-16283	,	-3.7602847	,	0
0,29	,	57699	,	-17613	,	-16283	,	-4.225638	,	0
0,29	,	57731	,	-17619	,	-16283	,	-4.6333594	,	0
0,29	,	57747	,	-17622	,	-16281	,	-5.0843534	,	0
0,29	,	57763	,	-17621	,	-16280	,	-5.6581364	,	0
0,29	,	57795	,	-17637	,	-16288	,	-6.3629155	,	0
0,30	,	57811	,	-17635	,	-16293	,	-7.2424474	,	0
0,30	,	57827	,	-17631	,	-16293	,	-8.275711	,	0
0,30	,	57859	,	-17637	,	-16292	,	-9.248295	,	0
0,30	,	57875	,	-17643	,	-16300	,	-9.966867	,	0
0,30	,	57907	,	-17646	,	-16300	,	-10.430556	,	0
0,30	,	57923	,	-17646	,	-16312	,	-10.705463	,	0
0,30	,	57939	,	-17647	,	-16301	,	-10.793718	,	0
0,30	,	57971	,	-17653	,	-16310	,	-10.6695	,	0
0,30	,	57987	,	-17660	,	-16318	,	-10.397125	,	0
0,30	,	58003	,	-17662	,	-16303	,	-10.13896	,	0
0,30	,	58035	,	-17675	,	-16307	,	-10.069288	,	0
0,30	,	58051	,	-17675	,	-16321	,	-10.328908	,	0
0,30	,	58067	,	-17678	,	-16315	,	-10.938253	,	0
0,30	,	58099	,	-17671	,	-16308	,	-11.696718	,	0
0,30	,	58115	,	-17661	,	-16302	,	-12.191964	,	0
0,30	,	58147	,	-17651	,	-16307	,	-11.916007	,	0
0,30	,	58163	,	-17645	,	-16304	,	-10.474915	,	0
0,30	,	58179	,	-17635	,	-16293	,	-7.7530265	,	1
0,30	,	58211	,	-17642	,	-16308	,	-3.9734092	,	3
0,30	,	58227	,	-17643	,	-16299	,	0.28694487	,	6
0,30	,	58243	,	-17627	,	-16296	,	4.3574085	,	10
0,30	,	58275	,	-17626	,	-16294	,	7.8743668	,	14
0,30	,	58291	,	-17630	,	-16299	,	10.719034	,	17
0,30	,	58323	,	-17629	,	-16301	,	12.730135	,	19
0,30	,	58339	,	-17636	,	-16301	,	13.714829	,	21
0,30	,	58355	,	-17628	,	-16297	,	13.60165	,	21
0,30	,	58387	,	-17637	,	-16295	,	12.511269	,	20
0,30	,	58403	,	-17625	,	-16301	,	10.72262	,	18
0,30	,	58419	,	-17626	,	-16292	,	8.622229	,	15
0,30	,	58451	,	-17636	,	-16305	,	6.5502925	,	11
0,30	,	58467	,	-17633	,	-16287	,	4.621134	,	7
0,30	,	58483	,	-17631	,	-16295	,	2.8499694	,	4
0,30	,	58515	,	-17619	,	-16295	,	1.378159	,	2
0,30	,	58531	,	-17624	,	-16301	,	0.44058633	,	0
0,30	,	58563	,	-17635	,	-16303	,	0.08150542	,	0
0,30	,	58579	,	-17642	,	-16297	,	-0.016558647	,	0
0,30	,	58595	,	-17641	,	-16302	,	-0.2792881	,	0
0,30	,	58627	,	-17641	,	-16305	,	-0.89527357	,	0
0,30	,	58643	,	-17646	,	-16302	,	-1.7992676	,	0
0,30	,	58659	,	-17642	,	-16298	,	-2.8359644	,	0
0,30	,	58691	,	-17650	,	-16313	,	-3.850426	,	0
0,30	,	58707	,	-17642	,	-16311	,	-4.7162523	,	0
0,30	,	58739	,	-17654	,	-16310	,	-5.3540325	,	0
0,30	,	58755	,	-17665	,	-16313	,	-5.8392367	,	0
0,30	,	58771	,	-17662	,	-16322	,	-6.4015646	,	0
0,31	,	58803	,	-17665	,	-16301	,	-7.156617	,	0
0,31	,	58819	,	-17677	,	-16316	,	-8.05751	,	0
0,31	,	58835	,	-17674	,	-16314	,	-9.068874	,	0
0,31	,	58867	,	-17670	,	-16314	,	-10.082206	,	0
0,31	,	58883	,	-17681	,	-16318	,	-10.870232	,	0
0,31	,	58899	,	-17684	,	-16324	,	-11.332075	,	0
0,31	,	58931	,	-17688	,	-16315	,	-11.556824	,	0
0,31	,	58947	,	-17692	,	-16328	,	-11.65408	,	0
0,31	,	58979	,	-17695	,	-16329	,	-11.684851	,	0
0,31	,	58995	,	-17703	,	-16330	,	-11.698216	,	0
0,31	,	59011	,	-17713	,	-16337	,	-11.800989	,	0
0,31	,	59043	,	-17713	,	-16339	,	-12.132572	,	0
0,31	,	59059	,	-17716	,	-16334	,	-12.704517	,	0
0,31	,	59075	,	-17720	,	-16339	,	-13.366787	,	0
0,31	,	59107	,	-17727	,	-16344	,	-13.964675	,	0
0,31	,	59123	,	-17729	,	-16346	,	-14.433514	,	0
0,31	,	59154	,	-17723	,	-16345	,	-14.70046	,	0
0,31	,	59170	,	-17703	,	-16326	,	-14.490137	,	0
0,31	,	59187	,	-17700	,	-16340	,	-13.33378	,	0
0,31	,	59219	,	-17696	,	-16322	,	-10.925688	,	1
0,31	,	59235	,	-17698	,	-16334	,	-7.415469	,	3
0,31	,	59251	,	-17696	,	-16330	,	-3.3196774	,	6
0,31	,	59282	,	-17691	,	-16329	,	0.76812506	,	10
0,31	,	59298	,	-17688	,	-16324	,	4.415875	,	14
0,31	,	59314	,	-17680	,	-16328	,	7.4240203	,	17
0,31	,	59347	,	-17689	,	-16321	,	9.718758	,	20
0,31	,	59363	,	-17689	,	-16333	,	11.178182	,	22
0,31	,	59395	,	-17690	,	-16339	,	11.659267	,	23
0,31	,	59411	,	-17694	,	-16331	,	11.152353	,	22
0,31	,	59427	,	-17690	,	-16327	,	9.802715	,	20
0,31	,	59458	,	-17692	,	-16331	,	7.8814297	,	17
0,31	,	59474	,	-17694	,	-16333	,	5.710364	,	13
0,31	,	59490	,	-17692	,	-16334	,	3.5584579	,	9
0,31	,	59523	,	-17697	,	-16332	,	1.6106758	,	6
0,31	,	59539	,	-17697	,	-16329	,	-0.047230244	,	3
0,31	,	59571	,	-17698	,	-16329	,	-1.397638	,	1
0,31	,	59587	,	-17692	,	-16328	,	-2.4029903	,	0
0,31	,	59603	,	-17695	,	-16339	,	-2.9886746	,	0
0,31	,	59634	,	-17705	,	-16327	,	-3.178218	,	0
0,31	,	59651	,	-17705	,	-16333	,	-3.18952	,	0
0,31	,	59666	,	-17701	,	-16335	,	-3.2420125	,	0
0,31	,	59698	,	-17715	,	-16336	,	-3.4107385	,	0
0,31	,	59715	,	-17706	,	-16339	,	-3.7267842	,	0
0,31	,	59731	,	-17715	,	-16336	,	-4.1757507	,	0
0,31	,	59762	,	-17713	,	-16330	,	-4.6767807	,	0
0,31	,	59778	,	-17717	,	-16338	,	-5.1584888	,	0
0,32	,	59810	,	-17725	,	-16345	,	-5.6112223	,	0
0,32	,	59826	,	-17718	,	-16342	,	-6.070378	,	0
0,32	,	59842	,	-17732	,	-16353	,	-6.539226	,	0
0,32	,	59875	,	-17731	,	-16341	,	-7.0283356	,	0
0,32	,	59890	,	-17722	,	-16348	,	-7.5149193	,	0
0,32	,	59906	,	-17729	,	-16337	,	-7.8231707	,	0
0,32	,	59938	,	-17734	,	-16344	,	-7.81958	,	0
0,32	,	59954	,	-17744	,	-16347	,	-7.6265564	,	0
0,32	,	59987	,	-17755	,	-16354	,	-7.562593	,	0
0,32	,	60003	,	-17747	,	-16353	,	-7.8986163	,	0
0,32	,	60018	,	-17753	,	-16357	,	-8.605555	,	0
0,32	,	60050	,	-17756	,	-16357	,	-9.442789	,	0
0,32	,	60066	,	-17762	,	-16352	,	-10.227645	,	0
0,32	,	60082	,	-17758	,	-16363	,	-10.863592	,	0
0,32	,	60114	,	-17772	,	-16367	,	-11.289391	,	0
0,32	,	60130	,	-17765	,	-16361	,	-11.512051	,	0
0,32	,	60162	,	-17761	,	-16362	,	-11.500598	,	0
0,32	,	60178	,	-17748	,	-16351	,	-11.035252	,	0
0,32	,	60194	,	-17748	,	-16350	,	-9.816762	,	0
0,32	,	60226	,	-17730	,	-16353	,	-7.662309	,	1
0,32	,	60242	,	-17739	,	-16358	,	-4.5939083	,	3
0,32	,	60258	,	-17737	,	-16348	,	-0.9414635	,	6
0,32	,	60290	,	-17733	,	-16357	,	2.7349946	,	9
0,32	,	60306	,	-17728	,	-16364	,	5.9762707	,	12
0,32	,	60322	,	-17729	,	-16343	,	8.555775	,	15
0,32	,	60354	,	-17725	,	-16349	,	10.374425	,	17
0,32	,	60370	,	-17730	,	-16347	,	11.386918	,	18
0,32	,	60402	,	-17731	,	-16346	,	11.569035	,	19
0,32	,	60418	,	-17731	,	-16347	,	10.942543	,	18
0,32	,	60434	,	-17723	,	-16348	,	9.672856	,	16
0,32	,	60466	,	-17725	,	-16352	,	8.077689	,	13
0,32	,	60482	,	-17720	,	-16339	,	6.4871955	,	10
0,32	,	60498	,	-17721	,	-16346	,	5.1347833	,	7
0,32	,	60530	,	-17717	,	-16342	,	4.1429462	,	4
0,32	,	60546	,	-17726	,	-16339	,	3.4986634	,	2
0,32	,	60578	,	-17724	,	-16340	,	3.0480902	,	1
0,32	,	60594	,	-17731	,	-16353	,	2.591597	,	0
0,32	,	60610	,	-17727	,	-16340	,	1.9920104	,	0
0,32	,	60642	,	-17729	,	-16341	,	1.2337614	,	0
0,32	,	60658	,	-17739	,	-16349	,	0.3568647	,	0
0,32	,	60674	,	-17724	,	-16348	,	-0.6073389	,	0
0,32	,	60706	,	-17740	,	-16347	,	-1.5637999	,	0
0,32	,	60722	,	-17737	,	-16347	,	-2.433156	,	0
0,32	,	60738	,	-17736	,	-16341	,	-3.207903	,	0
0,32	,	60770	,	-17746	,	-16356	,	-3.8682342	,	0
0,32	,	60786	,	-17744	,	-16336	,	-4.4428997	,	0
0,33	,	60818	,	-17747	,	-16357	,	-4.9913626	,	0
0,33	,	60834	,	-17746	,	-16354	,	-5.49695	,	0
0,33	,	60850	,	-17755	,	-16354	,	-5.9213676	,	0
0,33	,	60882	,	-17754	,	-16358	,	-6.2879806	,	0
0,33	,	60898	,	-17752	,	-16355	,	-6.613516	,	0
0,33	,	60914	,	-17756	,	-16363	,	-6.8344393	,	0
0,33	,	60946	,	-17755	,	-16354	,	-6.8835526	,	0
0,33	,	60962	,	-17762	,	-16356	,	-6.7680817	,	0
0,33	,	60994	,	-17766	,	-16363	,	-6.587556	,	0
0,33	,	61010	,	-17765	,	-16369	,	-6.473668	,	0
0,33	,	61026	,	-17759	,	-16352	,	-6.4327087	,	0
0,33	,	61058	,	-17779	,	-16361	,	-6.394739	,	0
0,33	,	61074	,	-17779	,	-16371	,	-6.456311	,	0
0,33	,	61090	,	-17782	,	-16366	,	-6.804164	,	0
0,33	,	61122	,	-17785	,	-16368	,	-7.46154	,	0
0,33	,	61138	,	-17790	,	-16369	,	-8.315568	,	0
0,33	,	61154	,	-17779	,	-16371	,	-9.1878	,	0
0,33	,	61186	,	-17781	,	-16372	,	-9.786646	,	0
0,33	,	61202	,	-17769	,	-16368	,	-9.772959	,	0
0,33	,	61234	,	-17767	,	-16365	,	-8.893415	,	0
0,33	,	61250	,	-17762	,	-16353	,	-7.071036	,	0
0,33	,	61266	,	-17755	,	-16355	,	-4.427419	,	1
0,33	,	61298	,	-17749	,	-16351	,	-1.1964555	,	3
0,33	,	61314	,	-17749	,	-16353	,	2.3265085	,	6
0,33	,	61330	,	-17743	,	-16345	,	5.788271	,	9
0,33	,	61362	,	-17748	,	-16347	,	8.831109	,	12
0,33	,	61378	,	-17745	,	-16352	,	11.132864	,	15
0,33	,	61409	,	-17742	,	-16350	,	12.493544	,	17
0,33	,	61426	,	-17741	,	-16348	,	12.927467	,	18
0,33	,	61442	,	-17744	,	-16352	,	12.577452	,	18
0,33	,	61474	,	-17734	,	-16356	,	11.627146	,	17
0,33	,	61490	,	-17736	,	-16341	,	10.335237	,	15
0,33	,	61506	,	-17733	,	-16343	,	8.971516	,	12
0,33	,	61538	,	-17733	,	-16345	,	7.70349	,	9
0,33	,	61554	,	-17731	,	-16339	,	6.6070433	,	6
0,33	,	61570	,	-17732	,	-16337	,	5.7045584	,	3
0,33	,	61602	,	-17728	,	-16339	,	4.98206	,	1
0,33	,	61618	,	-17733	,	-16336	,	4.4088244	,	0
0,33	,	61650	,	-17734	,	-16343	,	3.9175498	,	0
0,33	,	61666	,	-17733	,	-16342	,	3.414018	,	0
0,33	,	61682	,	-17739	,	-16334	,	2.8226495	,	0
0,33	,	61714	,	-17737	,	-16340	,	2.089251	,	0
0,33	,	61730	,	-17736	,	-16340	,	1.2277067	,	0
0,33	,	61746	,	-17742	,	-16342	,	0.32854903	,	0
0,33	,	61777	,	-17736	,	-16341	,	-0.5292796	,	0
0,33	,	61793	,	-17742	,	-16351	,	-1.2837604	,	0
0,34	,	61826	,	-17734	,	-16340	,	-1.857603	,	0
0,34	,	61841	,	-17742	,	-16344	,	-2.1872573	,	0
0,34	,	61857	,	-17745	,	-16343	,	-2.3080385	,	0
0,34	,	61890	,	-17751	,	-16345	,	-2.393334	,	0
0,34	,	61905	,	-17746	,	-16347	,	-2.6132941	,	0
0,34	,	61921	,	-17755	,	-16353	,	-3.005776	,	0
0,34	,	61954	,	-17754	,	-16345	,	-3.542505	,	0
0,34	,	61970	,	-17758	,	-16359	,	-4.192251	,	0
0,34	,	62002	,	-17751	,	-16352	,	-4.8619328	,	0
0,34	,	62018	,	-17757	,	-16357	,	-5.3884196	,	0
0,34	,	62033	,	-17769	,	-16366	,	-5.7158146	,	0
0,34	,	62066	,	-17759	,	-16357	,	-5.954977	,	0
0,34	,	62081	,	-17773	,	-16359	,	-6.189133	,	0
0,34	,	62097	,	-17772	,	-16365	,	-6.4589615	,	0
0,34	,	62129	,	-17778	,	-16360	,	-6.837932	,	0
0,34	,	62145	,	-17780	,	-16363	,	-7.3553815	,	0
0,34	,	62177	,	-17770	,	-16378	,	-7.91313	,	0
0,34	,	62193	,	-17784	,	-16359	,	-8.318145	,	0
0,34	,	62209	,	-17777	,	-16343	,	-8.458363	,	0
0,34	,	62241	,	-17767	,	-16356	,	-8.265791	,	0
0,34	,	62257	,	-17766	,	-16357	,	-7.5618763	,	0
0,34	,	62274	,	-17742	,	-16355	,	-6.1090927	,	0
0,34	,	62306	,	-17742	,	-16350	,	-3.6860595	,	1
0,34	,	62321	,	-17748	,	-16352	,	-0.33251858	,	3
0,34	,	62353	,	-17744	,	-16353	,	3.4479067	,	6
0,34	,	62369	,	-17734	,	-16349	,	7.031888	,	9
0,34	,	62385	,	-17740	,	-16351	,	10.030729	,	12
0,34	,	62417	,	-17733	,	-16349	,	12.2302885	,	14
0,34	,	62433	,	-17721	,	-16348	,	13.59123	,	16
0,34	,	62450	,	-17730	,	-16344	,	14.269938	,	17
0,34	,	62482	,	-17726	,	-16346	,	14.379892	,	17
0,34	,	62497	,	-17722	,	-16337	,	13.948944	,	16
0,34	,	62513	,	-17724	,	-16340	,	13.079488	,	14
0,34	,	62545	,	-17719	,	-16328	,	11.922234	,	11
0,34	,	62561	,	-17711	,	-16337	,	10.662895	,	8
0,34	,	62593	,	-17712	,	-16340	,	9.535393	,	5
0,34	,	62609	,	-17717	,	-16341	,	8.649158	,	3
0,34	,	62626	,	-17707	,	-16324	,	7.931739	,	1
0,34	,	62657	,	-17707	,	-16334	,	7.3362484	,	0
0,34	,	62673	,	-17709	,	-16335	,	6.8838863	,	0
0,34	,	62689	,	-17717	,	-16343	,	6.4854794	,	0
0,34	,	62721	,	-17717	,	-16332	,	5.923484	,	0
0,34	,	62737	,	-17725	,	-16334	,	4.9987583	,	0
0,34	,	62769	,	-17719	,	-16334	,	3.6518486	,	0
0,34	,	62785	,	-17723	,	-16326	,	2.0106714	,	0
0,34	,	62801	,	-17724	,	-16330	,	0.29802322	,	0
0,35	,	62833	,	-17719	,	-16340	,	-1.2795005	,	0
0,35	,	62849	,	-17721	,	-16340	,	-2.5277545	,	0
0,35	,	62865	,	-17721	,	-16328	,	-3.3057213	,	0
0,35	,	62897	,	-17728	,	-16340	,	-3.6264453	,	0
0,35	,	62913	,	-17728	,	-16336	,	-3.6615427	,	0
0,35	,	62929	,	-17732	,	-16332	,	-3.6226177	,	0
0,35	,	62961	,	-17734	,	-16330	,	-3.657183	,	0
0,35	,	62977	,	-17730	,	-16338	,	-3.8099616	,	0
0,35	,	63009	,	-17738	,	-16344	,	-4.0321903	,	0
0,35	,	63025	,	-17737	,	-16341	,	-4.279974	,	0
0,35	,	63041	,	-17736	,	-16339	,	-4.5327353	,	0
0,35	,	63073	,	-17744	,	-16352	,	-4.751735	,	0
0,35	,	63089	,	-17745	,	-16344	,	-4.949795	,	0
0,35	,	63105	,	-17749	,	-16349	,	-5.1958647	,	0
0,35	,	63137	,	-17753	,	-16348	,	-5.542633	,	0
0,35	,	63153	,	-17750	,	-16353	,	-5.987951	,	0
0,35	,	63185	,	-17756	,	-16357	,	-6.458231	,	0
0,35	,	63201	,	-17759	,	-16353	,	-6.887143	,	0
0,35	,	63217	,	-17768	,	-16363	,	-7.306281	,	0
0,35	,	63249	,	-17756	,	-16349	,	-7.749274	,	0
0,35	,	63265	,	-17746	,	-16347	,	-8.024537	,	0
0,35	,	63281	,	-17734	,	-16347	,	-7.690216	,	0
0,35	,	63313	,	-17726	,	-16352	,	-6.3181434	,	0
0,35	,	63329	,	-17721	,	-16332	,	-3.7512496	,	1
0,35	,	63345	,	-17719	,	-16335	,	-0.19052744	,	3
0,35	,	63377	,	-17707	,	-16331	,	3.927202	,	6
0,35	,	63393	,	-17715	,	-16320	,	8.106628	,	10
0,35	,	63425	,	-17706	,	-16333	,	11.841063	,	14
0,35	,	63441	,	-17702	,	-16323	,	14.736401	,	17
0,35	,	63457	,	-17694	,	-16329	,	16.682266	,	19
0,35	,	63489	,	-17701	,	-16326	,	17.747723	,	20
0,35	,	63505	,	-17693	,	-16324	,	17.983374	,	21
0,35	,	63521	,	-17694	,	-16327	,	17.453392	,	20
0,35	,	63553	,	-17686	,	-16325	,	16.340939	,	18
0,35	,	63569	,	-17692	,	-16313	,	14.88842	,	15
0,35	,	63601	,	-17687	,	-16319	,	13.268633	,	11
0,35	,	63617	,	-17680	,	-16311	,	11.621191	,	7
0,35	,	63633	,	-17688	,	-16314	,	10.10216	,	4
0,35	,	63665	,	-17683	,	-16327	,	8.762312	,	2
0,35	,	63681	,	-17683	,	-16319	,	7.5583463	,	1
0,35	,	63697	,	-17675	,	-16317	,	6.5101514	,	0
0,35	,	63729	,	-17686	,	-16320	,	5.6719027	,	0
0,35	,	63745	,	-17686	,	-16309	,	4.972391	,	0
0,35	,	63761	,	-17687	,	-16325	,	4.241851	,	0
0,35	,	63793	,	-17688	,	-16319	,	3.3860323	,	0
0,36	,	63809	,	-17684	,	-16315	,	2.4350948	,	0
0,36	,	63841	,	-17694	,	-16325	,	1.4561381	,	0
0,36	,	63857	,	-17695	,	-16320	,	0.44183493	,	0
0,36	,	63873	,	-17694	,	-16321	,	-0.64713323	,	0
0,36	,	63905	,	-17695	,	-16314	,	-1.7460437	,	0
0,36	,	63921	,	-17700	,	-16315	,	-2.7382367	,	0
0,36	,	63936	,	-17702	,	-16323	,	-3.5886073	,	0
0,36	,	63969	,	-17709	,	-16313	,	-4.3551583	,	0
0,36	,	63985	,	-17703	,	-16318	,	-5.093728	,	0
0,36	,	64017	,	-17698	,	-16332	,	-5.711942	,	0
0,36	,	64033	,	-17711	,	-16318	,	-6.036638	,	0
0,36	,	64049	,	-17713	,	-16327	,	-6.088876	,	0
0,36	,	64081	,	-17708	,	-16324	,	-6.034831	,	0
0,36	,	64096	,	-17722	,	-16332	,	-5.974429	,	0
0,36	,	64112	,	-17723	,	-16329	,	-6.019706	,	0
0,36	,	64145	,	-17721	,	-16329	,	-6.2829638	,	0
0,36	,	64160	,	-17732	,	-16333	,	-6.74921	,	0
0,36	,	64176	,	-17731	,	-16333	,	-7.366328	,	0
0,36	,	64209	,	-17737	,	-16339	,	-8.092574	,	0
0,36	,	64225	,	-17731	,	-16345	,	-8.813438	,	0
0,36	,	64256	,	-17743	,	-16338	,	-9.377572	,	0
0,36	,	64273	,	-17739	,	-16339	,	-9.720703	,	0
0,36	,	64288	,	-17734	,	-16335	,	-9.810417	,	0
0,36	,	64320	,	-17724	,	-16326	,	-9.483194	,	0
0,36	,	64336	,	-17708	,	-16327	,	-8.429924	,	0
0,36	,	64353	,	-17712	,	-16320	,	-6.3766074	,	1
0,36	,	64385	,	-17699	,	-16328	,	-3.3333654	,	3
0,36	,	64401	,	-17693	,	-16321	,	0.43483424	,	6
0,36	,	64433	,	-17695	,	-16324	,	4.5627785	,	9
0,36	,	64449	,	-17684	,	-16326	,	8.60585	,	13
0,36	,	64465	,	-17691	,	-16332	,	12.126493	,	17
0,36	,	64496	,	-17689	,	-16312	,	14.751155	,	20
0,36	,	64513	,	-17683	,	-16311	,	16.233517	,	22
0,36	,	64529	,	-17687	,	-16311	,	16.568943	,	23
0,36	,	64561	,	-17673	,	-16312	,	15.968695	,	22
0,36	,	64576	,	-17682	,	-16313	,	14.760923	,	20
0,36	,	64592	,	-17668	,	-16310	,	13.269172	,	17
0,36	,	64624	,	-17670	,	-16303	,	11.772116	,	14
0,36	,	64640	,	-17675	,	-16304	,	10.452602	,	10
0,36	,	64672	,	-17663	,	-16305	,	9.329409	,	6
0,36	,	64688	,	-17662	,	-16310	,	8.423132	,	3
0,36	,	64704	,	-17662	,	-16317	,	7.8146696	,	1
0,36	,	64737	,	-17660	,	-16302	,	7.4878616	,	0
0,36	,	64752	,	-17656	,	-16312	,	7.339604	,	0
0,36	,	64768	,	-17668	,	-16307	,	7.2325716	,	0
0,36	,	64800	,	-17661	,	-16305	,	6.9705944	,	0
0,37	,	64816	,	-17664	,	-16307	,	6.4138813	,	0
0,37	,	64848	,	-17666	,	-16308	,	5.570735	,	0
0,37	,	64865	,	-17665	,	-16312	,	4.5146985	,	0
0,37	,	64881	,	-17669	,	-16304	,	3.329904	,	0
0,37	,	64912	,	-17664	,	-16310	,	2.1097758	,	0
0,37	,	64928	,	-17679	,	-16315	,	0.90749645	,	0
0,37	,	64944	,	-17677	,	-16310	,	-0.32865858	,	0
0,37	,	64976	,	-17679	,	-16318	,	-1.6602335	,	0
0,37	,	64992	,	-17682	,	-16311	,	-3.0344546	,	0
0,37	,	65024	,	-17680	,	-16309	,	-4.3282022	,	0
0,37	,	65041	,	-17678	,	-16317	,	-5.3775587	,	0
0,37	,	65056	,	-17683	,	-16312	,	-6.024325	,	0
0,37	,	65088	,	-17689	,	-16323	,	-6.2661867	,	0
0,37	,	65104	,	-17695	,	-16320	,	-6.294533	,	0
0,37	,	65120	,	-17693	,	-16325	,	-6.331689	,	0
0,37	,	65152	,	-17698	,	-16321	,	-6.4694695	,	0
0,37	,	65168	,	-17695	,	-16337	,	-6.670204	,	0
0,37	,	65184	,	-17695	,	-16320	,	-6.82078	,	0
0,37	,	65217	,	-17708	,	-16333	,	-6.843442	,	0
0,37	,	65232	,	-17713	,	-16333	,	-6.857267	,	0
0,37	,	65264	,	-17715	,	-16331	,	-7.085786	,	0
0,37	,	65280	,	-17714	,	-16330	,	-7.591306	,	0
0,37	,	65296	,	-17720	,	-16337	,	-8.243481	,	0
0,37	,	65328	,	-17719	,	-16329	,	-8.882158	,	0
0,37	,	65344	,	-17703	,	-16327	,	-9.300101	,	0
0,37	,	65360	,	-17686	,	-16321	,	-9.066356	,	0
0,37	,	65392	,	-17679	,	-16327	,	-7.642923	,	0
0,37	,	65408	,	-17678	,	-16310	,	-4.802831	,	1
0,37	,	65440	,	-17676	,	-16319	,	-0.8455949	,	3
0,37	,	65456	,	-17669	,	-16321	,	3.608239	,	6
0,37	,	65472	,	-17668	,	-16312	,	7.9470353	,	10
0,37	,	65504	,	-17662	,	-16309	,	11.71632	,	14
0,37	,	65520	,	-17657	,	-16312	,	14.648457	,	17
0,37	,	65536	,	-17661	,	-16305	,	16.623741	,	19
0,37	,	65568	,	-17668	,	-16312	,	17.525986	,	20
0,37	,	65584	,	-17658	,	-16316	,	17.264751	,	20
0,37	,	65600	,	-17657	,	-16306	,	15.9930725	,	19
0,37	,	65632	,	-17655	,	-16316	,	14.089021	,	17
0,37	,	65648	,	-17654	,	-16291	,	11.930553	,	14
0,37	,	65680	,	-17650	,	-16305	,	9.813037	,	10
0,37	,	65696	,	-17652	,	-16307	,	7.952476	,	6
0,37	,	65712	,	-17651	,	-16301	,	6.4410253	,	3
0,37	,	65744	,	-17647	,	-16298	,	5.273667	,	1
0,37	,	65760	,	-17658	,	-16317	,	4.3917055	,	0
0,37	,	65776	,	-17650	,	-16307	,	3.6642394	,	0
0,38	,	65808	,	-17657	,	-16306	,	2.967671	,	0
0,38	,	65824	,	-17660	,	-16307	,	2.2264218	,	0
0,38	,	65856	,	-17660	,	-16309	,	1.365418	,	0
0,38	,	65872	,	-17651	,	-16318	,	0.41340005	,	0
0,38	,	65888	,	-17658	,	-16291	,	-0.4494952	,	0
0,38	,	65920	,	-17671	,	-16314	,	-1.1415796	,	0
0,38	,	65936	,	-17666	,	-16315	,	-1.8143796	,	0
0,38	,	65952	,	-17665	,	-16309	,	-2.5788636	,	0
0,38	,	65984	,	-17666	,	-16308	,	-3.3274264	,	0
0,38	,	66000	,	-17672	,	-16315	,	-3.9267995	,	0
0,38	,	66016	,	-17681	,	-16307	,	-4.4188814	,	0
0,38	,	66048	,	-17668	,	-16309	,	-4.9187274	,	0
0,38	,	66064	,	-17679	,	-16315	,	-5.398424	,	0
0,38	,	66096	,	-17680	,	-16324	,	-5.778003	,	0
0,38	,	66112	,	-17678	,	-16322	,	-6.0563316	,	0
0,38	,	66128	,	-17691	,	-16318	,	-6.265147	,	0
0,38	,	66160	,	-17700	,	-16324	,	-6.547906	,	0
0,38	,	66176	,	-17696	,	-16328	,	-7.1093183	,	0
0,38	,	66192	,	-17693	,	-16319	,	-7.916703	,	0
0,38	,	66224	,	-17698	,	-16329	,	-8.689351	,	0
0,38	,	66240	,	-17703	,	-16327	,	-9.210505	,	0
0,38	,	66272	,	-17707	,	-16333	,	-9.480272	,	0
0,38	,	66288	,	-17708	,	-16327	,	-9.595753	,	0
0,38	,	66304	,	-17713	,	-16329	,	-9.626032	,	0
0,38	,	66336	,	-17699	,	-16329	,	-9.540865	,	0
0,38	,	66352	,	-17701	,	-16315	,	-9.154728	,	0
0,38	,	66368	,	-17683	,	-16317	,	-8.1965475	,	0
0,38	,	66400	,	-17673	,	-16321	,	-6.392172	,	0
0,38	,	66416	,	-17672	,	-16314	,	-3.5819688	,	1
0,38	,	66432	,	-17667	,	-16320	,	0.07378006	,	3
0,38	,	66464	,	-17666	,	-16316	,	4.1229286	,	6
0,38	,	66480	,	-17666	,	-16309	,	8.023778	,	10
0,38	,	66512	,	-17659	,	-16305	,	11.305941	,	13
0,38	,	66528	,	-17654	,	-16306	,	13.7215	,	16
0,38	,	66544	,	-17651	,	-16310	,	15.266227	,	18
0,38	,	66576	,	-17655	,	-16305	,	16.017166	,	19
0,38	,	66592	,	-17657	,	-16312	,	15.9818	,	19
0,38	,	66608	,	-17652	,	-16309	,	15.154268	,	18
0,38	,	66640	,	-17649	,	-16305	,	13.686724	,	16
0,38	,	66656	,	-17653	,	-16297	,	11.859316	,	13
0,38	,	66688	,	-17652	,	-16306	,	9.890028	,	9
0,38	,	66704	,	-17644	,	-16299	,	7.938742	,	6
0,38	,	66720	,	-17650	,	-16299	,	6.193635	,	3
0,38	,	66752	,	-17656	,	-16302	,	4.733691	,	1
0,38	,	66768	,	-17648	,	-16308	,	3.4813917	,	0
0,38	,	66784	,	-17651	,	-16307	,	2.4054036	,	0
0,39	,	66816	,	-17654	,	-16297	,	1.5332696	,	0
0,39	,	66832	,	-17659	,	-16299	,	0.7981949	,	0
0,39	,	66848	,	-17661	,	-16296	,	0.052833915	,	0
0,39	,	66880	,	-17665	,	-16308	,	-0.81803775	,	0
0,39	,	66896	,	-17658	,	-16315	,	-1.8077694	,	0
0,39	,	66928	,	-17664	,	-16305	,	-2.7781181	,	0
0,39	,	66944	,	-17670	,	-16309	,	-3.6120644	,	0
0,39	,	66959	,	-17670	,	-16303	,	-4.3235974	,	0
0,39	,	66991	,	-17675	,	-16309	,	-4.9669895	,	0
0,39	,	67007	,	-17674	,	-16305	,	-5.555486	,	0
0,39	,	67024	,	-17674	,	-16317	,	-6.0493197	,	0
0,39	,	67056	,	-17681	,	-16307	,	-6.3950596	,	0
0,39	,	67072	,	-17694	,	-16313	,	-6.6672316	,	0
0,39	,	67104	,	-17689	,	-16310	,	-7.0605507	,	0
0,39	,	67119	,	-17688	,	-16319	,	-7.6247253	,	0
0,39	,	67135	,	-17696	,	-16325	,	-8.207408	,	0
0,39	,	67167	,	-17696	,	-16310	,	-8.687475	,	0
0,39	,	67183	,	-17688	,	-16317	,	-8.9889555	,	0
0,39	,	67200	,	-17702	,	-16322	,	-9.007095	,	0
0,39	,	67232	,	-17706	,	-16320	,	-8.786009	,	0
0,39	,	67248	,	-17706	,	-16330	,	-8.530864	,	0
0,39	,	67279	,	-17706	,	-16322	,	-8.353973	,	0
0,39	,	67296	,	-17709	,	-16334	,	-8.219555	,	0
0,39	,	67311	,	-17718	,	-16324	,	-8.108405	,	0
0,39	,	67343	,	-17724	,	-16322	,	-8.121162	,	0
0,39	,	67359	,	-17714	,	-16331	,	-8.334141	,	0
0,39	,	67375	,	-17710	,	-16326	,	-8.567406	,	0
0,39	,	67408	,	-17697	,	-16328	,	-8.413975	,	0
0,39	,	67424	,	-17692	,	-16320	,	-7.46277	,	0
0,39	,	67439	,	-17684	,	-16308	,	-5.49599	,	0
0,39	,	67471	,	-17691	,	-16325	,	-2.6264808	,	1
0,39	,	67487	,	-17680	,	-16329	,	0.7356963	,	3
0,39	,	67519	,	-17688	,	-16316	,	4.091069	,	6
0,39	,	67535	,	-17680	,	-16316	,	6.998256	,	9
0,39	,	67551	,	-17674	,	-16312	,	9.192648	,	11
0,39	,	67583	,	-17674	,	-16319	,	10.661586	,	13
0,39	,	67599	,	-17673	,	-16314	,	11.49805	,	14
0,39	,	67615	,	-17671	,	-16320	,	11.770669	,	14
0,39	,	67648	,	-17678	,	-16320	,	11.516628	,	14
0,39	,	67663	,	-17668	,	-16306	,	10.767597	,	13
0,39	,	67695	,	-17670	,	-16312	,	9.651167	,	11
0,39	,	67711	,	-17672	,	-16317	,	8.35912	,	8
0,39	,	67727	,	-17669	,	-16315	,	7.0100126	,	5
0,39	,	67759	,	-17674	,	-16315	,	5.6634107	,	3
0,39	,	67775	,	-17673	,	-16308	,	4.35973	,	1
0,39	,	67791	,	-17672	,	-16319	,	3.1312025	,	0
0,40	,	67823	,	-17672	,	-16314	,	2.0306642	,	0
0,40	,	67839	,	-17675	,	-16311	,	1.1016147	,	0
0,40	,	67855	,	-17675	,	-16316	,	0.34502673	,	0
0,40	,	67887	,	-17678	,	-16311	,	-0.26967138	,	0
0,40	,	67903	,	-17675	,	-16315	,	-0.7780063	,	0
0,40	,	67935	,	-17686	,	-16324	,	-1.230165	,	0
0,40	,	67951	,	-17680	,	-16323	,	-1.709091	,	0
0,40	,	67967	,	-17689	,	-16309	,	-2.2689042	,	0
0,40	,	67999	,	-17696	,	-16315	,	-2.9568002	,	0
0,40	,	68015	,	-17700	,	-16318	,	-3.8787596	,	0
0,40	,	68031	,	-17697	,	-16319	,	-5.0597	,	0
0,40	,	68064	,	-17699	,	-16318	,	-6.324546	,	0
0,40	,	68079	,	-17699	,	-16321	,	-7.4136257	,	0
0,40	,	68111	,	-17700	,	-16322	,	-8.133424	,	0
0,40	,	68127	,	-17703	,	-16324	,	-8.413509	,	0
0,40	,	68143	,	-17704	,	-16321	,	-8.303691	,	0
0,40	,	68175	,	-17713	,	-16329	,	-7.949629	,	0
0,40	,	68191	,	-17705	,	-16338	,	-7.514803	,	0
0,40	,	68207	,	-17705	,	-16330	,	-7.030549	,	0
0,40	,	68239	,	-17719	,	-16334	,	-6.4680495	,	0
0,40	,	68255	,	-17721	,	-16335	,	-5.9822836	,	0
0,40	,	68271	,	-17726	,	-16338	,	-5.8268595	,	0
0,40	,	68303	,	-17725	,	-16342	,	-6.0958214	,	0
0,40	,	68319	,	-17735	,	-16336	,	-6.713315	,	0
0,40	,	68351	,	-17742	,	-16333	,	-7.605347	,	0
0,40	,	68367	,	-17737	,	-16339	,	-8.720098	,	0
0,40	,	68383	,	-17739	,	-16343	,	-9.870005	,	0
0,40	,	68415	,	-17731	,	-16346	,	-10.731102	,	0
0,40	,	68431	,	-17728	,	-16329	,	-10.979897	,	0
0,40	,	68447	,	-17714	,	-16340	,	-10.346079	,	0
0,40	,	68479	,	-17718	,	-16339	,	-8.671696	,	0
0,40	,	68495	,	-17706	,	-16334	,	-6.0239162	,	1
0,40	,	68527	,	-17702	,	-16335	,	-2.6526165	,	3
0,40	,	68543	,	-17697	,	-16331	,	1.1378989	,	6
0,40	,	68559	,	-17702	,	-16335	,	4.966442	,	9
0,40	,	68591	,	-17697	,	-16331	,	8.368765	,	12
0,40	,	68607	,	-17701	,	-16319	,	10.941276	,	15
0,40	,	68623	,	-17697	,	-16327	,	12.45595	,	17
0,40	,	68655	,	-17707	,	-16335	,	12.8482685	,	18
0,40	,	68671	,	-17703	,	-16319	,	12.165656	,	18
0,40	,	68687	,	-17693	,	-16320	,	10.6360655	,	17
0,40	,	68719	,	-17691	,	-16327	,	8.724396	,	15
0,40	,	68735	,	-17696	,	-16318	,	6.8946543	,	12
0,40	,	68767	,	-17697	,	-16320	,	5.3429017	,	9
0,40	,	68783	,	-17700	,	-16321	,	4.036226	,	6
0,40	,	68799	,	-17691	,	-16325	,	2.917105	,	3
0,41	,	68831	,	-17692	,	-16326	,	2.0339317	,	1
0,41	,	68847	,	-17700	,	-16322	,	1.4334109	,	0
0,41	,	68863	,	-17703	,	-16315	,	0.9904003	,	0
0,41	,	68895	,	-17704	,	-16333	,	0.49644703	,	0
0,41	,	68911	,	-17689	,	-16321	,	-0.08451742	,	0
0,41	,	68943	,	-17705	,	-16315	,	-0.59402776	,	0
0,41	,	68959	,	-17705	,	-16327	,	-0.9750892	,	0
0,41	,	68975	,	-17710	,	-16324	,	-1.3713775	,	0
0,41	,	69007	,	-17704	,	-16325	,	-1.8898729	,	0
0,41	,	69023	,	-17720	,	-16326	,	-2.5298495	,	0
0,41	,	69039	,	-17710	,	-16328	,	-3.292058	,	0
0,41	,	69071	,	-17720	,	-16330	,	-4.140159	,	0
0,41	,	69087	,	-17719	,	-16341	,	-4.9812303	,	0
0,41	,	69103	,	-17717	,	-16340	,	-5.721361	,	0
0,41	,	69135	,	-17711	,	-16328	,	-6.206638	,	0
0,41	,	69151	,	-17727	,	-16341	,	-6.3118668	,	0
0,41	,	69183	,	-17734	,	-16331	,	-6.195406	,	0
0,41	,	69199	,	-17734	,	-16334	,	-6.208988	,	0
0,41	,	69215	,	-17730	,	-16336	,	-6.50798	,	0
0,41	,	69247	,	-17743	,	-16337	,	-6.988447	,	0
0,41	,	69263	,	-17736	,	-16336	,	-7.5311575	,	0
0,41	,	69278	,	-17744	,	-16331	,	-8.053135	,	0
0,41	,	69311	,	-17749	,	-16340	,	-8.495122	,	0
0,41	,	69327	,	-17750	,	-16347	,	-8.874189	,	0
0,41	,	69359	,	-17746	,	-16348	,	-9.176166	,	0
0,41	,	69375	,	-17745	,	-16332	,	-9.258629	,	0
0,41	,	69391	,	-17753	,	-16347	,	-8.996105	,	0
0,41	,	69423	,	-17743	,	-16348	,	-8.401378	,	0
0,41	,	69439	,	-17737	,	-16342	,	-7.476896	,	0
0,41	,	69455	,	-17733	,	-16343	,	-6.113559	,	0
0,41	,	69487	,	-17734	,	-16339	,	-4.2574635	,	1
0,41	,	69502	,	-17723	,	-16330	,	-2.0040932	,	2
0,41	,	69519	,	-17719	,	-16346	,	0.52091956	,	4
0,41	,	69550	,	-17719	,	-16335	,	3.1898403	,	6
0,41	,	69566	,	-17720	,	-16331	,	5.7679987	,	8
0,41	,	69598	,	-17719	,	-16329	,	7.9398837	,	10
0,41	,	69614	,	-17719	,	-16330	,	9.448121	,	12
0,41	,	69631	,	-17717	,	-16334	,	10.177157	,	13
0,41	,	69663	,	-17711	,	-16328	,	10.190488	,	13
0,41	,	69679	,	-17707	,	-16331	,	9.727312	,	12
0,41	,	69695	,	-17714	,	-16326	,	9.045713	,	11
0,41	,	69726	,	-17712	,	-16338	,	8.236715	,	9
0,41	,	69742	,	-17709	,	-16332	,	7.296642	,	7
0,41	,	69774	,	-17717	,	-16329	,	6.253915	,	5
0,41	,	69791	,	-17709	,	-16332	,	5.142165	,	3
0,42	,	69806	,	-17717	,	-16338	,	4.0030265	,	1
0,42	,	69839	,	-17715	,	-16308	,	2.8802187	,	0
0,42	,	69855	,	-17716	,	-16321	,	1.8008406	,	0
0,42	,	69870	,	-17711	,	-16330	,	0.8344724	,	0
0,42	,	69902	,	-17718	,	-16323	,	0.068056345	,	0
0,42	,	69918	,	-17723	,	-16326	,	-0.5267001	,	0
0,42	,	69934	,	-17721	,	-16326	,	-1.0854784	,	0
0,42	,	69966	,	-17723	,	-16330	,	-1.6811678	,	0
0,42	,	69982	,	-17731	,	-16335	,	-2.3142147	,	0
0,42	,	70014	,	-17730	,	-16331	,	-3.0204408	,	0
0,42	,	70030	,	-17730	,	-16329	,	-3.8003979	,	0
0,42	,	70046	,	-17732	,	-16342	,	-4.54972	,	0
0,42	,	70078	,	-17730	,	-16327	,	-5.1390777	,	0
0,42	,	70094	,	-17733	,	-16333	,	-5.476237	,	0
0,42	,	70110	,	-17738	,	-16331	,	-5.5555377	,	0
0,42	,	70142	,	-17741	,	-16324	,	-5.489183	,	0
0,42	,	70158	,	-17743	,	-16337	,	-5.4252844	,	0
0,42	,	70190	,	-17748	,	-16336	,	-5.463989	,	0
0,42	,	70206	,	-17744	,	-16341	,	-5.6320353	,	0
0,42	,	70222	,	-17738	,	-16336	,	-5.821453	,	0
0,42	,	70254	,	-17751	,	-16332	,	-5.86153	,	0
0,42	,	70270	,	-17748	,	-16341	,	-5.73541	,	0
0,42	,	70286	,	-17751	,	-16336	,	-5.5508413	,	0
0,42	,	70318	,	-17751	,	-16345	,	-5.371428	,	0
0,42	,	70334	,	-17757	,	-16338	,	-5.223244	,	0
0,42	,	70366	,	-17762	,	-16349	,	-5.171104	,	0
0,42	,	70382	,	-17766	,	-16352	,	-5.3205357	,	0
0,42	,	70398	,	-17768	,	-16343	,	-5.736255	,	0
0,42	,	70430	,	-17774	,	-16348	,	-6.3992863	,	0
0,42	,	70446	,	-17772	,	-16353	,	-7.2307825	,	0
0,42	,	70462	,	-17779	,	-16356	,	-8.108166	,	0
0,42	,	70494	,	-17761	,	-16347	,	-8.831721	,	0
0,42	,	70510	,	-17759	,	-16351	,	-9.055347	,	0
0,42	,	70526	,	-17761	,	-16332	,	-8.455755	,	0
0,42	,	70558	,	-17740	,	-16336	,	-6.932179	,	0
0,42	,	70574	,	-17741	,	-16337	,	-4.4905257	,	1
0,42	,	70606	,	-17740	,	-16343	,	-1.2728825	,	3
0,42	,	70622	,	-17737	,	-16329	,	2.3117073	,	6
0,42	,	70638	,	-17731	,	-16327	,	5.7833495	,	9
0,42	,	70670	,	-17728	,	-16335	,	8.81034	,	12
0,42	,	70686	,	-17726	,	-16332	,	11.207142	,	15
0,42	,	70702	,	-17723	,	-16335	,	12.876049	,	17
0,42	,	70734	,	-17729	,	-16333	,	13.762456	,	18
0,42	,	70750	,	-17724	,	-16335	,	13.833813	,	18
0,42	,	70782	,	-17734	,	-16331	,	13.109037	,	17
0,42	,	70798	,	-17714	,	-16329	,	11.734993	,	15
0,43	,	70814	,	-17723	,	-16332	,	10.0399685	,	12
0,43	,	70846	,	-17721	,	-16328	,	8.352053	,	9
0,43	,	70862	,	-17724	,	-16325	,	6.797749	,	6
0,43	,	70878	,	-17724	,	-16320	,	5.380286	,	3
0,43	,	70910	,	-17724	,	-16317	,	4.0922804	,	1
0,43	,	70926	,	-17721	,	-16329	,	2.95109	,	0
0,43	,	70942	,	-17717	,	-16334	,	2.0247543	,	0
0,43	,	70974	,	-17725	,	-16332	,	1.3747199	,	0
0,43	,	70990	,	-17723	,	-16321	,	0.95717394	,	0
0,43	,	71022	,	-17732	,	-16329	,	0.6252717	,	0
0,43	,	71038	,	-17731	,	-16324	,	0.20242476	,	0
0,43	,	71054	,	-17734	,	-16329	,	-0.42350662	,	0
0,43	,	71086	,	-17737	,	-16323	,	-1.2497563	,	0
0,43	,	71102	,	-17735	,	-16335	,	-2.197734	,	0
0,43	,	71118	,	-17732	,	-16336	,	-3.1201777	,	0
0,43	,	71150	,	-17738	,	-16337	,	-3.8463721	,	0
0,43	,	71166	,	-17736	,	-16338	,	-4.29434	,	0
0,43	,	71198	,	-17742	,	-16337	,	-4.4875054	,	0
0,43	,	71214	,	-17741	,	-16341	,	-4.513613	,	0
0,43	,	71230	,	-17752	,	-16321	,	-4.5097647	,	0
0,43	,	71262	,	-17759	,	-16344	,	-4.6747103	,	0
0,43	,	71278	,	-17753	,	-16327	,	-5.16924	,	0
0,43	,	71294	,	-17764	,	-16338	,	-5.967269	,	0
0,43	,	71326	,	-17772	,	-16338	,	-6.986065	,	0
0,43	,	71342	,	-17755	,	-16337	,	-8.135889	,	0
0,43	,	71358	,	-17768	,	-16345	,	-9.150909	,	0
0,43	,	71390	,	-17767	,	-16351	,	-9.773159	,	0
0,43	,	71406	,	-17775	,	-16341	,	-9.995164	,	0
0,43	,	71438	,	-17770	,	-16349	,	-9.929711	,	0
0,43	,	71454	,	-17784	,	-16340	,	-9.684208	,	0
0,43	,	71470	,	-17777	,	-16344	,	-9.379127	,	0
0,43	,	71502	,	-17784	,	-16358	,	-9.093113	,	0
0,43	,	71517	,	-17778	,	-16356	,	-8.803829	,	0
0,43	,	71533	,	-17771	,	-16350	,	-8.378297	,	0
0,43	,	71566	,	-17762	,	-16345	,	-7.5613656	,	0
0,43	,	71582	,	-17755	,	-16343	,	-6.077321	,	0
0,43	,	71614	,	-17752	,	-16350	,	-3.8066533	,	1
0,43	,	71630	,	-17744	,	-16336	,	-0.85433173	,	3
0,43	,	71646	,	-17745	,	-16336	,	2.5048645	,	5
0,43	,	71678	,	-17737	,	-16346	,	5.912788	,	8
0,43	,	71694	,	-17741	,	-16321	,	9.010836	,	11
0,43	,	71710	,	-17740	,	-16328	,	11.473587	,	14
0,43	,	71742	,	-17733	,	-16328	,	13.074545	,	16
0,43	,	71757	,	-17739	,	-16334	,	13.768099	,	17
0,43	,	71774	,	-17736	,	-16322	,	13.608149	,	17
0,44	,	71806	,	-17732	,	-16327	,	12.718114	,	16
0,44	,	71822	,	-17724	,	-16322	,	11.382977	,	14
0,44	,	71853	,	-17723	,	-16329	,	9.986336	,	12
0,44	,	71869	,	-17726	,	-16330	,	8.800486	,	9
0,44	,	71885	,	-17726	,	-16326	,	7.860019	,	6
0,44	,	71917	,	-17729	,	-16332	,	7.034258	,	3
0,44	,	71933	,	-17723	,	-16329	,	6.201212	,	1
0,44	,	71949	,	-17726	,	-16330	,	5.3460226	,	0
0,44	,	71982	,	-17724	,	-16334	,	4.507719	,	0
0,44	,	71997	,	-17722	,	-16325	,	3.7240922	,	0
0,44	,	72029	,	-17724	,	-16325	,	3.0372643	,	0
0,44	,	72045	,	-17724	,	-16320	,	2.4566174	,	0
0,44	,	72062	,	-17719	,	-16328	,	1.9753762	,	0
0,44	,	72094	,	-17734	,	-16326	,	1.5710421	,	0
0,44	,	72110	,	-17729	,	-16329	,	1.1204845	,	0
0,44	,	72126	,	-17730	,	-16333	,	0.5105926	,	0
0,44	,	72157	,	-17726	,	-16328	,	-0.20291561	,	0
0,44	,	72173	,	-17727	,	-16321	,	-0.86686236	,	0
0,44	,	72189	,	-17733	,	-16333	,	-1.3791155	,	0
0,44	,	72222	,	-17741	,	-16329	,	-1.7999159	,	0
0,44	,	72238	,	-17738	,	-16334	,	-2.3007638	,	0
0,44	,	72269	,	-17747	,	-16338	,	-2.986116	,	0
0,44	,	72285	,	-17745	,	-16339	,	-3.8503985	,	0
0,44	,	72301	,	-17754	,	-16340	,	-4.8402147	,	0
0,44	,	72333	,	-17744	,	-16339	,	-5.8558245	,	0
0,44	,	72349	,	-17753	,	-16336	,	-6.731079	,	0
0,44	,	72365	,	-17749	,	-16353	,	-7.3135037	,	0
0,44	,	72397	,	-17754	,	-16331	,	-7.5477304	,	0
0,44	,	72413	,	-17773	,	-16342	,	-7.553074	,	0
0,44	,	72445	,	-17772	,	-16346	,	-7.65955	,	0
0,44	,	72461	,	-17769	,	-16349	,	-8.108936	,	0
0,44	,	72477	,	-17764	,	-16352	,	-8.7547865	,	0
0,44	,	72509	,	-17770	,	-16338	,	-9.244475	,	0
0,44	,	72525	,	-17772	,	-16353	,	-9.3696995	,	0
0,44	,	72541	,	-17768	,	-16350	,	-9.117231	,	0
0,44	,	72573	,	-17773	,	-16353	,	-8.525528	,	0
0,44	,	72589	,	-17766	,	-16352	,	-7.643514	,	0
0,44	,	72605	,	-17749	,	-16346	,	-6.431434	,	0
0,44	,	72637	,	-17755	,	-16342	,	-4.7146072	,	1
0,44	,	72653	,	-17729	,	-16336	,	-2.3566241	,	2
0,44	,	72685	,	-17731	,	-16331	,	0.6920557	,	4
0,44	,	72701	,	-17726	,	-16326	,	4.3235188	,	7
0,44	,	72717	,	-17733	,	-16331	,	8.115915	,	10
0,44	,	72749	,	-17727	,	-16329	,	11.474282	,	13
0,44	,	72765	,	-17719	,	-16323	,	13.975391	,	16
0,44	,	72781	,	-17722	,	-16328	,	15.513181	,	18
0,45	,	72813	,	-17718	,	-16324	,	16.139038	,	19
0,45	,	72829	,	-17724	,	-16335	,	15.912575	,	18
0,45	,	72861	,	-17725	,	-16316	,	14.885398	,	17
0,45	,	72877	,	-17712	,	-16322	,	13.203498	,	15
0,45	,	72893	,	-17714	,	-16327	,	11.216734	,	12
0,45	,	72925	,	-17711	,	-16331	,	9.309979	,	9
0,45	,	72941	,	-17710	,	-16321	,	7.7028117	,	6
0,45	,	72957	,	-17711	,	-16331	,	6.461945	,	3
0,45	,	72989	,	-17707	,	-16319	,	5.5617666	,	1
0,45	,	73005	,	-17712	,	-16322	,	4.9294972	,	0
0,45	,	73021	,	-17704	,	-16315	,	4.483102	,	0
0,45	,	73053	,	-17712	,	-16320	,	4.1531334	,	0
0,45	,	73069	,	-17706	,	-16327	,	3.8700285	,	0
0,45	,	73101	,	-17710	,	-16317	,	3.5702238	,	0
0,45	,	73117	,	-17717	,	-16314	,	3.1806545	,	0
0,45	,	73133	,	-17719	,	-16321	,	2.569584	,	0
0,45	,	73165	,	-17726	,	-16327	,	1.6046547	,	0
0,45	,	73181	,	-17724	,	-16314	,	0.25281692	,	0
0,45	,	73197	,	-17722	,	-16328	,	-1.346816	,	0
0,45	,	73229	,	-17725	,	-16337	,	-2.9142582	,	0
0,45	,	73245	,	-17722	,	-16330	,	-4.1880307	,	0
0,45	,	73277	,	-17724	,	-16335	,	-5.011998	,	0
0,45	,	73293	,	-17732	,	-16326	,	-5.377386	,	0
0,45	,	73309	,	-17736	,	-16325	,	-5.4631376	,	0
0,45	,	73341	,	-17732	,	-16327	,	-5.490584	,	0
0,45	,	73357	,	-17739	,	-16327	,	-5.549437	,	0
0,45	,	73373	,	-17741	,	-16336	,	-5.6595144	,	0
0,45	,	73405	,	-17750	,	-16343	,	-5.8881826	,	0
0,45	,	73421	,	-17744	,	-16342	,	-6.29873	,	0
0,45	,	73453	,	-17751	,	-16338	,	-6.839218	,	0
0,45	,	73469	,	-17750	,	-16341	,	-7.3842697	,	0
0,45	,	73485	,	-17755	,	-16339	,	-7.8438387	,	0
0,45	,	73517	,	-17748	,	-16346	,	-8.144995	,	0
0,45	,	73533	,	-17752	,	-16357	,	-8.180086	,	0
0,45	,	73549	,	-17765	,	-16342	,	-7.9315124	,	0
0,45	,	73581	,	-17756	,	-16344	,	-7.5556927	,	0
0,45	,	73597	,	-17756	,	-16351	,	-7.1488876	,	0
0,45	,	73613	,	-17740	,	-16343	,	-6.55782	,	0
0,45	,	73645	,	-17742	,	-16346	,	-5.503975	,	0
0,45	,	73661	,	-17727	,	-16326	,	-3.7940626	,	1
0,45	,	73693	,	-17725	,	-16334	,	-1.3916657	,	2
0,45	,	73709	,	-17707	,	-16330	,	1.647393	,	4
0,45	,	73725	,	-17709	,	-16329	,	5.2002606	,	7
0,45	,	73757	,	-17713	,	-16329	,	8.948008	,	10
0,45	,	73773	,	-17708	,	-16334	,	12.349748	,	13
0,45	,	73789	,	-17699	,	-16320	,	14.9563675	,	16
0,46	,	73821	,	-17697	,	-16317	,	16.644274	,	18
0,46	,	73837	,	-17701	,	-16320	,	17.456802	,	19
0,46	,	73869	,	-17698	,	-16320	,	17.417414	,	18
0,46	,	73885	,	-17689	,	-16320	,	16.620707	,	17
0,46	,	73900	,	-17687	,	-16321	,	15.344127	,	15
0,46	,	73933	,	-17678	,	-16317	,	13.948186	,	12
0,46	,	73949	,	-17679	,	-16306	,	12.733465	,	9
0,46	,	73981	,	-17682	,	-16308	,	11.81103	,	6
0,46	,	73997	,	-17682	,	-16316	,	11.053374	,	3
0,46	,	74013	,	-17669	,	-16307	,	10.314283	,	1
0,46	,	74045	,	-17676	,	-16321	,	9.616127	,	0
0,46	,	74061	,	-17673	,	-16312	,	8.993335	,	0
0,46	,	74077	,	-17677	,	-16310	,	8.362715	,	0
0,46	,	74109	,	-17682	,	-16314	,	7.586183	,	0
0,46	,	74125	,	-17686	,	-16308	,	6.5118756	,	0
0,46	,	74141	,	-17682	,	-16309	,	5.0678577	,	0
0,46	,	74173	,	-17685	,	-16312	,	3.365538	,	0
0,46	,	74188	,	-17689	,	-16316	,	1.6015229	,	0
0,46	,	74220	,	-17678	,	-16315	,	-0.039066076	,	0
0,46	,	74237	,	-17693	,	-16326	,	-1.3871361	,	0
0,46	,	74253	,	-17694	,	-16317	,	-2.4269857	,	0
0,46	,	74285	,	-17696	,	-16323	,	-3.305089	,	0
0,46	,	74301	,	-17699	,	-16319	,	-4.1245184	,	0
0,46	,	74316	,	-17700	,	-16324	,	-4.893778	,	0
0,46	,	74349	,	-17698	,	-16325	,	-5.5583577	,	0
0,46	,	74365	,	-17701	,	-16319	,	-6.01974	,	0
0,46	,	74396	,	-17703	,	-16322	,	-6.226973	,	0
0,46	,	74412	,	-17702	,	-16319	,	-6.2034187	,	0
0,46	,	74428	,	-17711	,	-16331	,	-6.0172005	,	0
0,46	,	74460	,	-17712	,	-16316	,	-5.808009	,	0
0,46	,	74476	,	-17715	,	-16325	,	-5.7295504	,	0
0,46	,	74492	,	-17718	,	-16327	,	-5.847828	,	0
0,46	,	74524	,	-17721	,	-16329	,	-6.1537056	,	0
0,46	,	74540	,	-17730	,	-16331	,	-6.631076	,	0
0,46	,	74556	,	-17734	,	-16330	,	-7.304352	,	0
0,46	,	74588	,	-17737	,	-16335	,	-8.190781	,	0
0,46	,	74604	,	-17726	,	-16339	,	-9.159344	,	0
0,46	,	74636	,	-17720	,	-16334	,	-9.84898	,	0
0,46	,	74652	,	-17709	,	-16330	,	-9.7854595	,	0
0,46	,	74668	,	-17698	,	-16334	,	-8.583835	,	0
0,46	,	74700	,	-17702	,	-16312	,	-6.124082	,	1
0,46	,	74717	,	-17688	,	-16313	,	-2.6361809	,	3
0,46	,	74732	,	-17687	,	-16314	,	1.459158	,	6
0,46	,	74764	,	-17687	,	-16307	,	5.6945314	,	10
0,46	,	74780	,	-17679	,	-16305	,	9.584375	,	14
0,47	,	74812	,	-17672	,	-16317	,	12.79655	,	17
0,47	,	74828	,	-17670	,	-16312	,	15.232467	,	20
0,47	,	74844	,	-17677	,	-16299	,	16.835875	,	22
0,47	,	74876	,	-17669	,	-16312	,	17.498219	,	23
0,47	,	74892	,	-17664	,	-16313	,	17.246271	,	22
0,47	,	74908	,	-17663	,	-16306	,	16.3284	,	20
0,47	,	74940	,	-17655	,	-16309	,	15.059097	,	17
0,47	,	74956	,	-17649	,	-16296	,	13.744999	,	13
0,47	,	74972	,	-17662	,	-16309	,	12.59181	,	9
0,47	,	75004	,	-17652	,	-16307	,	11.563391	,	6
0,47	,	75020	,	-17658	,	-16297	,	10.516212	,	3
0,47	,	75052	,	-17655	,	-16307	,	9.373336	,	1
0,47	,	75068	,	-17661	,	-16299	,	8.102304	,	0
0,47	,	75084	,	-17658	,	-16296	,	6.69241	,	0
0,47	,	75116	,	-17654	,	-16302	,	5.207937	,	0
0,47	,	75132	,	-17655	,	-16309	,	3.8057382	,	0
0,47	,	75148	,	-17657	,	-16295	,	2.6216273	,	0
0,47	,	75180	,	-17661	,	-16299	,	1.6677015	,	0
0,47	,	75196	,	-17666	,	-16296	,	0.8392961	,	0
0,47	,	75228	,	-17663	,	-16297	,	0.0058573484	,	0
0,47	,	75244	,	-17665	,	-16301	,	-0.8565755	,	0
0,47	,	75260	,	-17665	,	-16307	,	-1.6641259	,	0
0,47	,	75292	,	-17666	,	-16305	,	-2.3279173	,	0
0,47	,	75308	,	-17671	,	-16307	,	-2.82151	,	0
0,47	,	75324	,	-17671	,	-16310	,	-3.1967354	,	0
0,47	,	75356	,	-17667	,	-16298	,	-3.4943376	,	0
0,47	,	75372	,	-17678	,	-16303	,	-3.7079759	,	0
0,47	,	75388	,	-17683	,	-16305	,	-3.9226928	,	0
0,47	,	75420	,	-17679	,	-16305	,	-4.2839603	,	0
0,47	,	75436	,	-17682	,	-16309	,	-4.791566	,	0
0,47	,	75468	,	-17688	,	-16312	,	-5.342751	,	0
0,47	,	75484	,	-17691	,	-16314	,	-5.907997	,	0
0,47	,	75500	,	-17692	,	-16309	,	-6.5066667	,	0
0,47	,	75532	,	-17701	,	-16311	,	-7.1384535	,	0
0,47	,	75548	,	-17703	,	-16318	,	-7.820839	,	0
0,47	,	75564	,	-17700	,	-16317	,	-8.540962	,	0
0,47	,	75596	,	-17685	,	-16321	,	-9.081934	,	0
0,47	,	75612	,	-17678	,	-16291	,	-9.001013	,	0
0,47	,	75644	,	-17659	,	-16302	,	-7.828702	,	0
0,47	,	75660	,	-17656	,	-16304	,	-5.2809544	,	1
0,47	,	75676	,	-17650	,	-16295	,	-1.4311175	,	3
0,47	,	75708	,	-17649	,	-16301	,	3.2486289	,	6
0,47	,	75724	,	-17642	,	-16299	,	8.090483	,	10
0,47	,	75740	,	-17649	,	-16296	,	12.448909	,	14
0,47	,	75772	,	-17646	,	-16289	,	15.776096	,	18
0,47	,	75788	,	-17638	,	-16293	,	17.756002	,	21
0,48	,	75804	,	-17637	,	-16294	,	18.436268	,	22
0,48	,	75836	,	-17642	,	-16306	,	18.05685	,	22
0,48	,	75852	,	-17635	,	-16289	,	16.835793	,	21
0,48	,	75884	,	-17628	,	-16290	,	15.049466	,	19
0,48	,	75900	,	-17624	,	-16289	,	13.106441	,	16
0,48	,	75916	,	-17631	,	-16288	,	11.347621	,	12
0,48	,	75948	,	-17629	,	-16288	,	9.847296	,	8
0,48	,	75964	,	-17628	,	-16285	,	8.5124855	,	4
0,48	,	75980	,	-17624	,	-16292	,	7.2964444	,	1
0,48	,	76012	,	-17634	,	-16283	,	6.1969886	,	0
0,48	,	76028	,	-17622	,	-16286	,	5.1818657	,	0
0,48	,	76060	,	-17626	,	-16287	,	4.2687497	,	0
0,48	,	76076	,	-17625	,	-16272	,	3.5200336	,	0
0,48	,	76092	,	-17636	,	-16293	,	2.8875628	,	0
0,48	,	76124	,	-17635	,	-16291	,	2.1944728	,	0
0,48	,	76140	,	-17635	,	-16293	,	1.3094993	,	0
0,48	,	76156	,	-17633	,	-16294	,	0.28677785	,	0
0,48	,	76188	,	-17636	,	-16297	,	-0.708354	,	0
0,48	,	76204	,	-17639	,	-16293	,	-1.5656254	,	0
0,48	,	76236	,	-17652	,	-16296	,	-2.3355625	,	0
0,48	,	76252	,	-17652	,	-16301	,	-3.2046065	,	0
0,48	,	76268	,	-17649	,	-16295	,	-4.2757854	,	0
0,48	,	76300	,	-17657	,	-16302	,	-5.444517	,	0
0,48	,	76316	,	-17650	,	-16284	,	-6.527835	,	0
0,48	,	76332	,	-17662	,	-16308	,	-7.381081	,	0
0,48	,	76364	,	-17656	,	-16298	,	-7.940648	,	0
0,48	,	76380	,	-17664	,	-16310	,	-8.213107	,	0
0,48	,	76396	,	-17665	,	-16316	,	-8.257518	,	0
0,48	,	76428	,	-17671	,	-16312	,	-8.193144	,	0
0,48	,	76444	,	-17672	,	-16314	,	-8.140986	,	0
0,48	,	76476	,	-17676	,	-16323	,	-8.166991	,	0
0,48	,	76492	,	-17679	,	-16309	,	-8.287067	,	0
0,48	,	76508	,	-17685	,	-16320	,	-8.50625	,	0
0,48	,	76540	,	-17686	,	-16319	,	-8.834011	,	0
0,48	,	76556	,	-17688	,	-16320	,	-9.237962	,	0
0,48	,	76572	,	-17678	,	-16323	,	-9.573458	,	0
0,48	,	76603	,	-17667	,	-16308	,	-9.524049	,	0
0,48	,	76620	,	-17656	,	-16317	,	-8.659777	,	0
0,48	,	76652	,	-17654	,	-16300	,	-6.677474	,	0
0,48	,	76668	,	-17648	,	-16306	,	-3.6162639	,	1
0,48	,	76684	,	-17652	,	-16300	,	0.1422863	,	4
0,48	,	76716	,	-17643	,	-16301	,	4.0462036	,	7
0,48	,	76732	,	-17639	,	-16297	,	7.6243544	,	10
0,48	,	76748	,	-17641	,	-16310	,	10.592639	,	13
0,48	,	76779	,	-17636	,	-16276	,	12.767717	,	15
0,48	,	76795	,	-17627	,	-16286	,	14.095613	,	17
0,49	,	76812	,	-17628	,	-16294	,	14.710051	,	18
0,49	,	76844	,	-17629	,	-16287	,	14.769272	,	18
0,49	,	76859	,	-17624	,	-16282	,	14.345381	,	17
0,49	,	76891	,	-17614	,	-16281	,	13.565808	,	14
0,49	,	76907	,	-17617	,	-16289	,	12.669348	,	11
0,49	,	76924	,	-17624	,	-16283	,	11.784654	,	8
0,49	,	76956	,	-17611	,	-16288	,	10.865874	,	5
0,49	,	76972	,	-17614	,	-16287	,	9.917791	,	3
0,49	,	76987	,	-17614	,	-16292	,	9.007452	,	1
0,49	,	77019	,	-17621	,	-16285	,	8.089348	,	0
0,49	,	77035	,	-17622	,	-16290	,	7.020955	,	0
0,49	,	77068	,	-17622	,	-16290	,	5.71261	,	0
0,49	,	77084	,	-17621	,	-16290	,	4.219878	,	0
0,49	,	77100	,	-17624	,	-16293	,	2.6920338	,	0
0,49	,	77131	,	-17629	,	-16293	,	1.2346659	,	0
0,49	,	77147	,	-17632	,	-16293	,	-0.15539777	,	0
0,49	,	77163	,	-17629	,	-16286	,	-1.4960482	,	0
0,49	,	77195	,	-17629	,	-16291	,	-2.6965232	,	0
0,49	,	77211	,	-17632	,	-16300	,	-3.6130605	,	0
0,49	,	77227	,	-17635	,	-16293	,	-4.204073	,	0
0,49	,	77259	,	-17644	,	-16291	,	-4.586587	,	0
0,49	,	77275	,	-17644	,	-16294	,	-4.9623413	,	0
0,49	,	77307	,	-17655	,	-16301	,	-5.5036497	,	0
0,49	,	77323	,	-17655	,	-16299	,	-6.307604	,	0
0,49	,	77339	,	-17660	,	-16298	,	-7.370292	,	0
0,49	,	77372	,	-17659	,	-16295	,	-8.560078	,	0
0,49	,	77388	,	-17658	,	-16292	,	-9.6468	,	0
0,49	,	77403	,	-17664	,	-16299	,	-10.400053	,	0
0,49	,	77435	,	-17664	,	-16301	,	-10.719301	,	0
0,49	,	77451	,	-17666	,	-16319	,	-10.632944	,	0
0,49	,	77483	,	-17677	,	-16303	,	-10.254951	,	0
0,49	,	77499	,	-17677	,	-16310	,	-9.795909	,	0
0,49	,	77515	,	-17687	,	-16308	,	-9.477285	,	0
0,49	,	77547	,	-17687	,	-16309	,	-9.437397	,	0
0,49	,	77563	,	-17688	,	-16314	,	-9.682506	,	0
0,49	,	77579	,	-17687	,	-16314	,	-10.054874	,	0
0,49	,	77611	,	-17687	,	-16306	,	-10.3146515	,	0
0,49	,	77627	,	-17677	,	-16311	,	-10.221231	,	0
0,49	,	77643	,	-17659	,	-16300	,	-9.461538	,	0
0,49	,	77675	,	-17648	,	-16295	,	-7.627787	,	0
0,49	,	77691	,	-17648	,	-16302	,	-4.4966383	,	1
0,49	,	77723	,	-17652	,	-16298	,	-0.35417843	,	4
0,49	,	77739	,	-17640	,	-16299	,	4.130965	,	8
0,49	,	77755	,	-17633	,	-16299	,	8.375087	,	12
0,49	,	77787	,	-17636	,	-16298	,	12.043593	,	16
0,50	,	77803	,	-17633	,	-16289	,	14.872919	,	19
0,50	,	77819	,	-17632	,	-16281	,	16.649837	,	21
0,50	,	77851	,	-17633	,	-16293	,	17.305618	,	22
0,50	,	77867	,	-17628	,	-16289	,	16.918583	,	22
0,50	,	77899	,	-17636	,	-16289	,	15.670433	,	21
0,50	,	77915	,	-17624	,	-16284	,	13.801462	,	18
0,50	,	77931	,	-17625	,	-16278	,	11.635694	,	14
0,50	,	77963	,	-17621	,	-16290	,	9.53665	,	10
0,50	,	77979	,	-17619	,	-16281	,	7.7665067	,	6
0,50	,	77995	,	-17619	,	-16278	,	6.44154	,	3
0,50	,	78027	,	-17620	,	-16289	,	5.538629	,	1
0,50	,	78043	,	-17623	,	-16287	,	4.919305	,	0
0,50	,	78059	,	-17619	,	-16286	,	4.424453	,	0
0,50	,	78091	,	-17624	,	-16284	,	3.9518332	,	0
0,50	,	78107	,	-17631	,	-16293	,	3.4005208	,	0
0,50	,	78139	,	-17630	,	-16277	,	2.6298833	,	0
0,50	,	78155	,	-17622	,	-16299	,	1.6191686	,	0
0,50	,	78171	,	-17625	,	-16282	,	0.56392837	,	0
0,50	,	78203	,	-17630	,	-16292	,	-0.32943833	,	0
0,50	,	78219	,	-17639	,	-16293	,	-1.0690963	,	0
0,50	,	78235	,	-17643	,	-16293	,	-1.8492606	,	0
0,50	,	78267	,	-17640	,	-16290	,	-2.8239365	,	0
0,50	,	78283	,	-17638	,	-16304	,	-3.9170558	,	0
0,50	,	78315	,	-17642	,	-16295	,	-4.901513	,	0
0,50	,	78331	,	-17643	,	-16300	,	-5.614727	,	0
0,50	,	78347	,	-17651	,	-16297	,	-6.0501366	,	0
0,50	,	78379	,	-17656	,	-16301	,	-6.3431835	,	0
0,50	,	78395	,	-17660	,	-16295	,	-6.6862125	,	0
0,50	,	78411	,	-17662	,	-16305	,	-7.199858	,	0
0,50	,	78443	,	-17667	,	-16297	,	-7.885649	,	0
0,50	,	78459	,	-17672	,	-16316	,	-8.682519	,	0
0,50	,	78491	,	-17672	,	-16308	,	-9.511375	,	0
0,50	,	78507	,	-17688	,	-16320	,	-10.322218	,	0
0,50	,	78523	,	-17684	,	-16311	,	-11.144765	,	0
0,50	,	78555	,	-17684	,	-16311	,	-11.954567	,	0
0,50	,	78571	,	-17690	,	-16314	,	-12.588299	,	0
0,50	,	78587	,	-17685	,	-16316	,	-12.8859215	,	0
0,50	,	78619	,	-17683	,	-16314	,	-12.721445	,	0
0,50	,	78635	,	-17662	,	-16299	,	-11.886493	,	0
0,50	,	78651	,	-17652	,	-16302	,	-10.049526	,	0
0,50	,	78683	,	-17644	,	-16293	,	-6.9432545	,	1
0,50	,	78699	,	-17633	,	-16295	,	-2.6073737	,	4
0,50	,	78731	,	-17638	,	-16294	,	2.5671873	,	8
0,50	,	78747	,	-17635	,	-16290	,	7.9017925	,	13
0,50	,	78763	,	-17625	,	-16295	,	12.675781	,	18
0,50	,	78795	,	-17630	,	-16277	,	16.41328	,	22
0,51	,	78811	,	-17628	,	-16294	,	18.85509	,	25
0,51	,	78827	,	-17628	,	-16290	,	19.87762	,	27
0,51	,	78859	,	-17629	,	-16296	,	19.529793	,	28
0,51	,	78875	,	-17623	,	-16286	,	18.03767	,	27
0,51	,	78907	,	-17626	,	-16292	,	15.769723	,	24
0,51	,	78923	,	-17616	,	-16290	,	13.153289	,	20
0,51	,	78939	,	-17627	,	-16284	,	10.560016	,	15
0,51	,	78970	,	-17620	,	-16281	,	8.205915	,	10
0,51	,	78987	,	-17627	,	-16276	,	6.157505	,	6
0,51	,	79003	,	-17618	,	-16293	,	4.4351873	,	3
0,51	,	79035	,	-17630	,	-16292	,	3.0407035	,	1
0,51	,	79051	,	-17620	,	-16291	,	1.9259834	,	0
0,51	,	79067	,	-17623	,	-16291	,	1.0558615	,	0
0,51	,	79099	,	-17624	,	-16283	,	0.44055808	,	0
0,51	,	79114	,	-17622	,	-16282	,	0.06272268	,	0
0,51	,	79147	,	-17625	,	-16296	,	-0.12870398	,	0
0,51	,	79163	,	-17631	,	-16288	,	-0.2270496	,	0
0,51	,	79179	,	-17640	,	-16296	,	-0.4322556	,	0
0,51	,	79211	,	-17639	,	-16292	,	-0.97760046	,	0
0,51	,	79227	,	-17637	,	-16290	,	-1.9142122	,	0
0,51	,	79242	,	-17634	,	-16298	,	-3.0313368	,	0
0,51	,	79274	,	-17647	,	-16290	,	-4.069699	,	0
0,51	,	79290	,	-17637	,	-16304	,	-4.920214	,	0
0,51	,	79322	,	-17635	,	-16304	,	-5.5045295	,	0
0,51	,	79339	,	-17650	,	-16296	,	-5.7411175	,	0
0,51	,	79355	,	-17650	,	-16290	,	-5.754568	,	0
0,51	,	79387	,	-17654	,	-16295	,	-5.7954254	,	0
0,51	,	79403	,	-17659	,	-16303	,	-6.0132275	,	0
0,51	,	79419	,	-17661	,	-16308	,	-6.4519415	,	0
0,51	,	79450	,	-17662	,	-16306	,	-7.070878	,	0
0,51	,	79466	,	-17673	,	-16306	,	-7.7857876	,	0
0,51	,	79482	,	-17673	,	-16305	,	-8.564955	,	0
0,51	,	79515	,	-17684	,	-16320	,	-9.424038	,	0
0,51	,	79531	,	-17678	,	-16321	,	-10.347025	,	0
0,51	,	79563	,	-17681	,	-16311	,	-11.203427	,	0
0,51	,	79578	,	-17686	,	-16310	,	-11.802292	,	0
0,51	,	79595	,	-17687	,	-16321	,	-12.053547	,	0
0,51	,	79626	,	-17667	,	-16307	,	-11.867304	,	0
0,51	,	79642	,	-17661	,	-16310	,	-10.948984	,	0
0,51	,	79659	,	-17660	,	-16300	,	-9.003351	,	0
0,51	,	79691	,	-17654	,	-16306	,	-6.0646033	,	1
0,51	,	79707	,	-17640	,	-16296	,	-2.400887	,	3
0,51	,	79738	,	-17639	,	-16296	,	1.7159638	,	6
0,51	,	79754	,	-17639	,	-16298	,	5.9490547	,	10
0,51	,	79770	,	-17628	,	-16309	,	9.8688135	,	14
0,52	,	79802	,	-17630	,	-16301	,	13.138183	,	17
0,52	,	79818	,	-17634	,	-16297	,	15.520382	,	20
0,52	,	79834	,	-17632	,	-16294	,	16.797771	,	22
0,52	,	79867	,	-17622	,	-16290	,	16.933178	,	23
0,52	,	79882	,	-17628	,	-16294	,	16.156933	,	22
0,52	,	79898	,	-17621	,	-16302	,	14.775677	,	20
0,52	,	79930	,	-17621	,	-16291	,	13.061319	,	17
0,52	,	79946	,	-17619	,	-16296	,	11.261267	,	13
0,52	,	79978	,	-17618	,	-16286	,	9.556325	,	9
0,52	,	79994	,	-17615	,	-16286	,	8.054912	,	6
0,52	,	80010	,	-17618	,	-16297	,	6.8041787	,	3
0,52	,	80042	,	-17612	,	-16283	,	5.7953615	,	1
0,52	,	80058	,	-17616	,	-16280	,	5.009398	,	0
0,52	,	80074	,	-17613	,	-16290	,	4.4126697	,	0
0,52	,	80106	,	-17625	,	-16286	,	3.8920083	,	0
0,52	,	80122	,	-17623	,	-16288	,	3.2526958	,	0
0,52	,	80154	,	-17633	,	-16296	,	2.3155205	,	0
0,52	,	80170	,	-17626	,	-16295	,	1.0238457	,	0
0,52	,	80187	,	-17626	,	-16291	,	-0.47848773	,	0
0,52	,	80218	,	-17631	,	-16293	,	-1.9246691	,	0
0,52	,	80234	,	-17631	,	-16302	,	-3.1397152	,	0
0,52	,	80250	,	-17638	,	-16293	,	-4.09926	,	0
0,52	,	80282	,	-17637	,	-16293	,	-4.8491716	,	0
0,52	,	80298	,	-17643	,	-16302	,	-5.4489093	,	0
0,52	,	80314	,	-17648	,	-16300	,	-5.978489	,	0
0,52	,	80346	,	-17644	,	-16300	,	-6.510401	,	0
0,52	,	80362	,	-17654	,	-16300	,	-7.039358	,	0
0,52	,	80394	,	-17648	,	-16297	,	-7.5192184	,	0
0,52	,	80410	,	-17656	,	-16305	,	-7.899884	,	0
0,52	,	80426	,	-17667	,	-16301	,	-8.200004	,	0
0,52	,	80458	,	-17654	,	-16304	,	-8.51152	,	0
0,52	,	80474	,	-17660	,	-16309	,	-8.7782	,	0
0,52	,	80490	,	-17668	,	-16296	,	-8.857755	,	0
0,52	,	80522	,	-17667	,	-16312	,	-8.77545	,	0
0,52	,	80538	,	-17669	,	-16317	,	-8.628009	,	0
0,52	,	80570	,	-17671	,	-16311	,	-8.440169	,	0
0,52	,	80586	,	-17676	,	-16310	,	-8.223534	,	0
0,52	,	80602	,	-17660	,	-16307	,	-7.9391565	,	0
0,52	,	80634	,	-17658	,	-16306	,	-7.3678117	,	0
0,52	,	80650	,	-17655	,	-16299	,	-6.2467585	,	0
0,52	,	80666	,	-17641	,	-16300	,	-4.4649134	,	1
0,52	,	80698	,	-17636	,	-16289	,	-1.9950411	,	2
0,52	,	80714	,	-17643	,	-16296	,	1.0526748	,	4
0,52	,	80746	,	-17635	,	-16299	,	4.292895	,	7
0,52	,	80762	,	-17626	,	-16289	,	7.306446	,	10
0,52	,	80778	,	-17623	,	-16285	,	9.908659	,	13
0,53	,	80810	,	-17624	,	-16288	,	12.031193	,	15
0,53	,	80826	,	-17614	,	-16282	,	13.591027	,	17
0,53	,	80842	,	-17621	,	-16295	,	14.538507	,	18
0,53	,	80874	,	-17627	,	-16297	,	14.795619	,	17
0,53	,	80890	,	-17629	,	-16294	,	14.211865	,	16
0,53	,	80906	,	-17618	,	-16289	,	12.785576	,	14
0,53	,	80938	,	-17613	,	-16300	,	10.845793	,	11
0,53	,	80954	,	-17616	,	-16279	,	8.865149	,	8
0,53	,	80986	,	-17618	,	-16290	,	7.1288047	,	5
0,53	,	81002	,	-17611	,	-16285	,	5.701961	,	3
0,53	,	81018	,	-17611	,	-16295	,	4.618099	,	1
0,53	,	81050	,	-17616	,	-16287	,	3.8862805	,	0
0,53	,	81066	,	-17617	,	-16294	,	3.3895192	,	0
0,53	,	81082	,	-17620	,	-16289	,	2.9397497	,	0
0,53	,	81114	,	-17623	,	-16291	,	2.3810244	,	0
0,53	,	81130	,	-17622	,	-16290	,	1.633578	,	0
0,53	,	81162	,	-17623	,	-16294	,	0.72236717	,	0
0,53	,	81178	,	-17625	,	-16294	,	-0.25778425	,	0
0,53	,	81194	,	-17634	,	-16288	,	-1.2511015	,	0
0,53	,	81226	,	-17627	,	-16294	,	-2.2577467	,	0
0,53	,	81242	,	-17637	,	-16301	,	-3.2422411	,	0
0,53	,	81258	,	-17636	,	-16302	,	-4.154651	,	0
0,53	,	81290	,	-17640	,	-16312	,	-4.9830112	,	0
0,53	,	81306	,	-17649	,	-16303	,	-5.753585	,	0
0,53	,	81322	,	-17637	,	-16297	,	-6.492502	,	0
0,53	,	81354	,	-17652	,	-16298	,	-7.1377263	,	0
0,53	,	81370	,	-17647	,	-16309	,	-7.6143694	,	0
0,53	,	81402	,	-17663	,	-16318	,	-7.9663277	,	0
0,53	,	81418	,	-17670	,	-16315	,	-8.381053	,	0
0,53	,	81434	,	-17657	,	-16315	,	-9.013657	,	0
0,53	,	81466	,	-17668	,	-16319	,	-9.736078	,	0
0,53	,	81482	,	-17675	,	-16320	,	-10.340008	,	0
0,53	,	81498	,	-17676	,	-16321	,	-10.816097	,	0
0,53	,	81530	,	-17677	,	-16323	,	-11.203316	,	0
0,53	,	81546	,	-17689	,	-16322	,	-11.497814	,	0
0,53	,	81577	,	-17673	,	-16318	,	-11.683405	,	0
0,53	,	81594	,	-17669	,	-16316	,	-11.569481	,	0
0,53	,	81610	,	-17661	,	-16316	,	-10.796282	,	0
0,53	,	81642	,	-17655	,	-16330	,	-9.104414	,	0
0,53	,	81658	,	-17654	,	-16302	,	-6.487841	,	1
0,53	,	81674	,	-17652	,	-16307	,	-3.2048974	,	3
0,53	,	81706	,	-17650	,	-16306	,	0.3119073	,	6
0,53	,	81721	,	-17649	,	-16299	,	3.622148	,	9
0,53	,	81738	,	-17657	,	-16310	,	6.349608	,	12
0,53	,	81770	,	-17642	,	-16306	,	8.238878	,	14
0,53	,	81786	,	-17644	,	-16298	,	9.292299	,	15
0,54	,	81818	,	-17650	,	-16306	,	9.668656	,	16
0,54	,	81834	,	-17646	,	-16309	,	9.450518	,	16
0,54	,	81850	,	-17646	,	-16302	,	8.705965	,	15
0,54	,	81882	,	-17647	,	-16312	,	7.584934	,	13
0,54	,	81898	,	-17640	,	-16298	,	6.2779803	,	10
0,54	,	81914	,	-17639	,	-16308	,	5.0194073	,	7
0,54	,	81946	,	-17641	,	-16312	,	4.015048	,	4
0,54	,	81961	,	-17646	,	-16309	,	3.2917507	,	2
0,54	,	81994	,	-17642	,	-16304	,	2.7246263	,	1
0,54	,	82010	,	-17647	,	-16304	,	2.1958976	,	0
0,54	,	82026	,	-17646	,	-16299	,	1.6491824	,	0
0,54	,	82057	,	-17648	,	-16301	,	1.0630932	,	0
0,54	,	82073	,	-17647	,	-16303	,	0.44738054	,	0
0,54	,	82089	,	-17648	,	-16319	,	-0.15505373	,	0
0,54	,	82121	,	-17648	,	-16303	,	-0.684619	,	0
0,54	,	82137	,	-17661	,	-16309	,	-1.1544166	,	0
0,54	,	82154	,	-17664	,	-16308	,	-1.7302994	,	0
0,54	,	82185	,	-17662	,	-16312	,	-2.5774362	,	0
0,54	,	82201	,	-17668	,	-16314	,	-3.6688046	,	0
0,54	,	82234	,	-17671	,	-16311	,	-4.872867	,	0
0,54	,	82250	,	-17672	,	-16312	,	-6.080762	,	0
0,54	,	82266	,	-17669	,	-16321	,	-7.156719	,	0
0,54	,	82297	,	-17671	,	-16314	,	-7.9152455	,	0
0,54	,	82313	,	-17674	,	-16312	,	-8.235851	,	0
0,54	,	82329	,	-17679	,	-16341	,	-8.162143	,	0
0,54	,	82361	,	-17687	,	-16323	,	-7.8934975	,	0
0,54	,	82378	,	-17680	,	-16328	,	-7.64932	,	0
0,54	,	82409	,	-17691	,	-16325	,	-7.518627	,	0
0,54	,	82425	,	-17698	,	-16334	,	-7.551722	,	0
0,54	,	82441	,	-17698	,	-16331	,	-7.850487	,	0
0,54	,	82474	,	-17704	,	-16340	,	-8.43241	,	0
0,54	,	82489	,	-17711	,	-16329	,	-9.218441	,	0
0,54	,	82505	,	-17711	,	-16327	,	-10.12841	,	0
0,54	,	82537	,	-17714	,	-16345	,	-11.048864	,	0
0,54	,	82553	,	-17709	,	-16350	,	-11.789503	,	0
0,54	,	82569	,	-17710	,	-16337	,	-12.112769	,	0
0,54	,	82601	,	-17701	,	-16331	,	-11.80324	,	0
0,54	,	82618	,	-17689	,	-16326	,	-10.680225	,	0
0,54	,	82649	,	-17689	,	-16328	,	-8.614974	,	1
0,54	,	82665	,	-17693	,	-16335	,	-5.719163	,	3
0,54	,	82681	,	-17687	,	-16329	,	-2.4091978	,	5
0,54	,	82713	,	-17693	,	-16329	,	0.81420946	,	8
0,54	,	82729	,	-17686	,	-16322	,	3.552483	,	11
0,54	,	82745	,	-17673	,	-16325	,	5.660037	,	13
0,54	,	82777	,	-17678	,	-16332	,	7.268462	,	15
0,54	,	82793	,	-17683	,	-16328	,	8.468205	,	16
0,55	,	82825	,	-17678	,	-16307	,	9.149077	,	17
0,55	,	82841	,	-17674	,	-16327	,	9.255303	,	16
0,55	,	82857	,	-17689	,	-16327	,	8.84998	,	14
0,55	,	82889	,	-17685	,	-16322	,	7.9276385	,	12
0,55	,	82905	,	-17685	,	-16319	,	6.4996314	,	9
0,55	,	82921	,	-17687	,	-16320	,	4.744661	,	6
0,55	,	82953	,	-17674	,	-16332	,	2.9537213	,	4
0,55	,	82969	,	-17687	,	-16316	,	1.4277234	,	2
0,55	,	83001	,	-17689	,	-16325	,	0.27962923	,	1
0,55	,	83017	,	-17673	,	-16314	,	-0.5374321	,	0
0,55	,	83033	,	-17683	,	-16330	,	-0.97481376	,	0
0,55	,	83065	,	-17682	,	-16328	,	-0.9995323	,	0
0,55	,	83081	,	-17688	,	-16338	,	-0.778864	,	0
0,55	,	83097	,	-17682	,	-16322	,	-0.5392487	,	0
0,55	,	83129	,	-17687	,	-16332	,	-0.3993475	,	0
0,55	,	83145	,	-17697	,	-16322	,	-0.43117738	,	0
0,55	,	83161	,	-17697	,	-16331	,	-0.76940846	,	0
0,55	,	83193	,	-17694	,	-16333	,	-1.4757403	,	0
0,55	,	83209	,	-17699	,	-16332	,	-2.4195945	,	0
0,55	,	83241	,	-17697	,	-16334	,	-3.4084527	,	0
0,55	,	83257	,	-17694	,	-16348	,	-4.2680726	,	0
0,55	,	83273	,	-17707	,	-16326	,	-4.8841796	,	0
0,55	,	83305	,	-17708	,	-16340	,	-5.318828	,	0
0,55	,	83321	,	-17713	,	-16335	,	-5.7411594	,	0
0,55	,	83337	,	-17719	,	-16342	,	-6.2742543	,	0
0,55	,	83369	,	-17719	,	-16334	,	-6.9686337	,	0
0,55	,	83385	,	-17724	,	-16346	,	-7.783107	,	0
0,55	,	83417	,	-17722	,	-16352	,	-8.593293	,	0
0,55	,	83433	,	-17720	,	-16345	,	-9.224831	,	0
0,55	,	83449	,	-17719	,	-16346	,	-9.475559	,	0
0,55	,	83481	,	-17721	,	-16349	,	-9.2097025	,	0
0,55	,	83497	,	-17736	,	-16362	,	-8.514866	,	0
0,55	,	83513	,	-17737	,	-16351	,	-7.7357826	,	0
0,55	,	83545	,	-17744	,	-16365	,	-7.2456784	,	0
0,55	,	83561	,	-17737	,	-16358	,	-7.1859837	,	0
0,55	,	83577	,	-17727	,	-16352	,	-7.3612394	,	0
0,55	,	83609	,	-17729	,	-16345	,	-7.3547144	,	0
0,55	,	83625	,	-17714	,	-16349	,	-6.7936573	,	0
0,55	,	83657	,	-17711	,	-16348	,	-5.4433556	,	0
0,55	,	83673	,	-17711	,	-16351	,	-3.2590265	,	1
0,55	,	83689	,	-17716	,	-16350	,	-0.519495	,	3
0,55	,	83721	,	-17716	,	-16353	,	2.249715	,	5
0,55	,	83737	,	-17712	,	-16340	,	4.563223	,	7
0,55	,	83753	,	-17702	,	-16349	,	6.2308273	,	9
0,55	,	83785	,	-17709	,	-16347	,	7.330481	,	10
0,56	,	83801	,	-17707	,	-16348	,	7.940346	,	11
0,56	,	83833	,	-17718	,	-16341	,	8.004712	,	11
0,56	,	83849	,	-17716	,	-16349	,	7.421543	,	11
0,56	,	83865	,	-17716	,	-16340	,	6.205701	,	10
0,56	,	83897	,	-17713	,	-16348	,	4.5717554	,	8
0,56	,	83913	,	-17703	,	-16353	,	2.8820229	,	6
0,56	,	83929	,	-17703	,	-16351	,	1.5424385	,	4
0,56	,	83961	,	-17708	,	-16359	,	0.7975087	,	2
0,56	,	83977	,	-17712	,	-16349	,	0.5686867	,	1
0,56	,	83993	,	-17721	,	-16348	,	0.5390815	,	0
0,56	,	84025	,	-17716	,	-16349	,	0.37301934	,	0
0,56	,	84041	,	-17717	,	-16350	,	-0.07019597	,	0
0,56	,	84073	,	-17720	,	-16347	,	-0.7232672	,	0
0,56	,	84089	,	-17727	,	-16358	,	-1.5062462	,	0
0,56	,	84105	,	-17722	,	-16347	,	-2.3902307	,	0
0,56	,	84137	,	-17725	,	-16355	,	-3.286193	,	0
0,56	,	84153	,	-17739	,	-16354	,	-4.1168365	,	0
0,56	,	84169	,	-17731	,	-16349	,	-4.939869	,	0
0,56	,	84201	,	-17733	,	-16356	,	-5.762011	,	0
0,56	,	84217	,	-17735	,	-16346	,	-6.4366293	,	0
0,56	,	84249	,	-17741	,	-16363	,	-6.867103	,	0
0,56	,	84265	,	-17746	,	-16360	,	-7.1169214	,	0
0,56	,	84281	,	-17734	,	-16363	,	-7.2622795	,	0
0,56	,	84312	,	-17749	,	-16355	,	-7.271758	,	0
0,56	,	84329	,	-17746	,	-16351	,	-7.145069	,	0
0,56	,	84345	,	-17746	,	-16366	,	-6.949029	,	0
0,56	,	84376	,	-17758	,	-16359	,	-6.7309737	,	0
0,56	,	84392	,	-17758	,	-16357	,	-6.601224	,	0
0,56	,	84408	,	-17756	,	-16369	,	-6.6669626	,	0
0,56	,	84441	,	-17753	,	-16364	,	-6.8407574	,	0
0,56	,	84457	,	-17763	,	-16357	,	-6.941387	,	0
0,56	,	84489	,	-17760	,	-16368	,	-6.9120474	,	0
0,56	,	84505	,	-17769	,	-16376	,	-6.8222713	,	0
0,56	,	84521	,	-17767	,	-16374	,	-6.7667236	,	0
0,56	,	84553	,	-17756	,	-16367	,	-6.7278786	,	0
0,56	,	84569	,	-17756	,	-16365	,	-6.486595	,	0
0,56	,	84585	,	-17759	,	-16378	,	-5.8332977	,	0
0,56	,	84617	,	-17748	,	-16372	,	-4.7443123	,	0
0,56	,	84632	,	-17739	,	-16367	,	-3.213945	,	1
0,56	,	84664	,	-17751	,	-16374	,	-1.244421	,	2
0,56	,	84680	,	-17744	,	-16364	,	0.93353987	,	3
0,56	,	84696	,	-17737	,	-16367	,	2.996569	,	5
0,56	,	84729	,	-17744	,	-16363	,	4.768048	,	7
0,56	,	84745	,	-17741	,	-16370	,	6.1173873	,	8
0,56	,	84761	,	-17745	,	-16368	,	6.898626	,	9
0,56	,	84792	,	-17751	,	-16369	,	7.0154943	,	9
0,57	,	84808	,	-17752	,	-16372	,	6.42389	,	9
0,57	,	84824	,	-17756	,	-16364	,	5.1625075	,	8
0,57	,	84856	,	-17741	,	-16375	,	3.4470925	,	7
0,57	,	84872	,	-17745	,	-16373	,	1.6970816	,	6
0,57	,	84904	,	-17746	,	-16373	,	0.300632	,	4
0,57	,	84920	,	-17742	,	-16375	,	-0.5990287	,	2
0,57	,	84937	,	-17758	,	-16372	,	-1.0719612	,	1
0,57	,	84968	,	-17760	,	-16387	,	-1.3814998	,	0
0,57	,	84984	,	-17758	,	-16372	,	-1.825645	,	0
0,57	,	85000	,	-17761	,	-16383	,	-2.4843166	,	0
0,57	,	85032	,	-17758	,	-16385	,	-3.2404544	,	0
0,57	,	85048	,	-17759	,	-16378	,	-3.9165416	,	0
0,57	,	85080	,	-17766	,	-16394	,	-4.394581	,	0
0,57	,	85097	,	-17769	,	-16389	,	-4.7177367	,	0
0,57	,	85112	,	-17781	,	-16406	,	-5.069954	,	0
0,57	,	85144	,	-17780	,	-16380	,	-5.656952	,	0
0,57	,	85160	,	-17782	,	-16396	,	-6.539057	,	0
0,57	,	85176	,	-17784	,	-16393	,	-7.58182	,	0
0,57	,	85208	,	-17781	,	-16396	,	-8.562704	,	0
0,57	,	85224	,	-17782	,	-16391	,	-9.24647	,	0
0,57	,	85240	,	-17783	,	-16391	,	-9.459916	,	0
0,57	,	85272	,	-17785	,	-16392	,	-9.17457	,	0
0,57	,	85288	,	-17785	,	-16396	,	-8.487326	,	0
0,57	,	85320	,	-17789	,	-16391	,	-7.556494	,	0
0,57	,	85336	,	-17794	,	-16396	,	-6.583278	,	0
0,57	,	85352	,	-17795	,	-16412	,	-5.777921	,	0
0,57	,	85384	,	-17796	,	-16393	,	-5.2631364	,	0
0,57	,	85400	,	-17803	,	-16409	,	-5.059091	,	0
0,57	,	85416	,	-17805	,	-16405	,	-5.164987	,	0
0,57	,	85448	,	-17809	,	-16408	,	-5.563475	,	0
0,57	,	85464	,	-17804	,	-16397	,	-6.1498632	,	0
0,57	,	85496	,	-17806	,	-16393	,	-6.714083	,	0
0,57	,	85512	,	-17794	,	-16392	,	-6.9874134	,	0
0,57	,	85528	,	-17789	,	-16387	,	-6.680743	,	0
0,57	,	85560	,	-17783	,	-16392	,	-5.565052	,	0
0,57	,	85576	,	-17777	,	-16379	,	-3.5873713	,	1
0,57	,	85592	,	-17774	,	-16390	,	-0.8913796	,	2
0,57	,	85624	,	-17780	,	-16383	,	2.1853518	,	4
0,57	,	85640	,	-17767	,	-16384	,	5.1900134	,	7
0,57	,	85656	,	-17764	,	-16384	,	7.8092637	,	10
0,57	,	85688	,	-17765	,	-16372	,	9.932483	,	12
0,57	,	85704	,	-17765	,	-16384	,	11.464472	,	14
0,57	,	85736	,	-17773	,	-16389	,	12.256073	,	15
0,57	,	85752	,	-17770	,	-16385	,	12.173874	,	15
0,57	,	85768	,	-17764	,	-16378	,	11.24938	,	14
0,58	,	85800	,	-17762	,	-16378	,	9.769756	,	13
0,58	,	85816	,	-17760	,	-16388	,	8.12594	,	11
0,58	,	85832	,	-17758	,	-16367	,	6.621864	,	8
0,58	,	85864	,	-17759	,	-16380	,	5.417431	,	5
0,58	,	85880	,	-17754	,	-16378	,	4.5555964	,	3
0,58	,	85912	,	-17754	,	-16379	,	4.0321894	,	1
0,58	,	85928	,	-17757	,	-16379	,	3.7943625	,	0
0,58	,	85944	,	-17755	,	-16385	,	3.7036436	,	0
0,58	,	85976	,	-17764	,	-16379	,	3.5764236	,	0
0,58	,	85992	,	-17769	,	-16379	,	3.199631	,	0
0,58	,	86024	,	-17763	,	-16376	,	2.4139752	,	0
0,58	,	86040	,	-17767	,	-16384	,	1.2765925	,	0
0,58	,	86056	,	-17770	,	-16383	,	-0.017358422	,	0
0,58	,	86088	,	-17769	,	-16378	,	-1.3130006	,	0
0,58	,	86104	,	-17768	,	-16379	,	-2.478766	,	0
0,58	,	86120	,	-17772	,	-16381	,	-3.3846457	,	0
0,58	,	86152	,	-17765	,	-16386	,	-3.9484644	,	0
0,58	,	86168	,	-17777	,	-16388	,	-4.1627536	,	0
0,58	,	86184	,	-17778	,	-16377	,	-4.1551585	,	0
0,58	,	86216	,	-17770	,	-16395	,	-4.0919266	,	0
0,58	,	86232	,	-17777	,	-16385	,	-3.9972405	,	0
0,58	,	86264	,	-17780	,	-16393	,	-3.8582911	,	0
0,58	,	86280	,	-17785	,	-16387	,	-3.7679362	,	0
0,58	,	86296	,	-17787	,	-16381	,	-3.850339	,	0
0,58	,	86328	,	-17790	,	-16382	,	-4.1675816	,	0
0,58	,	86344	,	-17794	,	-16392	,	-4.713564	,	0
0,58	,	86360	,	-17797	,	-16388	,	-5.4472632	,	0
0,58	,	86392	,	-17790	,	-16393	,	-6.2588606	,	0
0,58	,	86408	,	-17806	,	-16401	,	-6.99065	,	0
0,58	,	86440	,	-17805	,	-16402	,	-7.612351	,	0
0,58	,	86456	,	-17796	,	-16387	,	-8.148197	,	0
0,58	,	86472	,	-17783	,	-16382	,	-8.375946	,	0
0,58	,	86504	,	-17777	,	-16388	,	-7.8615856	,	0
0,58	,	86519	,	-17774	,	-16366	,	-6.306943	,	0
0,58	,	86536	,	-17764	,	-16381	,	-3.732518	,	1
0,58	,	86568	,	-17760	,	-16378	,	-0.37710428	,	3
0,58	,	86584	,	-17760	,	-16381	,	3.3933308	,	6
0,58	,	86600	,	-17763	,	-16373	,	7.0796413	,	9
0,58	,	86632	,	-17757	,	-16380	,	10.1659565	,	12
0,58	,	86648	,	-17760	,	-16372	,	12.320133	,	15
0,58	,	86680	,	-17754	,	-16367	,	13.444041	,	17
0,58	,	86696	,	-17762	,	-16369	,	13.586872	,	18
0,58	,	86712	,	-17755	,	-16379	,	12.871523	,	18
0,58	,	86744	,	-17759	,	-16373	,	11.4896755	,	17
0,58	,	86760	,	-17751	,	-16368	,	9.713209	,	15
0,58	,	86776	,	-17752	,	-16365	,	7.860559	,	12
0,59	,	86808	,	-17755	,	-16358	,	6.178978	,	9
0,59	,	86823	,	-17747	,	-16366	,	4.7797275	,	6
0,59	,	86855	,	-17745	,	-16365	,	3.7504082	,	3
0,59	,	86871	,	-17747	,	-16369	,	3.1661956	,	1
0,59	,	86887	,	-17753	,	-16363	,	2.942386	,	0
0,59	,	86920	,	-17750	,	-16366	,	2.849472	,	0
0,59	,	86936	,	-17742	,	-16369	,	2.73622	,	0
0,59	,	86951	,	-17759	,	-16380	,	2.5770745	,	0
0,59	,	86983	,	-17745	,	-16351	,	2.313086	,	0
0,59	,	87000	,	-17751	,	-16370	,	1.9217727	,	0
0,59	,	87016	,	-17747	,	-16373	,	1.4966204	,	0
0,59	,	87048	,	-17750	,	-16363	,	1.1136621	,	0
0,59	,	87064	,	-17763	,	-16366	,	0.7242531	,	0
0,59	,	87096	,	-17761	,	-16364	,	0.15027314	,	0
0,59	,	87112	,	-17754	,	-16370	,	-0.6984205	,	0
0,59	,	87127	,	-17761	,	-16361	,	-1.6684879	,	0
0,59	,	87159	,	-17764	,	-16362	,	-2.5815856	,	0
0,59	,	87175	,	-17761	,	-16373	,	-3.3769636	,	0
0,59	,	87191	,	-17763	,	-16378	,	-3.9983616	,	0
0,59	,	87223	,	-17767	,	-16360	,	-4.393971	,	0
0,59	,	87239	,	-17763	,	-16366	,	-4.5790834	,	0
0,59	,	87272	,	-17775	,	-16370	,	-4.616057	,	0
0,59	,	87287	,	-17770	,	-16374	,	-4.6163836	,	0
0,59	,	87304	,	-17779	,	-16368	,	-4.6913667	,	0
0,59	,	87336	,	-17775	,	-16377	,	-4.886527	,	0
0,59	,	87352	,	-17778	,	-16371	,	-5.1700106	,	0
0,59	,	87368	,	-17771	,	-16373	,	-5.4192114	,	0
0,59	,	87400	,	-17759	,	-16369	,	-5.3964205	,	0
0,59	,	87415	,	-17753	,	-16377	,	-4.7684984	,	0
0,59	,	87431	,	-17749	,	-16365	,	-3.2928426	,	0
0,59	,	87463	,	-17752	,	-16374	,	-1.0311778	,	1
0,59	,	87480	,	-17743	,	-16373	,	1.6840081	,	3
0,59	,	87511	,	-17736	,	-16360	,	4.512209	,	5
0,59	,	87527	,	-17733	,	-16360	,	7.256328	,	7
0,59	,	87543	,	-17729	,	-16358	,	9.76854	,	9
0,59	,	87576	,	-17733	,	-16361	,	11.859045	,	11
0,59	,	87591	,	-17733	,	-16364	,	13.29711	,	13
0,59	,	87607	,	-17742	,	-16360	,	13.846605	,	14
0,59	,	87639	,	-17734	,	-16356	,	13.369392	,	14
0,59	,	87655	,	-17727	,	-16372	,	12.008828	,	13
0,59	,	87687	,	-17728	,	-16343	,	10.1902275	,	11
0,59	,	87703	,	-17733	,	-16357	,	8.31221	,	9
0,59	,	87719	,	-17732	,	-16358	,	6.543622	,	7
0,59	,	87751	,	-17725	,	-16351	,	4.953922	,	5
0,59	,	87767	,	-17732	,	-16355	,	3.6415095	,	3
0,59	,	87783	,	-17729	,	-16343	,	2.6476703	,	1
1,0	,	87815	,	-17724	,	-16354	,	1.9438965	,	0
1,0	,	87831	,	-17725	,	-16349	,	1.5386124	,	0
1,0	,	87847	,	-17724	,	-16349	,	1.4355758	,	0
1,0	,	87879	,	-17730	,	-16351	,	1.5382969	,	0
1,0	,	87895	,	-17731	,	-16359	,	1.6604085	,	0
1,0	,	87927	,	-17738	,	-16346	,	1.5919005	,	0
1,0	,	87943	,	-17736	,	-16353	,	1.1807781	,	0
1,0	,	87959	,	-17746	,	-16361	,	0.37572384	,	0
1,0	,	87991	,	-17737	,	-16356	,	-0.76931566	,	0
1,0	,	88007	,	-17743	,	-16349	,	-2.0719	,	0
1,0	,	88023	,	-17747	,	-16350	,	-3.3214045	,	0
1,0	,	88055	,	-17748	,	-16358	,	-4.4236774	,	0
1,0	,	88071	,	-17746	,	-16354	,	-5.3288717	,	0
1,0	,	88103	,	-17748	,	-16355	,	-5.943361	,	0
1,0	,	88119	,	-17746	,	-16364	,	-6.1854334	,	0
1,0	,	88135	,	-17747	,	-16362	,	-6.0317345	,	0
1,0	,	88167	,	-17757	,	-16368	,	-5.572686	,	0
1,0	,	88183	,	-17759	,	-16356	,	-5.0564013	,	0
1,0	,	88199	,	-17760	,	-16366	,	-4.7386036	,	0
1,0	,	88231	,	-17757	,	-16373	,	-4.6821566	,	0
1,0	,	88247	,	-17767	,	-16372	,	-4.8050494	,	0
1,0	,	88263	,	-17773	,	-16370	,	-5.0938897	,	0
1,0	,	88295	,	-17769	,	-16377	,	-5.6059256	,	0
1,0	,	88311	,	-17768	,	-16376	,	-6.256089	,	0
1,0	,	88343	,	-17765	,	-16367	,	-6.7976465	,	0
1,0	,	88359	,	-17760	,	-16372	,	-6.975343	,	0
1,0	,	88375	,	-17754	,	-16353	,	-6.5852594	,	0
1,0	,	88407	,	-17742	,	-16361	,	-5.462737	,	0
1,0	,	88423	,	-17733	,	-16351	,	-3.4762073	,	1
1,0	,	88439	,	-17732	,	-16346	,	-0.6189394	,	2
1,0	,	88471	,	-17730	,	-16348	,	2.8469353	,	4
1,0	,	88487	,	-17736	,	-16356	,	6.399786	,	7
1,0	,	88519	,	-17716	,	-16351	,	9.521152	,	10
1,0	,	88535	,	-17723	,	-16347	,	11.974477	,	13
1,0	,	88551	,	-17727	,	-16345	,	13.670838	,	15
1,0	,	88583	,	-17723	,	-16353	,	14.460136	,	16
1,0	,	88599	,	-17717	,	-16350	,	14.314639	,	16
1,0	,	88615	,	-17722	,	-16344	,	13.42824	,	15
1,0	,	88647	,	-17720	,	-16348	,	12.025732	,	14
1,0	,	88663	,	-17727	,	-16354	,	10.258485	,	12
1,0	,	88679	,	-17716	,	-16341	,	8.273163	,	9
1,0	,	88711	,	-17709	,	-16348	,	6.34399	,	6
1,0	,	88727	,	-17713	,	-16348	,	4.819376	,	3
1,0	,	88759	,	-17712	,	-16341	,	3.8574154	,	1
1,0	,	88775	,	-17712	,	-16340	,	3.3673081	,	0
1,0	,	88791	,	-17720	,	-16351	,	3.139529	,	0
1,1	,	88823	,	-17711	,	-16350	,	2.9518416	,	0
1,1	,	88839	,	-17714	,	-16330	,	2.6998801	,	0
1,1	,	88855	,	-17713	,	-16344	,	2.3986268	,	0
1,1	,	88887	,	-17714	,	-16349	,	2.0709286	,	0
1,1	,	88903	,	-17723	,	-16345	,	1.6823016	,	0
1,1	,	88935	,	-17716	,	-16346	,	1.1473448	,	0
1,1	,	88951	,	-17723	,	-16346	,	0.43916172	,	0
1,1	,	88967	,	-17727	,	-16352	,	-0.40661693	,	0
1,1	,	88999	,	-17730	,	-16348	,	-1.3923707	,	0
1,1	,	89015	,	-17724	,	-16349	,	-2.4850318	,	0
1,1	,	89031	,	-17733	,	-16354	,	-3.5467286	,	0
1,1	,	89062	,	-17731	,	-16362	,	-4.458931	,	0
1,1	,	89079	,	-17734	,	-16341	,	-5.182006	,	0
1,1	,	89111	,	-17735	,	-16350	,	-5.699498	,	0
1,1	,	89127	,	-17742	,	-16364	,	-6.0353823	,	0
1,1	,	89143	,	-17743	,	-16355	,	-6.278048	,	0
1,1	,	89175	,	-17744	,	-16362	,	-6.504965	,	0
1,1	,	89191	,	-17751	,	-16369	,	-6.737426	,	0
1,1	,	89207	,	-17751	,	-16359	,	-6.9944696	,	0
1,1	,	89238	,	-17753	,	-16368	,	-7.285016	,	0
1,1	,	89254	,	-17753	,	-16364	,	-7.5533633	,	0
1,1	,	89271	,	-17765	,	-16364	,	-7.7579303	,	0
1,1	,	89303	,	-17759	,	-16370	,	-7.944563	,	0
1,1	,	89319	,	-17751	,	-16363	,	-8.078072	,	0
1,1	,	89350	,	-17739	,	-16355	,	-7.869976	,	0
1,1	,	89366	,	-17729	,	-16358	,	-6.8966465	,	0
1,1	,	89382	,	-17721	,	-16357	,	-4.8529787	,	0
1,1	,	89415	,	-17727	,	-16345	,	-1.7761271	,	2
1,1	,	89431	,	-17728	,	-16349	,	1.8609085	,	5
1,1	,	89447	,	-17724	,	-16346	,	5.3783703	,	8
1,1	,	89479	,	-17717	,	-16348	,	8.288311	,	11
1,1	,	89495	,	-17716	,	-16342	,	10.427624	,	13
1,1	,	89526	,	-17716	,	-16355	,	11.791798	,	15
1,1	,	89543	,	-17713	,	-16334	,	12.40476	,	16
1,1	,	89558	,	-17708	,	-16341	,	12.361193	,	16
1,1	,	89590	,	-17714	,	-16345	,	11.824995	,	16
1,1	,	89607	,	-17709	,	-16346	,	10.920269	,	14
1,1	,	89623	,	-17699	,	-16340	,	9.792022	,	11
1,1	,	89655	,	-17710	,	-16339	,	8.662012	,	8
1,1	,	89671	,	-17701	,	-16345	,	7.653948	,	5
1,1	,	89686	,	-17705	,	-16350	,	6.765893	,	3
1,1	,	89718	,	-17707	,	-16340	,	5.960862	,	1
1,1	,	89734	,	-17699	,	-16340	,	5.199565	,	0
1,1	,	89766	,	-17713	,	-16344	,	4.4648495	,	0
1,1	,	89783	,	-17704	,	-16350	,	3.7006133	,	0
1,1	,	89799	,	-17710	,	-16337	,	2.848245	,	0
1,2	,	89831	,	-17711	,	-16342	,	1.9185672	,	0
1,2	,	89846	,	-17703	,	-16346	,	0.98080766	,	0
1,2	,	89862	,	-17724	,	-16347	,	0.0987767	,	0
1,2	,	89894	,	-17723	,	-16344	,	-0.8407681	,	0
1,2	,	89910	,	-17708	,	-16344	,	-1.9487915	,	0
1,2	,	89942	,	-17724	,	-16341	,	-3.0487933	,	0
1,2	,	89958	,	-17721	,	-16351	,	-3.9458637	,	0
1,2	,	89974	,	-17732	,	-16346	,	-4.6701064	,	0
1,2	,	90006	,	-17726	,	-16352	,	-5.325242	,	0
1,2	,	90022	,	-17715	,	-16350	,	-5.8514996	,	0
1,2	,	90038	,	-17722	,	-16348	,	-6.0007133	,	0
1,2	,	90070	,	-17727	,	-16353	,	-5.656742	,	0
1,2	,	90086	,	-17736	,	-16362	,	-5.03864	,	0
1,2	,	90102	,	-17735	,	-16343	,	-4.5126753	,	0
1,2	,	90134	,	-17743	,	-16356	,	-4.339855	,	0
1,2	,	90150	,	-17740	,	-16347	,	-4.5901413	,	0
1,2	,	90182	,	-17740	,	-16357	,	-5.148341	,	0
1,2	,	90198	,	-17744	,	-16350	,	-5.7935123	,	0
1,2	,	90214	,	-17740	,	-16371	,	-6.333898	,	0
1,2	,	90246	,	-17737	,	-16344	,	-6.6111465	,	0
1,2	,	90262	,	-17717	,	-16349	,	-6.382483	,	0
1,2	,	90278	,	-17717	,	-16339	,	-5.3194714	,	0
1,2	,	90310	,	-17711	,	-16350	,	-3.2539494	,	1
1,2	,	90326	,	-17709	,	-16351	,	-0.36100817	,	3
1,2	,	90358	,	-17708	,	-16348	,	2.9465237	,	5
1,2	,	90374	,	-17709	,	-16345	,	6.174722	,	8
1,2	,	90390	,	-17708	,	-16346	,	8.864607	,	11
1,2	,	90422	,	-17696	,	-16340	,	10.758126	,	13
1,2	,	90438	,	-17704	,	-16339	,	11.857887	,	14
1,2	,	90454	,	-17704	,	-16344	,	12.228154	,	15
1,2	,	90486	,	-17704	,	-16339	,	11.873707	,	15
1,2	,	90502	,	-17695	,	-16342	,	10.897846	,	14
1,2	,	90518	,	-17701	,	-16334	,	9.564407	,	12
1,2	,	90550	,	-17701	,	-16333	,	8.102451	,	10
1,2	,	90566	,	-17702	,	-16342	,	6.598161	,	7
1,2	,	90598	,	-17704	,	-16332	,	5.0895886	,	4
1,2	,	90614	,	-17699	,	-16330	,	3.6432502	,	2
1,2	,	90630	,	-17702	,	-16333	,	2.362543	,	1
1,2	,	90662	,	-17697	,	-16331	,	1.3529077	,	0
1,2	,	90678	,	-17700	,	-16335	,	0.67234087	,	0
1,2	,	90694	,	-17695	,	-16327	,	0.32416606	,	0
1,2	,	90726	,	-17692	,	-16339	,	0.30157322	,	0
1,2	,	90742	,	-17709	,	-16339	,	0.52376187	,	0
1,2	,	90774	,	-17704	,	-16347	,	0.7244403	,	0
1,2	,	90790	,	-17707	,	-16333	,	0.6416544	,	0
1,3	,	90806	,	-17705	,	-16337	,	0.23985712	,	0
1,3	,	90838	,	-17710	,	-16344	,	-0.3770439	,	0
1,3	,	90854	,	-17709	,	-16343	,	-1.1076849	,	0
1,3	,	90870	,	-17709	,	-16340	,	-1.8609366	,	0
1,3	,	90902	,	-17713	,	-16352	,	-2.5426257	,	0
1,3	,	90918	,	-17713	,	-16351	,	-3.1002417	,	0
1,3	,	90934	,	-17713	,	-16342	,	-3.5150628	,	0
1,3	,	90966	,	-17718	,	-16350	,	-3.7789898	,	0
1,3	,	90982	,	-17723	,	-16359	,	-3.9530911	,	0
1,3	,	91014	,	-17716	,	-16344	,	-4.127636	,	0
1,3	,	91030	,	-17738	,	-16356	,	-4.3723845	,	0
1,3	,	91046	,	-17734	,	-16353	,	-4.836055	,	0
1,3	,	91078	,	-17736	,	-16352	,	-5.635722	,	0
1,3	,	91094	,	-17747	,	-16364	,	-6.702879	,	0
1,3	,	91110	,	-17742	,	-16362	,	-7.9064903	,	0
1,3	,	91142	,	-17742	,	-16365	,	-9.067066	,	0
1,3	,	91158	,	-17741	,	-16359	,	-9.916603	,	0
1,3	,	91190	,	-17731	,	-16352	,	-10.185862	,	0
1,3	,	91206	,	-17722	,	-16345	,	-9.618792	,	0
1,3	,	91222	,	-17711	,	-16344	,	-7.9909396	,	0
1,3	,	91254	,	-17712	,	-16336	,	-5.254706	,	1
1,3	,	91270	,	-17705	,	-16342	,	-1.6626072	,	3
1,3	,	91286	,	-17709	,	-16343	,	2.295276	,	6
1,3	,	91318	,	-17704	,	-16339	,	6.063324	,	9
1,3	,	91334	,	-17695	,	-16337	,	9.229763	,	12
1,3	,	91350	,	-17695	,	-16340	,	11.651345	,	15
1,3	,	91382	,	-17700	,	-16355	,	13.288691	,	17
1,3	,	91398	,	-17702	,	-16328	,	14.021456	,	18
1,3	,	91430	,	-17697	,	-16351	,	13.771147	,	18
1,3	,	91446	,	-17694	,	-16344	,	12.692164	,	17
1,3	,	91462	,	-17697	,	-16337	,	11.099344	,	15
1,3	,	91494	,	-17691	,	-16334	,	9.288845	,	12
1,3	,	91510	,	-17695	,	-16327	,	7.492882	,	9
1,3	,	91526	,	-17694	,	-16335	,	5.852326	,	6
1,3	,	91558	,	-17694	,	-16332	,	4.410486	,	3
1,3	,	91574	,	-17697	,	-16334	,	3.1729257	,	1
1,3	,	91606	,	-17692	,	-16333	,	2.1383665	,	0
1,3	,	91622	,	-17692	,	-16341	,	1.3327425	,	0
1,3	,	91638	,	-17694	,	-16337	,	0.790758	,	0
1,3	,	91669	,	-17691	,	-16334	,	0.49245262	,	0
1,3	,	91686	,	-17699	,	-16334	,	0.35270357	,	0
1,3	,	91702	,	-17706	,	-16336	,	0.18898642	,	0
1,3	,	91734	,	-17697	,	-16334	,	-0.19233464	,	0
1,3	,	91750	,	-17701	,	-16341	,	-0.78573686	,	0
1,3	,	91766	,	-17698	,	-16332	,	-1.4230676	,	0
1,3	,	91798	,	-17702	,	-16346	,	-1.9645464	,	0
1,4	,	91814	,	-17709	,	-16340	,	-2.3894105	,	0
1,4	,	91846	,	-17718	,	-16343	,	-2.8359056	,	0
1,4	,	91861	,	-17714	,	-16337	,	-3.490707	,	0
1,4	,	91877	,	-17722	,	-16338	,	-4.393515	,	0
1,4	,	91909	,	-17728	,	-16342	,	-5.4794245	,	0
1,4	,	91926	,	-17723	,	-16346	,	-6.6717806	,	0
1,4	,	91942	,	-17722	,	-16342	,	-7.784495	,	0
1,4	,	91974	,	-17726	,	-16354	,	-8.554891	,	0
1,4	,	91990	,	-17724	,	-16349	,	-8.834766	,	0
1,4	,	92022	,	-17738	,	-16354	,	-8.680475	,	0
1,4	,	92038	,	-17732	,	-16351	,	-8.30711	,	0
1,4	,	92053	,	-17735	,	-16357	,	-7.892863	,	0
1,4	,	92085	,	-17747	,	-16358	,	-7.525988	,	0
1,4	,	92101	,	-17739	,	-16346	,	-7.309621	,	0
1,4	,	92118	,	-17742	,	-16357	,	-7.2494583	,	0
1,4	,	92150	,	-17747	,	-16358	,	-7.227409	,	0
1,4	,	92166	,	-17734	,	-16362	,	-7.1240387	,	0
1,4	,	92182	,	-17720	,	-16350	,	-6.696699	,	0
1,4	,	92213	,	-17722	,	-16353	,	-5.582576	,	0
1,4	,	92230	,	-17713	,	-16346	,	-3.615159	,	1
1,4	,	92261	,	-17713	,	-16352	,	-0.93999743	,	2
1,4	,	92278	,	-17713	,	-16350	,	2.0975566	,	4
1,4	,	92294	,	-17713	,	-16348	,	5.0502443	,	7
1,4	,	92326	,	-17720	,	-16337	,	7.468305	,	9
1,4	,	92342	,	-17713	,	-16347	,	9.016969	,	11
1,4	,	92358	,	-17717	,	-16358	,	9.589379	,	12
1,4	,	92389	,	-17719	,	-16358	,	9.275064	,	12
1,4	,	92405	,	-17721	,	-16357	,	8.2258835	,	12
1,4	,	92437	,	-17718	,	-16366	,	6.637542	,	11
1,4	,	92453	,	-17726	,	-16357	,	4.7446036	,	10
1,4	,	92470	,	-17716	,	-16358	,	2.7745352	,	8
1,4	,	92502	,	-17706	,	-16359	,	1.0374205	,	5
1,4	,	92518	,	-17708	,	-16359	,	-0.07389617	,	3
1,4	,	92533	,	-17711	,	-16360	,	-0.37428427	,	1
1,4	,	92565	,	-17710	,	-16341	,	-0.02586168	,	0
1,4	,	92581	,	-17699	,	-16350	,	0.71299595	,	0
1,4	,	92613	,	-17699	,	-16352	,	1.7226583	,	0
1,4	,	92629	,	-17701	,	-16344	,	2.9265363	,	1
1,4	,	92645	,	-17704	,	-16342	,	4.122418	,	2
1,4	,	92677	,	-17703	,	-16339	,	5.038005	,	3
1,4	,	92693	,	-17711	,	-16346	,	5.451496	,	3
1,4	,	92709	,	-17707	,	-16337	,	5.243287	,	3
1,4	,	92742	,	-17705	,	-16341	,	4.4726095	,	3
1,4	,	92757	,	-17708	,	-16340	,	3.3642445	,	3
1,4	,	92773	,	-17720	,	-16350	,	2.0881262	,	3
1,5	,	92805	,	-17716	,	-16338	,	0.650357	,	3
1,5	,	92821	,	-17724	,	-16358	,	-0.94854116	,	2
1,5	,	92853	,	-17717	,	-16352	,	-2.59473	,	1
1,5	,	92869	,	-17718	,	-16352	,	-4.0682216	,	0
1,5	,	92885	,	-17737	,	-16358	,	-5.218123	,	0
1,5	,	92917	,	-17737	,	-16361	,	-6.1832857	,	0
1,5	,	92933	,	-17732	,	-16369	,	-7.163247	,	0
1,5	,	92949	,	-17739	,	-16374	,	-8.102745	,	0
1,5	,	92981	,	-17742	,	-16374	,	-8.86149	,	0
1,5	,	92997	,	-17741	,	-16388	,	-9.396124	,	0
1,5	,	93029	,	-17743	,	-16373	,	-9.678011	,	0
1,5	,	93045	,	-17744	,	-16376	,	-9.666576	,	0
1,5	,	93061	,	-17751	,	-16376	,	-9.38661	,	0
1,5	,	93093	,	-17743	,	-16375	,	-8.917948	,	0
1,5	,	93109	,	-17734	,	-16361	,	-8.230289	,	0
1,5	,	93125	,	-17721	,	-16354	,	-7.0793405	,	0
1,5	,	93157	,	-17713	,	-16347	,	-5.1486187	,	1
1,5	,	93173	,	-17696	,	-16325	,	-2.236198	,	2
1,5	,	93189	,	-17691	,	-16326	,	1.6748099	,	4
1,5	,	93221	,	-17686	,	-16322	,	6.3447495	,	7
1,5	,	93237	,	-17679	,	-16325	,	11.280773	,	11
1,5	,	93269	,	-17678	,	-16298	,	15.906562	,	15
1,5	,	93285	,	-17650	,	-16288	,	19.828249	,	19
1,5	,	93301	,	-17661	,	-16284	,	22.96714	,	22
1,5	,	93333	,	-17660	,	-16277	,	25.260166	,	25
1,5	,	93349	,	-17660	,	-16273	,	26.448181	,	26
1,5	,	93365	,	-17663	,	-16273	,	26.310207	,	26
1,5	,	93397	,	-17668	,	-16277	,	24.800745	,	24
1,5	,	93413	,	-17655	,	-16277	,	22.08889	,	21
1,5	,	93445	,	-17661	,	-16272	,	18.611153	,	17
1,5	,	93461	,	-17659	,	-16272	,	14.870617	,	13
1,5	,	93477	,	-17655	,	-16287	,	11.254773	,	9
1,5	,	93509	,	-17654	,	-16281	,	8.078714	,	6
1,5	,	93525	,	-17674	,	-16287	,	5.4688406	,	3
1,5	,	93541	,	-17672	,	-16291	,	3.2148938	,	1
1,5	,	93573	,	-17679	,	-16291	,	1.015723	,	0
1,5	,	93589	,	-17686	,	-16307	,	-1.2683032	,	0
1,5	,	93605	,	-17692	,	-16305	,	-3.6717901	,	0
1,5	,	93637	,	-17685	,	-16298	,	-6.1168833	,	0
1,5	,	93653	,	-17688	,	-16298	,	-8.328613	,	0
1,5	,	93685	,	-17694	,	-16303	,	-10.002917	,	0
1,5	,	93701	,	-17694	,	-16305	,	-11.030123	,	0
1,5	,	93717	,	-17699	,	-16292	,	-11.469944	,	0
1,5	,	93749	,	-17715	,	-16312	,	-11.521078	,	0
1,5	,	93765	,	-17712	,	-16311	,	-11.511074	,	0
1,5	,	93781	,	-17724	,	-16311	,	-11.700419	,	0
1,6	,	93813	,	-17728	,	-16321	,	-12.187384	,	0
1,6	,	93829	,	-17721	,	-16321	,	-12.911751	,	0
1,6	,	93861	,	-17726	,	-16325	,	-13.613316	,	0
1,6	,	93877	,	-17733	,	-16318	,	-14.023771	,	0
1,6	,	93893	,	-17725	,	-16331	,	-14.039232	,	0
1,6	,	93925	,	-17742	,	-16329	,	-13.66324	,	0
1,6	,	93941	,	-17745	,	-16337	,	-13.058579	,	0
1,6	,	93957	,	-17733	,	-16331	,	-12.431464	,	0
1,6	,	93989	,	-17755	,	-16338	,	-11.821843	,	0
1,6	,	94005	,	-17747	,	-16331	,	-11.267839	,	0
1,6	,	94021	,	-17736	,	-16338	,	-10.764034	,	0
1,6	,	94053	,	-17734	,	-16330	,	-10.037489	,	0
1,6	,	94069	,	-17728	,	-16318	,	-8.765331	,	0
1,6	,	94100	,	-17720	,	-16329	,	-6.804225	,	1
1,6	,	94117	,	-17720	,	-16330	,	-4.1810136	,	2
1,6	,	94133	,	-17726	,	-16336	,	-1.1512623	,	4
1,6	,	94165	,	-17725	,	-16329	,	1.805558	,	7
1,6	,	94181	,	-17725	,	-16323	,	4.222494	,	9
1,6	,	94197	,	-17721	,	-16338	,	5.862316	,	11
1,6	,	94229	,	-17719	,	-16332	,	6.7393513	,	12
1,6	,	94244	,	-17721	,	-16330	,	6.997636	,	12
1,6	,	94277	,	-17724	,	-16335	,	6.7587056	,	12
1,6	,	94293	,	-17725	,	-16335	,	6.087553	,	11
1,6	,	94309	,	-17721	,	-16336	,	5.0751047	,	10
1,6	,	94341	,	-17729	,	-16333	,	3.858817	,	8
1,6	,	94357	,	-17726	,	-16334	,	2.5480115	,	5
1,6	,	94372	,	-17727	,	-16345	,	1.2370255	,	3
1,6	,	94404	,	-17725	,	-16350	,	0.057787657	,	1
1,6	,	94421	,	-17720	,	-16323	,	-0.8445498	,	0
1,6	,	94452	,	-17731	,	-16333	,	-1.3894205	,	0
1,6	,	94468	,	-17724	,	-16333	,	-1.6397057	,	0
1,6	,	94484	,	-17729	,	-16340	,	-1.720826	,	0
1,6	,	94517	,	-17743	,	-16343	,	-1.7817174	,	0
1,6	,	94533	,	-17743	,	-16329	,	-2.0741575	,	0
1,6	,	94549	,	-17743	,	-16350	,	-2.7824159	,	0
1,6	,	94580	,	-17743	,	-16342	,	-3.8245416	,	0
1,6	,	94596	,	-17743	,	-16342	,	-4.942993	,	0
1,6	,	94612	,	-17741	,	-16348	,	-5.8606086	,	0
1,6	,	94645	,	-17746	,	-16345	,	-6.3870144	,	0
1,6	,	94661	,	-17753	,	-16355	,	-6.526552	,	0
1,6	,	94692	,	-17753	,	-16350	,	-6.4598656	,	0
1,6	,	94708	,	-17755	,	-16350	,	-6.363847	,	0
1,6	,	94724	,	-17757	,	-16361	,	-6.3113685	,	0
1,6	,	94756	,	-17756	,	-16362	,	-6.297104	,	0
1,6	,	94772	,	-17764	,	-16353	,	-6.288615	,	0
1,6	,	94788	,	-17772	,	-16359	,	-6.336893	,	0
1,7	,	94820	,	-17772	,	-16357	,	-6.5821524	,	0
1,7	,	94836	,	-17779	,	-16366	,	-7.0980396	,	0
1,7	,	94868	,	-17772	,	-16381	,	-7.8075733	,	0
1,7	,	94885	,	-17779	,	-16361	,	-8.517544	,	0
1,7	,	94900	,	-17757	,	-16364	,	-8.942915	,	0
1,7	,	94933	,	-17765	,	-16358	,	-8.737526	,	0
1,7	,	94948	,	-17755	,	-16360	,	-7.6842375	,	0
1,7	,	94964	,	-17758	,	-16368	,	-5.8354797	,	1
1,7	,	94996	,	-17758	,	-16366	,	-3.4585009	,	2
1,7	,	95013	,	-17761	,	-16369	,	-0.9590647	,	4
1,7	,	95028	,	-17752	,	-16377	,	1.2890644	,	6
1,7	,	95060	,	-17754	,	-16375	,	3.113409	,	8
1,7	,	95076	,	-17754	,	-16371	,	4.4734383	,	9
1,7	,	95108	,	-17755	,	-16376	,	5.3299603	,	10
1,7	,	95124	,	-17750	,	-16360	,	5.679905	,	10
1,7	,	95140	,	-17744	,	-16349	,	5.657122	,	10
1,7	,	95172	,	-17738	,	-16359	,	5.5306253	,	9
1,7	,	95188	,	-17737	,	-16350	,	5.56909	,	8
1,7	,	95204	,	-17734	,	-16349	,	5.891149	,	6
1,7	,	95236	,	-17729	,	-16349	,	6.470116	,	4
1,7	,	95252	,	-17724	,	-16346	,	7.244199	,	2
1,7	,	95284	,	-17737	,	-16356	,	8.085984	,	1
1,7	,	95300	,	-17739	,	-16355	,	8.681917	,	0
1,7	,	95316	,	-17743	,	-16357	,	8.654116	,	0
1,7	,	95348	,	-17729	,	-16340	,	7.8770723	,	0
1,7	,	95364	,	-17741	,	-16341	,	6.5609527	,	0
1,7	,	95380	,	-17736	,	-16343	,	4.994332	,	0
1,7	,	95412	,	-17745	,	-16353	,	3.345721	,	0
1,7	,	95428	,	-17739	,	-16346	,	1.7045562	,	0
1,7	,	95444	,	-17740	,	-16357	,	0.18824315	,	0
1,7	,	95476	,	-17746	,	-16349	,	-1.0707155	,	0
1,7	,	95492	,	-17756	,	-16351	,	-2.0946033	,	0
1,7	,	95524	,	-17746	,	-16356	,	-3.0303073	,	0
1,7	,	95540	,	-17752	,	-16354	,	-3.8987494	,	0
1,7	,	95556	,	-17751	,	-16360	,	-4.598447	,	0
1,7	,	95588	,	-17753	,	-16351	,	-5.0661936	,	0
1,7	,	95605	,	-17768	,	-16362	,	-5.363814	,	0
1,7	,	95620	,	-17753	,	-16353	,	-5.6437073	,	0
1,7	,	95652	,	-17762	,	-16358	,	-5.932001	,	0
1,7	,	95668	,	-17768	,	-16353	,	-6.1575623	,	0
1,7	,	95700	,	-17773	,	-16357	,	-6.384512	,	0
1,7	,	95716	,	-17770	,	-16363	,	-6.715103	,	0
1,7	,	95732	,	-17769	,	-16364	,	-7.089782	,	0
1,7	,	95764	,	-17772	,	-16365	,	-7.344178	,	0
1,7	,	95780	,	-17778	,	-16368	,	-7.398925	,	0
1,7	,	95796	,	-17757	,	-16361	,	-7.2165494	,	0
1,8	,	95828	,	-17753	,	-16358	,	-6.571864	,	0
1,8	,	95844	,	-17748	,	-16353	,	-5.1670203	,	0
1,8	,	95876	,	-17748	,	-16370	,	-2.9617007	,	1
1,8	,	95892	,	-17737	,	-16348	,	-0.17437196	,	3
1,8	,	95908	,	-17736	,	-16358	,	2.919861	,	5
1,8	,	95940	,	-17740	,	-16354	,	6.0045815	,	8
1,8	,	95956	,	-17746	,	-16356	,	8.635005	,	11
1,8	,	95972	,	-17734	,	-16352	,	10.403848	,	13
1,8	,	96004	,	-17734	,	-16361	,	11.22712	,	14
1,8	,	96020	,	-17734	,	-16365	,	11.290098	,	14
1,8	,	96036	,	-17737	,	-16339	,	10.776257	,	14
1,8	,	96068	,	-17736	,	-16348	,	9.785287	,	13
1,8	,	96084	,	-17734	,	-16357	,	8.430309	,	11
1,8	,	96116	,	-17730	,	-16355	,	6.9146814	,	9
1,8	,	96132	,	-17731	,	-16349	,	5.4820786	,	6
1,8	,	96148	,	-17721	,	-16359	,	4.338892	,	3
1,8	,	96180	,	-17735	,	-16357	,	3.591663	,	1
1,8	,	96196	,	-17732	,	-16353	,	3.1425276	,	0
1,8	,	96212	,	-17731	,	-16351	,	2.7806077	,	0
1,8	,	96244	,	-17735	,	-16363	,	2.3806853	,	0
1,8	,	96260	,	-17733	,	-16364	,	1.9016665	,	0
1,8	,	96292	,	-17747	,	-16359	,	1.289563	,	0
1,8	,	96308	,	-17738	,	-16359	,	0.45703328	,	0
1,8	,	96324	,	-17746	,	-16361	,	-0.5989675	,	0
1,8	,	96356	,	-17746	,	-16366	,	-1.7712677	,	0
1,8	,	96372	,	-17744	,	-16362	,	-2.934074	,	0
1,8	,	96388	,	-17745	,	-16377	,	-3.9338017	,	0
1,8	,	96420	,	-17743	,	-16383	,	-4.6135244	,	0
1,8	,	96436	,	-17751	,	-16370	,	-4.9173884	,	0
1,8	,	96452	,	-17747	,	-16361	,	-4.9181204	,	0
1,8	,	96484	,	-17749	,	-16386	,	-4.7186756	,	0
1,8	,	96500	,	-17754	,	-16369	,	-4.4065185	,	0
1,8	,	96532	,	-17760	,	-16381	,	-4.1309805	,	0
1,8	,	96548	,	-17759	,	-16388	,	-4.0658655	,	0
1,8	,	96564	,	-17762	,	-16390	,	-4.266822	,	0
1,8	,	96596	,	-17767	,	-16394	,	-4.680728	,	0
1,8	,	96611	,	-17770	,	-16398	,	-5.2618036	,	0
1,8	,	96627	,	-17778	,	-16402	,	-6.0081053	,	0
1,8	,	96660	,	-17783	,	-16399	,	-6.9464903	,	0
1,8	,	96676	,	-17783	,	-16410	,	-8.066763	,	0
1,8	,	96708	,	-17771	,	-16404	,	-9.174102	,	0
1,8	,	96724	,	-17762	,	-16418	,	-9.827424	,	0
1,8	,	96740	,	-17765	,	-16396	,	-9.57216	,	0
1,8	,	96772	,	-17751	,	-16391	,	-8.229759	,	0
1,8	,	96788	,	-17757	,	-16389	,	-5.906422	,	1
1,9	,	96803	,	-17746	,	-16392	,	-2.8930335	,	3
1,9	,	96835	,	-17742	,	-16390	,	0.45952892	,	6
1,9	,	96852	,	-17752	,	-16400	,	3.7928326	,	9
1,9	,	96868	,	-17750	,	-16391	,	6.654128	,	12
1,9	,	96899	,	-17753	,	-16395	,	8.6169195	,	14
1,9	,	96915	,	-17753	,	-16390	,	9.492102	,	15
1,9	,	96948	,	-17755	,	-16398	,	9.325249	,	15
1,9	,	96964	,	-17753	,	-16409	,	8.312717	,	15
1,9	,	96980	,	-17751	,	-16395	,	6.751731	,	14
1,9	,	97011	,	-17756	,	-16399	,	4.9632254	,	12
1,9	,	97027	,	-17757	,	-16395	,	3.1731591	,	9
1,9	,	97043	,	-17758	,	-16407	,	1.4937515	,	6
1,9	,	97075	,	-17750	,	-16409	,	0.035832167	,	3
1,9	,	97091	,	-17752	,	-16416	,	-1.0380088	,	1
1,9	,	97124	,	-17759	,	-16407	,	-1.6516352	,	0
1,9	,	97140	,	-17766	,	-16412	,	-1.9576051	,	0
1,9	,	97156	,	-17772	,	-16409	,	-2.2620745	,	0
1,9	,	97188	,	-17766	,	-16430	,	-2.7923164	,	0
1,9	,	97204	,	-17763	,	-16398	,	-3.50343	,	0
1,9	,	97219	,	-17779	,	-16420	,	-4.2152724	,	0
1,9	,	97251	,	-17779	,	-16417	,	-4.915902	,	0
1,9	,	97267	,	-17782	,	-16417	,	-5.703723	,	0
1,9	,	97284	,	-17780	,	-16418	,	-6.555668	,	0
1,9	,	97316	,	-17773	,	-16413	,	-7.283107	,	0
1,9	,	97331	,	-17787	,	-16421	,	-7.6737976	,	0
1,9	,	97363	,	-17780	,	-16421	,	-7.687982	,	0
1,9	,	97379	,	-17778	,	-16420	,	-7.383547	,	0
1,9	,	97395	,	-17791	,	-16428	,	-6.8145847	,	0
1,9	,	97427	,	-17790	,	-16432	,	-6.161016	,	0
1,9	,	97443	,	-17793	,	-16412	,	-5.6567802	,	0
1,9	,	97459	,	-17799	,	-16426	,	-5.4232826	,	0
1,9	,	97491	,	-17813	,	-16422	,	-5.5634627	,	0
1,9	,	97507	,	-17809	,	-16423	,	-6.2050633	,	0
1,9	,	97539	,	-17811	,	-16433	,	-7.3027697	,	0
1,9	,	97555	,	-17810	,	-16442	,	-8.573458	,	0
1,9	,	97572	,	-17810	,	-16435	,	-9.671183	,	0
1,9	,	97603	,	-17811	,	-16427	,	-10.327993	,	0
1,9	,	97619	,	-17819	,	-16429	,	-10.444403	,	0
1,9	,	97635	,	-17811	,	-16436	,	-10.094976	,	0
1,9	,	97667	,	-17806	,	-16422	,	-9.340155	,	0
1,9	,	97683	,	-17798	,	-16417	,	-8.100279	,	0
1,9	,	97699	,	-17785	,	-16411	,	-6.2192664	,	1
1,9	,	97731	,	-17774	,	-16412	,	-3.5390363	,	2
1,9	,	97747	,	-17769	,	-16402	,	-0.012026787	,	4
1,9	,	97779	,	-17765	,	-16411	,	4.1596193	,	7
1,9	,	97795	,	-17766	,	-16403	,	8.520653	,	11
1,10	,	97811	,	-17764	,	-16406	,	12.495831	,	15
1,10	,	97843	,	-17767	,	-16396	,	15.557543	,	18
1,10	,	97859	,	-17761	,	-16400	,	17.368671	,	21
1,10	,	97875	,	-17762	,	-16407	,	17.870474	,	22
1,10	,	97907	,	-17750	,	-16400	,	17.281013	,	21
1,10	,	97923	,	-17750	,	-16394	,	16.012054	,	20
1,10	,	97955	,	-17744	,	-16399	,	14.503291	,	18
1,10	,	97971	,	-17747	,	-16390	,	13.046982	,	15
1,10	,	97987	,	-17748	,	-16400	,	11.720776	,	11
1,10	,	98020	,	-17753	,	-16391	,	10.430588	,	7
1,10	,	98035	,	-17752	,	-16390	,	9.036495	,	4
1,10	,	98051	,	-17749	,	-16392	,	7.4969726	,	1
1,10	,	98083	,	-17747	,	-16393	,	5.9152803	,	0
1,10	,	98099	,	-17750	,	-16400	,	4.44558	,	0
1,10	,	98131	,	-17747	,	-16385	,	3.1863341	,	0
1,10	,	98147	,	-17747	,	-16395	,	2.1792793	,	0
1,10	,	98163	,	-17752	,	-16390	,	1.4174845	,	0
1,10	,	98195	,	-17751	,	-16394	,	0.8301561	,	0
1,10	,	98211	,	-17753	,	-16392	,	0.33202088	,	0
1,10	,	98227	,	-17748	,	-16395	,	-0.109197915	,	0
1,10	,	98259	,	-17765	,	-16406	,	-0.53120553	,	0
1,10	,	98275	,	-17761	,	-16383	,	-1.0770849	,	0
1,10	,	98307	,	-17770	,	-16389	,	-1.8947767	,	0
1,10	,	98323	,	-17771	,	-16392	,	-3.0121083	,	0
1,10	,	98339	,	-17765	,	-16406	,	-4.3164577	,	0
1,10	,	98371	,	-17774	,	-16414	,	-5.5722184	,	0
1,10	,	98387	,	-17774	,	-16400	,	-6.5869923	,	0
1,10	,	98403	,	-17767	,	-16398	,	-7.2654424	,	0
1,10	,	98435	,	-17774	,	-16400	,	-7.512447	,	0
1,10	,	98451	,	-17774	,	-16405	,	-7.313521	,	0
1,10	,	98467	,	-17780	,	-16410	,	-6.806897	,	0
1,10	,	98499	,	-17792	,	-16411	,	-6.25651	,	0
1,10	,	98515	,	-17789	,	-16410	,	-5.9764605	,	0
1,10	,	98547	,	-17788	,	-16407	,	-6.0948687	,	0
1,10	,	98563	,	-17788	,	-16419	,	-6.4527326	,	0
1,10	,	98579	,	-17797	,	-16393	,	-6.837742	,	0
1,10	,	98611	,	-17805	,	-16409	,	-7.22155	,	0
1,10	,	98627	,	-17787	,	-16408	,	-7.637713	,	0
1,10	,	98643	,	-17792	,	-16404	,	-7.8996024	,	0
1,10	,	98675	,	-17776	,	-16400	,	-7.6608686	,	0
1,10	,	98691	,	-17773	,	-16405	,	-6.629101	,	0
1,10	,	98723	,	-17772	,	-16401	,	-4.6972733	,	1
1,10	,	98739	,	-17770	,	-16399	,	-2.0551667	,	2
1,10	,	98754	,	-17769	,	-16401	,	0.89405227	,	4
1,10	,	98787	,	-17766	,	-16392	,	3.7368686	,	6
1,11	,	98803	,	-17754	,	-16412	,	6.21488	,	8
1,11	,	98819	,	-17755	,	-16388	,	8.28325	,	10
1,11	,	98851	,	-17753	,	-16387	,	9.959099	,	12
1,11	,	98867	,	-17757	,	-16395	,	11.166995	,	13
1,11	,	98899	,	-17748	,	-16389	,	11.805239	,	14
1,11	,	98915	,	-17755	,	-16384	,	11.861302	,	13
1,11	,	98930	,	-17750	,	-16403	,	11.379599	,	12
1,11	,	98962	,	-17754	,	-16393	,	10.424736	,	10
1,11	,	98979	,	-17749	,	-16398	,	9.114918	,	8
1,11	,	98995	,	-17741	,	-16382	,	7.6625357	,	6
1,11	,	99027	,	-17739	,	-16398	,	6.376434	,	4
1,11	,	99043	,	-17744	,	-16373	,	5.486751	,	2
1,11	,	99059	,	-17740	,	-16395	,	4.982935	,	1
1,11	,	99091	,	-17746	,	-16388	,	4.6997557	,	0
1,11	,	99106	,	-17741	,	-16390	,	4.459239	,	0
1,11	,	99138	,	-17750	,	-16389	,	4.1220903	,	0
1,11	,	99154	,	-17745	,	-16387	,	3.5913036	,	0
1,11	,	99170	,	-17754	,	-16387	,	2.8192139	,	0
1,11	,	99203	,	-17747	,	-16380	,	1.8229226	,	0
1,11	,	99219	,	-17749	,	-16387	,	0.7126982	,	0
1,11	,	99235	,	-17750	,	-16385	,	-0.33540118	,	0
1,11	,	99266	,	-17758	,	-16405	,	-1.2245946	,	0
1,11	,	99282	,	-17748	,	-16379	,	-1.966005	,	0
1,11	,	99315	,	-17750	,	-16390	,	-2.5204978	,	0
1,11	,	99331	,	-17762	,	-16385	,	-2.8448586	,	0
1,11	,	99347	,	-17761	,	-16381	,	-3.0713935	,	0
1,11	,	99378	,	-17761	,	-16395	,	-3.3759816	,	0
1,11	,	99394	,	-17763	,	-16395	,	-3.7823477	,	0
1,11	,	99410	,	-17766	,	-16386	,	-4.22482	,	0
1,11	,	99442	,	-17760	,	-16401	,	-4.6204247	,	0
1,11	,	99458	,	-17776	,	-16391	,	-4.9147167	,	0
1,11	,	99475	,	-17768	,	-16402	,	-5.1603727	,	0
1,11	,	99506	,	-17766	,	-16400	,	-5.3811903	,	0
1,11	,	99522	,	-17775	,	-16389	,	-5.4850984	,	0
1,11	,	99554	,	-17780	,	-16401	,	-5.4838986	,	0
1,11	,	99570	,	-17776	,	-16405	,	-5.5114055	,	0
1,11	,	99586	,	-17784	,	-16406	,	-5.6245646	,	0
1,11	,	99618	,	-17781	,	-16387	,	-5.80161	,	0
1,11	,	99635	,	-17766	,	-16391	,	-5.9180083	,	0
1,11	,	99651	,	-17759	,	-16379	,	-5.6360455	,	0
1,11	,	99682	,	-17743	,	-16385	,	-4.5267696	,	0
1,11	,	99699	,	-17751	,	-16387	,	-2.3708372	,	1
1,11	,	99730	,	-17744	,	-16400	,	0.6308377	,	3
1,11	,	99746	,	-17742	,	-16380	,	3.9892998	,	6
1,11	,	99762	,	-17734	,	-16379	,	7.254657	,	9
1,11	,	99794	,	-17735	,	-16372	,	10.127918	,	12
1,12	,	99810	,	-17736	,	-16379	,	12.373138	,	14
1,12	,	99826	,	-17737	,	-16371	,	13.769478	,	16
1,12	,	99858	,	-17742	,	-16383	,	14.160526	,	17
1,12	,	99874	,	-17739	,	-16376	,	13.520127	,	17
1,12	,	99890	,	-17732	,	-16383	,	12.032036	,	16
1,12	,	99922	,	-17728	,	-16374	,	10.105906	,	14
1,12	,	99938	,	-17730	,	-16374	,	8.190506	,	11
1,12	,	99970	,	-17733	,	-16376	,	6.5335474	,	8
1,12	,	99986	,	-17717	,	-16372	,	5.2251267	,	5
1,12	,	100002	,	-17727	,	-16373	,	4.3699484	,	3
1,12	,	100034	,	-17725	,	-16369	,	3.9677682	,	1
1,12	,	100050	,	-17735	,	-16373	,	3.7855237	,	0
1,12	,	100066	,	-17733	,	-16380	,	3.5141644	,	0
1,12	,	100098	,	-17729	,	-16370	,	2.9878328	,	0
1,12	,	100114	,	-17735	,	-16372	,	2.2420049	,	0
1,12	,	100146	,	-17739	,	-16380	,	1.3516889	,	0
1,12	,	100162	,	-17739	,	-16377	,	0.32627964	,	0
1,12	,	100178	,	-17737	,	-16384	,	-0.78561366	,	0
1,12	,	100210	,	-17741	,	-16373	,	-1.8511908	,	0
1,12	,	100226	,	-17742	,	-16380	,	-2.761716	,	0
1,12	,	100242	,	-17745	,	-16382	,	-3.492908	,	0
1,12	,	100274	,	-17753	,	-16375	,	-4.100227	,	0
1,12	,	100290	,	-17755	,	-16387	,	-4.708888	,	0
1,12	,	100306	,	-17747	,	-16376	,	-5.372959	,	0
1,12	,	100338	,	-17760	,	-16386	,	-5.99734	,	0
1,12	,	100354	,	-17753	,	-16376	,	-6.4871216	,	0
1,12	,	100386	,	-17760	,	-16379	,	-6.803401	,	0
1,12	,	100402	,	-17767	,	-16380	,	-6.9668064	,	0
1,12	,	100418	,	-17762	,	-16387	,	-7.0696354	,	0
1,12	,	100450	,	-17765	,	-16369	,	-7.13382	,	0
1,12	,	100466	,	-17766	,	-16386	,	-7.0932546	,	0
1,12	,	100482	,	-17776	,	-16383	,	-6.961201	,	0
1,12	,	100514	,	-17772	,	-16392	,	-6.850973	,	0
1,12	,	100530	,	-17776	,	-16395	,	-6.8254905	,	0
1,12	,	100562	,	-17774	,	-16387	,	-6.833316	,	0
1,12	,	100578	,	-17775	,	-16392	,	-6.7770634	,	0
1,12	,	100594	,	-17759	,	-16382	,	-6.5004106	,	0
1,12	,	100626	,	-17761	,	-16388	,	-5.761181	,	0
1,12	,	100642	,	-17749	,	-16382	,	-4.36641	,	0
1,12	,	100658	,	-17751	,	-16377	,	-2.2964625	,	1
1,12	,	100690	,	-17749	,	-16374	,	0.26683116	,	3
1,12	,	100706	,	-17738	,	-16370	,	3.024014	,	5
1,12	,	100722	,	-17741	,	-16370	,	5.723238	,	7
1,12	,	100754	,	-17730	,	-16372	,	8.188037	,	9
1,12	,	100770	,	-17732	,	-16364	,	10.289152	,	11
1,13	,	100802	,	-17732	,	-16363	,	11.913246	,	13
1,13	,	100818	,	-17728	,	-16376	,	12.9316845	,	14
1,13	,	100834	,	-17732	,	-16367	,	13.263667	,	15
1,13	,	100866	,	-17722	,	-16366	,	12.939739	,	14
1,13	,	100882	,	-17715	,	-16364	,	12.17161	,	12
1,13	,	100898	,	-17727	,	-16358	,	11.247957	,	10
1,13	,	100930	,	-17730	,	-16355	,	10.229091	,	8
1,13	,	100946	,	-17723	,	-16363	,	8.994528	,	6
1,13	,	100978	,	-17712	,	-16366	,	7.611529	,	4
1,13	,	100994	,	-17724	,	-16355	,	6.338093	,	2
1,13	,	101010	,	-17721	,	-16350	,	5.285891	,	1
1,13	,	101042	,	-17717	,	-16357	,	4.398135	,	0
1,13	,	101058	,	-17719	,	-16364	,	3.6612337	,	0
1,13	,	101074	,	-17724	,	-16357	,	3.064839	,	0
1,13	,	101106	,	-17728	,	-16356	,	2.4918497	,	0
1,13	,	101122	,	-17721	,	-16370	,	1.8240838	,	0
1,13	,	101138	,	-17719	,	-16352	,	1.1057501	,	0
1,13	,	101170	,	-17724	,	-16368	,	0.48426044	,	0
1,13	,	101186	,	-17725	,	-16370	,	0.016013503	,	0
1,13	,	101218	,	-17732	,	-16364	,	-0.37790024	,	0
1,13	,	101234	,	-17730	,	-16370	,	-0.8234603	,	0
1,13	,	101250	,	-17731	,	-16366	,	-1.3772248	,	0
1,13	,	101282	,	-17731	,	-16359	,	-1.9776384	,	0
1,13	,	101298	,	-17731	,	-16365	,	-2.5120528	,	0
1,13	,	101314	,	-17737	,	-16370	,	-2.9146998	,	0
1,13	,	101346	,	-17739	,	-16374	,	-3.2299244	,	0
1,13	,	101362	,	-17747	,	-16367	,	-3.5920682	,	0
1,13	,	101394	,	-17753	,	-16374	,	-4.166026	,	0
1,13	,	101410	,	-17753	,	-16378	,	-5.05944	,	0
1,13	,	101426	,	-17755	,	-16376	,	-6.2123036	,	0
1,13	,	101458	,	-17760	,	-16376	,	-7.4393535	,	0
1,13	,	101474	,	-17761	,	-16378	,	-8.574533	,	0
1,13	,	101490	,	-17772	,	-16390	,	-9.547098	,	0
1,13	,	101521	,	-17767	,	-16376	,	-10.363664	,	0
1,13	,	101537	,	-17767	,	-16382	,	-10.976611	,	0
1,13	,	101553	,	-17775	,	-16389	,	-11.272637	,	0
1,13	,	101586	,	-17768	,	-16383	,	-11.205746	,	0
1,13	,	101602	,	-17758	,	-16356	,	-10.707531	,	0
1,13	,	101634	,	-17731	,	-16375	,	-9.470219	,	0
1,13	,	101650	,	-17729	,	-16374	,	-7.0340834	,	1
1,13	,	101666	,	-17724	,	-16376	,	-3.2300363	,	3
1,13	,	101698	,	-17716	,	-16356	,	1.5927558	,	6
1,13	,	101713	,	-17724	,	-16368	,	6.7649336	,	10
1,13	,	101729	,	-17708	,	-16358	,	11.566134	,	15
1,13	,	101762	,	-17712	,	-16347	,	15.481115	,	19
1,13	,	101778	,	-17715	,	-16346	,	18.221619	,	22
1,14	,	101810	,	-17707	,	-16348	,	19.613052	,	24
1,14	,	101826	,	-17705	,	-16363	,	19.706284	,	25
1,14	,	101842	,	-17711	,	-16352	,	18.755028	,	24
1,14	,	101873	,	-17701	,	-16338	,	17.03146	,	22
1,14	,	101889	,	-17699	,	-16345	,	14.85811	,	19
1,14	,	101906	,	-17695	,	-16356	,	12.625658	,	15
1,14	,	101938	,	-17699	,	-16343	,	10.622142	,	10
1,14	,	101954	,	-17694	,	-16343	,	8.945929	,	6
1,14	,	101985	,	-17691	,	-16348	,	7.614498	,	3
1,14	,	102001	,	-17700	,	-16348	,	6.609601	,	1
1,14	,	102018	,	-17689	,	-16350	,	5.831037	,	0
1,14	,	102049	,	-17689	,	-16354	,	5.2158813	,	0
1,14	,	102066	,	-17693	,	-16341	,	4.7756963	,	0
1,14	,	102082	,	-17690	,	-16344	,	4.4538946	,	0
1,14	,	102114	,	-17691	,	-16347	,	4.152772	,	0
1,14	,	102130	,	-17699	,	-16344	,	3.781389	,	0
1,14	,	102145	,	-17701	,	-16340	,	3.2001336	,	0
1,14	,	102177	,	-17693	,	-16336	,	2.3370318	,	0
1,14	,	102193	,	-17701	,	-16344	,	1.3081647	,	0
1,14	,	102225	,	-17700	,	-16346	,	0.26556122	,	0
1,14	,	102241	,	-17697	,	-16343	,	-0.7056893	,	0
1,14	,	102257	,	-17706	,	-16358	,	-1.5469896	,	0
1,14	,	102290	,	-17704	,	-16358	,	-2.260246	,	0
1,14	,	102306	,	-17709	,	-16338	,	-2.890021	,	0
1,14	,	102322	,	-17710	,	-16351	,	-3.467595	,	0
