Data recorded on Wed Jun 21 13:51:23 CAT 2017
Time: 13:51:23
Time		Millis		IR PPG		Red PPG		Red AC		Filtered		SSF
53,31	,	127802	,	-26671	,	-24326	,	3.375		,	17.95369	,	22
53,31	,	127834	,	-26660	,	-24328	,	13.359375	,	16.100159	,	19
53,31	,	127850	,	-26659	,	-24320	,	10.34375	,	13.944205	,	15
53,31	,	127882	,	-26655	,	-24324	,	11.25		,	11.901348	,	10
53,31	,	127898	,	-26655	,	-24326	,	7.875		,	10.223624	,	6
53,31	,	127914	,	-26643	,	-24330	,	17.507812	,	9.017717	,	3
53,31	,	127946	,	-26655	,	-24331	,	0.2578125	,	8.303393	,	1
53,31	,	127962	,	-26642	,	-24326	,	13.1796875	,	7.971569	,	0
53,31	,	127978	,	-26656	,	-24331	,	-4.7734375	,	7.8240447	,	0
53,31	,	128010	,	-26658	,	-24327	,	-5.34375	,	7.596797	,	0
53,31	,	128028	,	-26666	,	-24323	,	-11.734375	,	6.9653845	,	0
53,31	,	128042	,	-26660	,	-24321	,	-2.21875	,	5.7361975	,	0
53,31	,	128074	,	-26669	,	-24327	,	-10.5546875	,	3.9726965	,	0
53,31	,	128090	,	-26663	,	-24328	,	-1.3828125	,	1.8965962	,	0
53,31	,	128121	,	-26662	,	-24319	,	0.03125		,	-0.19075179	,	0
53,31	,	128137	,	-26678	,	-24325	,	-15.984375	,	-2.034278	,	0
53,31	,	128153	,	-26669	,	-24329	,	-2.1875		,	-3.5830164	,	0
53,31	,	128186	,	-26677	,	-24328	,	-9.53125	,	-4.8647685	,	0
53,31	,	128202	,	-26680	,	-24335	,	-9.671875	,	-5.878157	,	0
53,31	,	128218	,	-26677	,	-24343	,	-3.765625	,	-6.6412873	,	0
53,31	,	128250	,	-26684	,	-24342	,	-9.640625	,	-7.155336	,	0
53,31	,	128266	,	-26682	,	-24347	,	-4.75		,	-7.422203	,	0
53,31	,	128297	,	-26682	,	-24346	,	-3.328125	,	-7.457883	,	0
53,31	,	128313	,	-26686	,	-24341	,	-6.328125	,	-7.267568	,	0
53,31	,	128329	,	-26683	,	-24351	,	-1.421875	,	-6.882247	,	0
53,31	,	128361	,	-26691	,	-24343	,	-9.0		,	-6.371214	,	0
53,31	,	128378	,	-26699	,	-24348	,	-14.296875	,	-5.890292	,	0
53,31	,	128394	,	-26697	,	-24341	,	-8.015625	,	-5.6584024	,	0
53,31	,	128425	,	-26697	,	-24352	,	-5.609375	,	-5.7517014	,	0
53,31	,	128442	,	-26684	,	-24344	,	9.078125	,	-5.9718075	,	0
53,31	,	128457	,	-26674	,	-24341	,	16.359375	,	-5.889105	,	0
53,31	,	128489	,	-26670	,	-24334	,	15.4453125	,	-5.050212	,	0
53,31	,	128505	,	-26654	,	-24334	,	26.8125	,	-3.2051554	,	0
53,31	,	128537	,	-26655	,	-24329	,	17.773438	,	-0.3548951	,	1
53,31	,	128553	,	-26654	,	-24332	,	13.4375	,	3.2152708	,	3
53,31	,	128569	,	-26648	,	-24330	,	15.40625	,	6.982844	,	6
53,31	,	128601	,	-26635	,	-24328	,	23.78125	,	10.490997	,	9
53,31	,	128617	,	-26650	,	-24339	,	1.6484375	,	13.457436	,	12
53,31	,	128633	,	-26642	,	-24310	,	9.15625	,	15.582653	,	14
53,31	,	128665	,	-26645	,	-24329	,	3.40625	,	16.60662	,	16
53,31	,	128681	,	-26650	,	-24333	,	-2.6171875	,	16.466103	,	17
53,31	,	128713	,	-26643	,	-24321	,	5.171875	,	15.261367	,	17
53,31	,	128729	,	-26643	,	-24331	,	3.625	,	13.267118	,	16
53,31	,	128745	,	-26633	,	-24328	,	12.53125	,	10.9207535	,	14
53,31	,	128777	,	-26637	,	-24330	,	4.7734375	,	8.675018	,	11
53,31	,	128793	,	-26634	,	-24331	,	6.3359375	,	6.8234367	,	8
53,32	,	128809	,	-26633	,	-24331	,	5.4375	,	5.4554014	,	5
53,32	,	128841	,	-26643	,	-24325	,	-6.1875	,	4.5007253	,	3
53,32	,	128857	,	-26648	,	-24351	,	-9.3359375	,	3.7119303	,	1
53,32	,	128873	,	-26644	,	-24306	,	-2.5390625	,	2.8018048	,	0
53,32	,	128905	,	-26642	,	-24328	,	0.2265625	,	1.7062962	,	0
53,32	,	128921	,	-26643	,	-24339	,	-0.8359375	,	0.5847442	,	0
53,32	,	128953	,	-26643	,	-24333	,	-0.59375	,	-0.37872052	,	0
53,32	,	128969	,	-26640	,	-24333	,	2.59375	,	-1.0705453	,	0
53,32	,	128985	,	-26650	,	-24328	,	-8.1875	,	-1.4796135	,	0
53,32	,	129017	,	-26645	,	-24338	,	-0.734375	,	-1.7121272	,	0
53,32	,	129033	,	-26660	,	-24348	,	-15.515625	,	-1.9318004	,	0
53,32	,	129049	,	-26668	,	-24342	,	-18.859375	,	-2.3717666	,	0
53,32	,	129081	,	-26664	,	-24328	,	-9.203125	,	-3.260587	,	0
53,32	,	129097	,	-26673	,	-24359	,	-15.4375	,	-4.6056376	,	0
53,32	,	129129	,	-26669	,	-24330	,	-6.8125	,	-6.205348	,	0
53,32	,	129145	,	-26670	,	-24344	,	-5.765625	,	-7.767744	,	0
53,32	,	129161	,	-26672	,	-24348	,	-6.03125	,	-8.994048	,	0
53,32	,	129193	,	-26688	,	-24348	,	-20.226562	,	-9.782307	,	0
53,32	,	129209	,	-26691	,	-24348	,	-17.15625	,	-10.329056	,	0
53,32	,	129225	,	-26689	,	-24346	,	-10.0078125	,	-10.877577	,	0
53,32	,	129257	,	-26689	,	-24345	,	-7.0078125	,	-11.430433	,	0
53,32	,	129273	,	-26690	,	-24356	,	-5.90625	,	-11.800037	,	0
53,32	,	129305	,	-26684	,	-24353	,	1.8671875	,	-11.783621	,	0
53,32	,	129321	,	-26661	,	-24351	,	24.304688	,	-11.117209	,	0
53,32	,	129337	,	-26657	,	-24352	,	21.015625	,	-9.409739	,	0
53,32	,	129369	,	-26656	,	-24324	,	15.7109375	,	-6.444555	,	1
53,32	,	129385	,	-26648	,	-24343	,	19.0	,	-2.4586153	,	3
53,32	,	129401	,	-26652	,	-24333	,	9.296875	,	2.0107045	,	6
53,32	,	129433	,	-26640	,	-24323	,	18.507812	,	6.3834124	,	10
53,32	,	129449	,	-26641	,	-24322	,	11.953125	,	10.210445	,	14
53,32	,	129465	,	-26637	,	-24316	,	12.3671875	,	13.219809	,	17
53,32	,	129497	,	-26641	,	-24334	,	4.65625	,	15.236115	,	20
53,32	,	129513	,	-26643	,	-24333	,	1.265625	,	16.131464	,	22
53,32	,	129545	,	-26648	,	-24333	,	-4.1171875	,	15.837429	,	22
53,32	,	129561	,	-26646	,	-24347	,	-0.8828125	,	14.413864	,	21
53,32	,	129577	,	-26641	,	-24346	,	4.3828125	,	12.136938	,	19
53,32	,	129609	,	-26642	,	-24337	,	2.0703125	,	9.457079	,	16
53,32	,	129625	,	-26629	,	-24333	,	14.4453125	,	6.865068	,	12
53,32	,	129641	,	-26643	,	-24327	,	-3.8828125	,	4.7540035	,	8
53,32	,	129672	,	-26637	,	-24337	,	3.28125	,	3.2492275	,	5
53,32	,	129689	,	-26642	,	-24337	,	-2.703125	,	2.2336664	,	2
53,32	,	129720	,	-26645	,	-24333	,	-4.890625	,	1.5260293	,	0
53,32	,	129737	,	-26638	,	-24345	,	3.5703125	,	0.9751202	,	0
53,32	,	129753	,	-26634	,	-24329	,	6.5	,	0.5647259	,	0
53,32	,	129785	,	-26648	,	-24341	,	-9.4453125	,	0.3389281	,	0
53,32	,	129801	,	-26642	,	-24356	,	-0.6171875	,	0.19888636	,	0
53,33	,	129816	,	-26657	,	-24344	,	-15.4296875	,	-0.05521807	,	0
53,33	,	129849	,	-26649	,	-24331	,	-2.796875	,	-0.5821502	,	0
53,33	,	129865	,	-26667	,	-24347	,	-19.96875	,	-1.4540726	,	0
53,33	,	129881	,	-26662	,	-24345	,	-8.96875	,	-2.6858788	,	0
53,33	,	129912	,	-26664	,	-24345	,	-8.28125	,	-4.196284	,	0
53,33	,	129929	,	-26663	,	-24349	,	-4.796875	,	-5.7447224	,	0
53,33	,	129960	,	-26669	,	-24346	,	-9.359375	,	-7.066843	,	0
53,33	,	129977	,	-26674	,	-24351	,	-11.546875	,	-8.053292	,	0
53,33	,	129992	,	-26685	,	-24342	,	-19.085938	,	-8.795163	,	0
53,33	,	130024	,	-26673	,	-24351	,	-1.359375	,	-9.431595	,	0
53,33	,	130040	,	-26694	,	-24374	,	-21.953125	,	-9.985163	,	0
53,33	,	130056	,	-26693	,	-24345	,	-14.3671875	,	-10.493734	,	0
53,33	,	130088	,	-26701	,	-24361	,	-18.0625	,	-11.082527	,	0
53,33	,	130104	,	-26694	,	-24354	,	-5.640625	,	-11.76405	,	0
53,33	,	130136	,	-26706	,	-24360	,	-15.9453125	,	-12.387252	,	0
53,33	,	130152	,	-26714	,	-24356	,	-19.164062	,	-12.863726	,	0
53,33	,	130185	,	-26709	,	-24371	,	-8.4140625	,	-13.245402	,	0
53,33	,	130200	,	-26714	,	-24364	,	-10.890625	,	-13.516681	,	0
53,33	,	130216	,	-26702	,	-24363	,	4.3828125	,	-13.503139	,	0
53,33	,	130248	,	-26698	,	-24350	,	7.0625	,	-12.936134	,	0
53,33	,	130264	,	-26672	,	-24350	,	30.945312	,	-11.467244	,	0
53,33	,	130280	,	-26670	,	-24370	,	23.664062	,	-8.746241	,	1
53,33	,	130312	,	-26668	,	-24332	,	18.5625	,	-4.71894	,	3
53,33	,	130328	,	-26666	,	-24356	,	14.9921875	,	0.1711998	,	7
53,33	,	130344	,	-26677	,	-24361	,	-0.5078125	,	5.145697	,	11
53,33	,	130376	,	-26661	,	-24354	,	15.6484375	,	9.426357	,	15
53,33	,	130392	,	-26663	,	-24351	,	8.953125	,	12.572616	,	19
53,33	,	130424	,	-26650	,	-24351	,	19.265625	,	14.563016	,	22
53,33	,	130440	,	-26654	,	-24348	,	9.4921875	,	15.601364	,	23
53,33	,	130456	,	-26660	,	-24357	,	0.640625	,	15.852705	,	24
53,33	,	130488	,	-26646	,	-24361	,	14.453125	,	15.374897	,	23
53,33	,	130504	,	-26653	,	-24341	,	3.109375	,	14.315284	,	21
53,33	,	130520	,	-26656	,	-24351	,	-0.8203125	,	12.873272	,	17
53,33	,	130552	,	-26643	,	-24339	,	12.4296875	,	11.190549	,	13
53,33	,	130568	,	-26644	,	-24340	,	7.6953125	,	9.492687	,	9
53,33	,	130584	,	-26641	,	-24348	,	8.3828125	,	8.043068	,	5
53,33	,	130616	,	-26654	,	-24350	,	-7.125	,	6.9037843	,	2
53,33	,	130632	,	-26648	,	-24346	,	1.015625	,	5.9054856	,	1
53,33	,	130664	,	-26658	,	-24347	,	-9.296875	,	4.8380947	,	0
53,33	,	130680	,	-26648	,	-24348	,	3.5	,	3.6132436	,	0
53,33	,	130696	,	-26652	,	-24359	,	-1.5546875	,	2.312269	,	0
53,33	,	130728	,	-26656	,	-24370	,	-5.0859375	,	1.0836148	,	0
53,33	,	130744	,	-26661	,	-24344	,	-8.5625	,	-0.040745616	,	0
53,33	,	130760	,	-26660	,	-24359	,	-5.0	,	-1.1268073	,	0
53,33	,	130792	,	-26664	,	-24352	,	-7.5	,	-2.1999066	,	0
53,34	,	130808	,	-26669	,	-24360	,	-10.25	,	-3.2479663	,	0
53,34	,	130840	,	-26672	,	-24366	,	-10.171875	,	-4.2871165	,	0
53,34	,	130856	,	-26674	,	-24372	,	-9.1171875	,	-5.3347282	,	0
53,34	,	130872	,	-26673	,	-24362	,	-5.3828125	,	-6.3385034	,	0
53,34	,	130904	,	-26687	,	-24362	,	-17.765625	,	-7.229806	,	0
53,34	,	130920	,	-26687	,	-24355	,	-12.4375	,	-8.048492	,	0
53,34	,	130936	,	-26687	,	-24374	,	-8.703125	,	-8.856903	,	0
53,34	,	130968	,	-26693	,	-24392	,	-12.09375	,	-9.603463	,	0
53,34	,	130984	,	-26703	,	-24365	,	-18.46875	,	-10.2515955	,	0
53,34	,	131000	,	-26706	,	-24370	,	-15.921875	,	-10.886679	,	0
53,34	,	131032	,	-26715	,	-24385	,	-20.15625	,	-11.613015	,	0
53,34	,	131048	,	-26717	,	-24368	,	-16.109375	,	-12.473603	,	0
53,34	,	131080	,	-26716	,	-24372	,	-10.265625	,	-13.402784	,	0
53,34	,	131096	,	-26712	,	-24379	,	-3.1875	,	-14.169544	,	0
53,34	,	131112	,	-26723	,	-24377	,	-13.234375	,	-14.508732	,	0
53,34	,	131144	,	-26722	,	-24375	,	-8.265625	,	-14.350431	,	0
53,34	,	131160	,	-26719	,	-24373	,	-2.78125	,	-13.7666645	,	0
53,34	,	131175	,	-26698	,	-24377	,	19.046875	,	-12.679913	,	0
53,34	,	131208	,	-26697	,	-24391	,	14.3359375	,	-10.799708	,	1
53,34	,	131224	,	-26687	,	-24361	,	20.039062	,	-7.9180536	,	2
53,34	,	131256	,	-26679	,	-24367	,	22.023438	,	-4.1028075	,	4
53,34	,	131271	,	-26687	,	-24375	,	7.4140625	,	0.31943893	,	7
53,34	,	131287	,	-26684	,	-24374	,	8.1875	,	4.766016	,	11
53,34	,	131319	,	-26691	,	-24365	,	-1.265625	,	8.556905	,	15
53,34	,	131335	,	-26692	,	-24367	,	-1.890625	,	11.161354	,	18
53,34	,	131351	,	-26687	,	-24368	,	3.6875	,	12.34094	,	20
53,34	,	131384	,	-26679	,	-24373	,	10.578125	,	12.243546	,	21
53,34	,	131400	,	-26681	,	-24376	,	5.40625	,	11.305532	,	20
53,34	,	131431	,	-26706	,	-24385	,	-21.21875	,	9.841377	,	19
53,34	,	131447	,	-26692	,	-24366	,	-0.859375	,	7.8398976	,	17
53,34	,	131463	,	-26688	,	-24371	,	3.40625	,	5.387639	,	14
53,34	,	131495	,	-26690	,	-24370	,	0.3828125	,	2.9035473	,	10
53,34	,	131511	,	-26681	,	-24378	,	9.265625	,	0.82794595	,	6
53,34	,	131527	,	-26686	,	-24378	,	1.4921875	,	-0.56589794	,	3
53,34	,	131560	,	-26689	,	-24371	,	-1.9609375	,	-1.2296	,	1
53,34	,	131575	,	-26687	,	-24380	,	0.6328125	,	-1.3418523	,	0
53,34	,	131592	,	-26692	,	-24373	,	-4.5625	,	-1.1533424	,	0
53,34	,	131623	,	-26689	,	-24375	,	-0.1875	,	-0.8761278	,	0
53,34	,	131639	,	-26689	,	-24375	,	-0.140625	,	-0.6312338	,	0
53,34	,	131671	,	-26693	,	-24390	,	-4.09375	,	-0.46001852	,	0
53,34	,	131687	,	-26690	,	-24374	,	0.1328125	,	-0.39387912	,	0
53,34	,	131703	,	-26708	,	-24374	,	-17.90625	,	-0.5126976	,	0
53,34	,	131735	,	-26718	,	-24393	,	-22.539062	,	-1.0451381	,	0
53,34	,	131751	,	-26719	,	-24391	,	-16.773438	,	-2.2701168	,	0
53,34	,	131767	,	-26726	,	-24388	,	-18.742188	,	-4.2238054	,	0
53,34	,	131799	,	-26722	,	-24389	,	-9.1171875	,	-6.6411896	,	0
53,35	,	131815	,	-26729	,	-24392	,	-13.3828125	,	-9.113045	,	0
53,35	,	131847	,	-26720	,	-24382	,	-0.3671875	,	-11.219683	,	0
53,35	,	131863	,	-26740	,	-24388	,	-20.257812	,	-12.674425	,	0
53,35	,	131879	,	-26738	,	-24411	,	-12.1796875	,	-13.486111	,	0
53,35	,	131911	,	-26736	,	-24405	,	-6.5234375	,	-13.824314	,	0
53,35	,	131927	,	-26743	,	-24381	,	-11.5703125	,	-13.760718	,	0
53,35	,	131943	,	-26755	,	-24397	,	-20.101562	,	-13.394213	,	0
53,35	,	131975	,	-26750	,	-24406	,	-9.0625	,	-12.95822	,	0
53,35	,	131991	,	-26749	,	-24398	,	-5.34375	,	-12.567339	,	0
53,35	,	132007	,	-26759	,	-24406	,	-13.75	,	-12.149061	,	0
53,35	,	132039	,	-26753	,	-24410	,	-3.625	,	-11.646662	,	0
53,35	,	132055	,	-26748	,	-24407	,	2.46875	,	-10.996025	,	0
53,35	,	132087	,	-26737	,	-24405	,	12.7265625	,	-9.994465	,	0
53,35	,	132103	,	-26725	,	-24395	,	20.90625	,	-8.34746	,	1
53,35	,	132119	,	-26721	,	-24402	,	18.632812	,	-5.8241787	,	2
53,35	,	132151	,	-26732	,	-24420	,	2.046875	,	-2.5133138	,	4
53,35	,	132167	,	-26719	,	-24382	,	14.4375	,	1.114465	,	7
53,35	,	132183	,	-26719	,	-24393	,	10.1015625	,	4.5577793	,	10
53,35	,	132215	,	-26715	,	-24392	,	11.0703125	,	7.5266275	,	13
53,35	,	132231	,	-26715	,	-24383	,	7.75	,	9.853384	,	15
53,35	,	132263	,	-26724	,	-24394	,	-3.578125	,	11.376739	,	17
53,35	,	132279	,	-26718	,	-24397	,	3.5	,	11.941433	,	18
53,35	,	132295	,	-26715	,	-24407	,	5.453125	,	11.559254	,	17
53,35	,	132327	,	-26722	,	-24409	,	-3.1875	,	10.44887	,	16
53,35	,	132343	,	-26728	,	-24399	,	-8.234375	,	8.805101	,	14
53,35	,	132359	,	-26704	,	-24394	,	18.234375	,	6.8262615	,	11
53,35	,	132391	,	-26713	,	-24415	,	3.765625	,	4.9306965	,	8
53,35	,	132407	,	-26715	,	-24391	,	0.640625	,	3.490243	,	5
53,35	,	132438	,	-26728	,	-24395	,	-12.5546875	,	2.4615586	,	3
53,35	,	132454	,	-26734	,	-24394	,	-14.7890625	,	1.493135	,	1
53,35	,	132471	,	-26728	,	-24395	,	-4.3515625	,	0.27970207	,	0
53,35	,	132503	,	-26733	,	-24391	,	-8.046875	,	-1.1938367	,	0
53,35	,	132519	,	-26738	,	-24402	,	-10.6328125	,	-2.7650855	,	0
53,35	,	132535	,	-26741	,	-24400	,	-10.4375	,	-4.3184795	,	0
53,35	,	132567	,	-26739	,	-24396	,	-5.3125	,	-5.7678885	,	0
53,35	,	132582	,	-26748	,	-24401	,	-12.71875	,	-7.0083375	,	0
53,35	,	132598	,	-26745	,	-24385	,	-5.90625	,	-7.9761853	,	0
53,35	,	132630	,	-26747	,	-24413	,	-6.125	,	-8.634773	,	0
53,35	,	132646	,	-26761	,	-24397	,	-18.296875	,	-9.003035	,	0
53,35	,	132679	,	-26757	,	-24405	,	-8.796875	,	-9.232458	,	0
53,35	,	132695	,	-26761	,	-24423	,	-10.1640625	,	-9.453287	,	0
53,35	,	132711	,	-26777	,	-24410	,	-23.117188	,	-9.725273	,	0
53,35	,	132742	,	-26774	,	-24408	,	-13.1796875	,	-10.175343	,	0
53,35	,	132758	,	-26778	,	-24414	,	-13.2265625	,	-10.8662405	,	0
53,35	,	132774	,	-26778	,	-24407	,	-9.2578125	,	-11.657902	,	0
53,36	,	132807	,	-26780	,	-24412	,	-8.4765625	,	-12.326491	,	0
53,36	,	132823	,	-26777	,	-24419	,	-2.9375	,	-12.663658	,	0
53,36	,	132854	,	-26794	,	-24424	,	-19.054688	,	-12.581042	,	0
53,36	,	132870	,	-26778	,	-24420	,	2.6640625	,	-12.167748	,	0
53,36	,	132887	,	-26782	,	-24420	,	-2.140625	,	-11.473997	,	0
53,36	,	132918	,	-26794	,	-24425	,	-13.5	,	-10.49151	,	0
53,36	,	132934	,	-26795	,	-24426	,	-10.4453125	,	-9.405073	,	0
53,36	,	132950	,	-26792	,	-24419	,	-4.3125	,	-8.466039	,	1
53,36	,	132982	,	-26791	,	-24420	,	-2.0234375	,	-7.7157373	,	1
53,36	,	132999	,	-26786	,	-24413	,	3.59375	,	-7.0152254	,	1
53,36	,	133014	,	-26775	,	-24435	,	13.515625	,	-6.1401834	,	1
53,36	,	133046	,	-26757	,	-24412	,	27.453125	,	-4.758964	,	1
53,36	,	133062	,	-26763	,	-24419	,	13.21875	,	-2.559956	,	2
53,36	,	133094	,	-26749	,	-24423	,	23.25	,	0.46783948	,	4
53,36	,	133110	,	-26745	,	-24402	,	20.28125	,	4.0607696	,	7
53,36	,	133126	,	-26751	,	-24412	,	8.1953125	,	7.8322964	,	10
53,36	,	133158	,	-26756	,	-24417	,	0.734375	,	11.221003	,	12
53,36	,	133174	,	-26749	,	-24404	,	7.515625	,	13.637389	,	15
53,36	,	133190	,	-26751	,	-24418	,	3.2578125	,	14.797685	,	17
53,36	,	133222	,	-26764	,	-24411	,	-10.71875	,	14.693354	,	18
53,36	,	133238	,	-26752	,	-24410	,	4.5	,	13.409949	,	18
53,36	,	133270	,	-26753	,	-24412	,	2.1484375	,	11.234276	,	17
53,36	,	133286	,	-26756	,	-24402	,	-1.4921875	,	8.6389065	,	15
53,36	,	133302	,	-26754	,	-24409	,	0.953125	,	6.0199003	,	12
53,36	,	133334	,	-26745	,	-24432	,	9.671875	,	3.671513	,	9
53,36	,	133350	,	-26750	,	-24390	,	1.765625	,	1.8622189	,	6
53,36	,	133366	,	-26747	,	-24395	,	4.234375	,	0.72285223	,	3
53,36	,	133398	,	-26738	,	-24410	,	11.96875	,	0.24255836	,	1
53,36	,	133414	,	-26755	,	-24411	,	-8.625	,	0.32913995	,	0
53,36	,	133430	,	-26758	,	-24410	,	-9.0390625	,	0.67197996	,	0
53,36	,	133462	,	-26745	,	-24402	,	6.671875	,	0.8860107	,	0
53,36	,	133478	,	-26763	,	-24410	,	-13.328125	,	0.82378334	,	0
53,36	,	133510	,	-26773	,	-24408	,	-19.328125	,	0.3775938	,	0
53,36	,	133526	,	-26762	,	-24404	,	-2.53125	,	-0.6207505	,	0
53,36	,	133542	,	-26763	,	-24404	,	-2.7734375	,	-2.0464785	,	0
53,36	,	133574	,	-26774	,	-24430	,	-12.9375	,	-3.5436676	,	0
53,36	,	133590	,	-26763	,	-24394	,	1.9375	,	-4.874869	,	0
53,36	,	133606	,	-26770	,	-24414	,	-5.640625	,	-5.8941097	,	0
53,36	,	133638	,	-26772	,	-24419	,	-5.953125	,	-6.4984155	,	0
53,36	,	133654	,	-26776	,	-24412	,	-8.15625	,	-6.729171	,	0
53,36	,	133686	,	-26788	,	-24418	,	-17.71875	,	-6.7792025	,	0
53,36	,	133702	,	-26793	,	-24411	,	-17.398438	,	-6.9410753	,	0
53,36	,	133718	,	-26789	,	-24417	,	-8.1796875	,	-7.425392	,	0
53,36	,	133750	,	-26792	,	-24412	,	-8.7265625	,	-8.168772	,	0
53,36	,	133766	,	-26797	,	-24414	,	-11.109375	,	-8.952298	,	0
53,36	,	133782	,	-26797	,	-24415	,	-7.7734375	,	-9.616947	,	0
53,37	,	133814	,	-26801	,	-24440	,	-9.4375	,	-10.079711	,	0
53,37	,	133830	,	-26808	,	-24409	,	-13.609375	,	-10.325512	,	0
53,37	,	133846	,	-26813	,	-24415	,	-14.53125	,	-10.448444	,	0
53,37	,	133878	,	-26806	,	-24419	,	-3.171875	,	-10.538345	,	0
53,37	,	133894	,	-26818	,	-24420	,	-14.21875	,	-10.568819	,	0
53,37	,	133926	,	-26818	,	-24428	,	-9.953125	,	-10.517857	,	0
53,37	,	133942	,	-26798	,	-24425	,	13.03125	,	-10.319161	,	0
53,37	,	133958	,	-26792	,	-24409	,	15.125	,	-9.632958	,	0
53,37	,	133990	,	-26787	,	-24412	,	15.5859375	,	-8.046858	,	0
53,37	,	134006	,	-26775	,	-24409	,	22.914062	,	-5.422368	,	1
53,37	,	134022	,	-26775	,	-24404	,	16.03125	,	-1.9005828	,	3
53,37	,	134054	,	-26761	,	-24411	,	25.226562	,	2.2144024	,	6
53,37	,	134070	,	-26771	,	-24400	,	7.6640625	,	6.507015	,	10
53,37	,	134102	,	-26762	,	-24404	,	14.359375	,	10.463614	,	14
53,37	,	134118	,	-26776	,	-24413	,	-3.953125	,	13.55816	,	17
53,37	,	134134	,	-26777	,	-24410	,	-3.765625	,	15.352657	,	20
53,37	,	134166	,	-26766	,	-24409	,	8.3671875	,	15.651371	,	21
53,37	,	134182	,	-26780	,	-24404	,	-8.140625	,	14.619728	,	21
53,37	,	134198	,	-26778	,	-24404	,	-3.6953125	,	12.5666275	,	20
53,37	,	134230	,	-26778	,	-24402	,	-2.59375	,	9.799113	,	18
53,37	,	134246	,	-26760	,	-24411	,	16.1875	,	6.790278	,	15
53,37	,	134277	,	-26775	,	-24412	,	-3.671875	,	4.1239934	,	11
53,37	,	134294	,	-26768	,	-24399	,	4.4375	,	2.1373782	,	7
53,37	,	134310	,	-26763	,	-24410	,	8.1015625	,	0.87531996	,	4
53,37	,	134342	,	-26767	,	-24400	,	1.671875	,	0.30873263	,	1
53,37	,	134358	,	-26765	,	-24398	,	3.1640625	,	0.32050157	,	0
53,37	,	134374	,	-26775	,	-24399	,	-7.78125	,	0.6508149	,	0
53,37	,	134406	,	-26753	,	-24399	,	16.554688	,	1.070449	,	0
53,37	,	134421	,	-26775	,	-24402	,	-10.4140625	,	1.5107168	,	0
53,37	,	134437	,	-26779	,	-24397	,	-11.2890625	,	1.8233035	,	0
53,37	,	134470	,	-26769	,	-24400	,	2.1015625	,	1.736583	,	0
53,37	,	134486	,	-26775	,	-24404	,	-4.53125	,	1.2166038	,	0
53,37	,	134518	,	-26773	,	-24421	,	-1.171875	,	0.45499855	,	0
53,37	,	134534	,	-26786	,	-24403	,	-13.8203125	,	-0.42410874	,	0
53,37	,	134550	,	-26781	,	-24402	,	-4.6796875	,	-1.4223111	,	0
53,37	,	134581	,	-26786	,	-24410	,	-8.265625	,	-2.5286615	,	0
53,37	,	134597	,	-26799	,	-24412	,	-18.796875	,	-3.7106042	,	0
53,37	,	134613	,	-26805	,	-24404	,	-19.15625	,	-5.056157	,	0
53,37	,	134645	,	-26801	,	-24414	,	-9.40625	,	-6.654425	,	0
53,37	,	134662	,	-26792	,	-24411	,	2.421875	,	-8.307363	,	0
53,37	,	134693	,	-26802	,	-24413	,	-8.3125	,	-9.602063	,	0
53,37	,	134709	,	-26798	,	-24412	,	-1.8125	,	-10.264619	,	0
53,37	,	134725	,	-26811	,	-24421	,	-14.2734375	,	-10.307994	,	0
53,37	,	134758	,	-26807	,	-24434	,	-5.9921875	,	-9.938786	,	0
53,37	,	134774	,	-26815	,	-24396	,	-12.1875	,	-9.3993225	,	0
53,37	,	134790	,	-26817	,	-24408	,	-10.53125	,	-8.878466	,	0
53,38	,	134821	,	-26815	,	-24406	,	-5.375	,	-8.485397	,	0
53,38	,	134837	,	-26793	,	-24401	,	18.234375	,	-8.086256	,	0
53,38	,	134853	,	-26774	,	-24404	,	31.765625	,	-7.162218	,	0
53,38	,	134885	,	-26776	,	-24399	,	20.234375	,	-5.1140175	,	0
53,38	,	134901	,	-26775	,	-24402	,	15.1640625	,	-1.8264246	,	2
53,38	,	134933	,	-26756	,	-24393	,	29.617188	,	2.3070564	,	5
53,38	,	134949	,	-26771	,	-24386	,	5.734375	,	6.7533445	,	9
53,38	,	134965	,	-26762	,	-24390	,	13.015625	,	10.908871	,	13
53,38	,	134997	,	-26766	,	-24414	,	5.109375	,	14.185471	,	17
53,38	,	135013	,	-26763	,	-24379	,	6.578125	,	16.231178	,	20
53,38	,	135030	,	-26772	,	-24384	,	-4.40625	,	16.915539	,	22
53,38	,	135061	,	-26768	,	-24395	,	0.921875	,	16.248867	,	22
53,38	,	135077	,	-26767	,	-24383	,	1.640625	,	14.428579	,	22
53,38	,	135109	,	-26773	,	-24401	,	-4.84375	,	11.823679	,	20
53,38	,	135125	,	-26773	,	-24395	,	-3.390625	,	8.814148	,	17
53,38	,	135141	,	-26773	,	-24387	,	-2.375	,	5.717609	,	13
53,38	,	135173	,	-26765	,	-24399	,	6.3359375	,	2.859151	,	9
53,38	,	135189	,	-26765	,	-24387	,	4.4296875	,	0.5806322	,	5
53,38	,	135205	,	-26758	,	-24386	,	10.109375	,	-0.8563757	,	2
53,38	,	135237	,	-26760	,	-24408	,	5.078125	,	-1.3548129	,	0
53,38	,	135253	,	-26757	,	-24380	,	6.546875	,	-1.009916	,	0
53,38	,	135269	,	-26778	,	-24388	,	-16.414062	,	-0.16535923	,	0
53,38	,	135301	,	-26775	,	-24388	,	-8.4921875	,	0.6098827	,	0
53,38	,	135317	,	-26772	,	-24385	,	-2.9375	,	0.86579037	,	0
53,38	,	135349	,	-26772	,	-24387	,	-2.0625	,	0.5700791	,	0
53,38	,	135365	,	-26764	,	-24401	,	6.5625	,	-0.019131273	,	0
53,38	,	135381	,	-26777	,	-24391	,	-8.40625	,	-0.62968457	,	0
53,38	,	135413	,	-26784	,	-24390	,	-12.890625	,	-1.2120831	,	0
53,38	,	135429	,	-26777	,	-24398	,	-2.0234375	,	-1.8970891	,	0
53,38	,	135445	,	-26788	,	-24392	,	-12.4140625	,	-2.7308185	,	0
53,38	,	135477	,	-26786	,	-24418	,	-6.6875	,	-3.6667857	,	0
53,38	,	135493	,	-26788	,	-24393	,	-6.6875	,	-4.6384315	,	0
53,38	,	135525	,	-26800	,	-24398	,	-16.679688	,	-5.5814342	,	0
53,38	,	135541	,	-26808	,	-24396	,	-19.679688	,	-6.563599	,	0
53,38	,	135557	,	-26806	,	-24402	,	-11.765625	,	-7.7198	,	0
53,38	,	135589	,	-26803	,	-24399	,	-5.2421875	,	-8.985602	,	0
53,38	,	135605	,	-26809	,	-24394	,	-9.6640625	,	-10.096378	,	0
53,38	,	135621	,	-26805	,	-24402	,	-2.765625	,	-10.81333	,	0
53,38	,	135653	,	-26808	,	-24406	,	-4.9375	,	-11.006252	,	0
53,38	,	135669	,	-26814	,	-24408	,	-9.453125	,	-10.672968	,	0
53,38	,	135685	,	-26804	,	-24407	,	3.375	,	-9.928846	,	0
53,38	,	135717	,	-26802	,	-24416	,	4.359375	,	-8.834925	,	0
53,38	,	135733	,	-26797	,	-24399	,	8.0625	,	-7.3432875	,	1
53,38	,	135765	,	-26786	,	-24381	,	16.640625	,	-5.392347	,	2
53,38	,	135781	,	-26767	,	-24388	,	30.640625	,	-2.8665643	,	3
53,38	,	135797	,	-26757	,	-24383	,	31.453125	,	0.42720008	,	5
53,39	,	135829	,	-26756	,	-24382	,	23.015625	,	4.53034	,	8
53,39	,	135845	,	-26759	,	-24382	,	13.109375	,	9.079572	,	12
53,39	,	135860	,	-26750	,	-24384	,	18.179688	,	13.422912	,	16
53,39	,	135893	,	-26743	,	-24379	,	19.726562	,	17.02199	,	20
53,39	,	135909	,	-26748	,	-24377	,	8.8125	,	19.607037	,	23
53,39	,	135941	,	-26757	,	-24380	,	-2.8359375	,	20.969215	,	24
53,39	,	135957	,	-26741	,	-24374	,	14.015625	,	20.960632	,	24
53,39	,	135973	,	-26752	,	-24374	,	-1.1875	,	19.720364	,	23
53,39	,	136004	,	-26743	,	-24373	,	8.1640625	,	17.592117	,	21
53,39	,	136020	,	-26735	,	-24378	,	13.71875	,	14.992741	,	18
53,39	,	136036	,	-26728	,	-24382	,	16.601562	,	12.443716	,	14
53,39	,	136069	,	-26735	,	-24371	,	4.6171875	,	10.377042	,	10
53,39	,	136085	,	-26734	,	-24370	,	4.234375	,	8.881939	,	6
53,39	,	136101	,	-26731	,	-24368	,	5.96875	,	7.801607	,	3
53,39	,	136133	,	-26730	,	-24378	,	5.171875	,	6.9856267	,	1
53,39	,	136148	,	-26739	,	-24361	,	-5.375	,	6.313227	,	0
53,39	,	136180	,	-26727	,	-24388	,	8.234375	,	5.6517296	,	0
53,39	,	136196	,	-26732	,	-24362	,	0.765625	,	4.966673	,	0
53,39	,	136212	,	-26735	,	-24379	,	-2.46875	,	4.286097	,	0
53,39	,	136244	,	-26734	,	-24357	,	-0.71875	,	3.577188	,	0
53,39	,	136260	,	-26743	,	-24367	,	-9.5078125	,	2.775022	,	0
53,39	,	136277	,	-26728	,	-24368	,	8.34375	,	1.8683834	,	0
53,39	,	136309	,	-26745	,	-24360	,	-11.15625	,	0.9380976	,	0
53,39	,	136324	,	-26740	,	-24364	,	-2.8125	,	0.03302765	,	0
53,39	,	136356	,	-26738	,	-24376	,	0.03125	,	-0.84589505	,	0
53,39	,	136372	,	-26731	,	-24368	,	7.0234375	,	-1.569847	,	0
53,39	,	136388	,	-26742	,	-24375	,	-6.078125	,	-1.9694157	,	0
53,39	,	136420	,	-26745	,	-24393	,	-7.265625	,	-2.0895357	,	0
53,39	,	136436	,	-26753	,	-24360	,	-13.078125	,	-2.1924415	,	0
53,39	,	136452	,	-26748	,	-24378	,	-4.15625	,	-2.5194294	,	0
53,39	,	136484	,	-26756	,	-24372	,	-10.90625	,	-3.1213932	,	0
53,39	,	136500	,	-26760	,	-24368	,	-11.640625	,	-3.9404411	,	0
53,39	,	136532	,	-26759	,	-24375	,	-7.140625	,	-4.9169197	,	0
53,39	,	136548	,	-26761	,	-24383	,	-7.0	,	-5.943318	,	0
53,39	,	136564	,	-26763	,	-24389	,	-6.90625	,	-6.8640904	,	0
53,39	,	136596	,	-26774	,	-24381	,	-15.828125	,	-7.6001387	,	0
53,39	,	136612	,	-26775	,	-24388	,	-12.078125	,	-8.219738	,	0
53,39	,	136628	,	-26767	,	-24384	,	-0.4609375	,	-8.7757015	,	0
53,39	,	136660	,	-26760	,	-24394	,	6.6796875	,	-9.083001	,	0
53,39	,	136676	,	-26746	,	-24359	,	18.671875	,	-8.758722	,	0
53,39	,	136692	,	-26737	,	-24366	,	22.078125	,	-7.4154787	,	0
53,39	,	136724	,	-26706	,	-24371	,	46.453125	,	-4.733718	,	1
53,39	,	136740	,	-26727	,	-24354	,	11.515625	,	-0.6169019	,	3
53,39	,	136772	,	-26724	,	-24357	,	11.0625	,	4.427043	,	7
53,39	,	136788	,	-26722	,	-24356	,	9.734375	,	9.406614	,	12
53,40	,	136804	,	-26727	,	-24348	,	1.8203125	,	13.444867	,	16
53,40	,	136836	,	-26716	,	-24355	,	12.2734375	,	16.057102	,	20
53,40	,	136852	,	-26721	,	-24357	,	3.59375	,	17.164137	,	22
53,40	,	136868	,	-26729	,	-24354	,	-5.484375	,	16.909859	,	23
53,40	,	136900	,	-26727	,	-24385	,	-1.84375	,	15.445522	,	23
53,40	,	136916	,	-26726	,	-24346	,	-0.2890625	,	13.020058	,	22
53,40	,	136948	,	-26724	,	-24355	,	1.796875	,	10.053302	,	20
53,40	,	136964	,	-26711	,	-24359	,	14.2578125	,	7.062343	,	16
53,40	,	136980	,	-26714	,	-24345	,	6.984375	,	4.5739512	,	11
53,40	,	137012	,	-26709	,	-24346	,	9.890625	,	2.9295087	,	7
53,40	,	137028	,	-26717	,	-24357	,	-1.078125	,	2.1421947	,	3
53,40	,	137044	,	-26702	,	-24360	,	14.2421875	,	2.0271447	,	1
53,40	,	137076	,	-26714	,	-24349	,	-2.03125	,	2.3901162	,	0
53,40	,	137092	,	-26725	,	-24359	,	-12.421875	,	2.9299133	,	0
53,40	,	137108	,	-26700	,	-24355	,	16.304688	,	3.2877092	,	0
53,40	,	137140	,	-26709	,	-24357	,	2.4140625	,	3.4280658	,	0
53,40	,	137156	,	-26719	,	-24366	,	-8.3046875	,	3.4724364	,	0
53,40	,	137188	,	-26710	,	-24351	,	3.1875	,	3.3373084	,	0
53,40	,	137204	,	-26725	,	-24358	,	-12.7734375	,	2.8961535	,	0
53,40	,	137220	,	-26723	,	-24355	,	-6.9453125	,	2.085228	,	0
53,40	,	137252	,	-26728	,	-24355	,	-9.859375	,	0.8818289	,	0
53,40	,	137268	,	-26722	,	-24346	,	-0.90625	,	-0.59412265	,	0
53,40	,	137284	,	-26728	,	-24359	,	-6.625	,	-2.095467	,	0
53,40	,	137316	,	-26717	,	-24362	,	6.359375	,	-3.3587327	,	0
53,40	,	137332	,	-26732	,	-24357	,	-10.546875	,	-4.2032332	,	0
53,40	,	137364	,	-26729	,	-24360	,	-4.390625	,	-4.644924	,	0
53,40	,	137380	,	-26736	,	-24358	,	-10.0625	,	-4.86128	,	0
53,40	,	137395	,	-26736	,	-24356	,	-7.046875	,	-5.030195	,	0
53,40	,	137428	,	-26750	,	-24376	,	-18.9375	,	-5.304007	,	0
53,40	,	137444	,	-26744	,	-24373	,	-7.25	,	-5.815148	,	0
53,40	,	137460	,	-26755	,	-24357	,	-16.078125	,	-6.592246	,	0
53,40	,	137492	,	-26739	,	-24375	,	4.75	,	-7.4994526	,	0
53,40	,	137508	,	-26718	,	-24361	,	24.320312	,	-8.109131	,	0
53,40	,	137524	,	-26707	,	-24364	,	28.023438	,	-7.7034655	,	0
53,40	,	137556	,	-26701	,	-24340	,	25.617188	,	-5.719884	,	0
53,40	,	137572	,	-26692	,	-24345	,	26.929688	,	-2.139549	,	1
53,40	,	137604	,	-26694	,	-24354	,	16.851562	,	2.5651717	,	4
53,40	,	137619	,	-26696	,	-24334	,	9.796875	,	7.6149745	,	8
53,40	,	137635	,	-26680	,	-24341	,	22.859375	,	12.214934	,	13
53,40	,	137668	,	-26688	,	-24343	,	8.0	,	15.869653	,	17
53,40	,	137683	,	-26685	,	-24339	,	8.6015625	,	18.330688	,	20
53,40	,	137699	,	-26687	,	-24347	,	4.015625	,	19.446274	,	22
53,40	,	137732	,	-26693	,	-24343	,	-3.1875	,	19.187393	,	23
53,40	,	137748	,	-26690	,	-24348	,	0.765625	,	17.655079	,	23
53,40	,	137779	,	-26678	,	-24335	,	12.546875	,	15.165547	,	22
53,40	,	137795	,	-26688	,	-24322	,	-1.21875	,	12.252474	,	19
53,41	,	137811	,	-26685	,	-24331	,	2.140625	,	9.367298	,	15
53,41	,	137843	,	-26676	,	-24341	,	10.5	,	6.7790375	,	10
53,41	,	137859	,	-26677	,	-24318	,	6.3515625	,	4.734222	,	6
53,41	,	137875	,	-26685	,	-24331	,	-3.5546875	,	3.3564773	,	3
53,41	,	137907	,	-26680	,	-24318	,	2.515625	,	2.512345	,	1
53,41	,	137924	,	-26682	,	-24332	,	-0.2421875	,	1.9892473	,	0
53,41	,	137939	,	-26676	,	-24336	,	5.828125	,	1.6733603	,	0
53,41	,	137971	,	-26689	,	-24332	,	-8.9140625	,	1.4905454	,	0
53,41	,	137987	,	-26690	,	-24332	,	-7.25	,	1.2698507	,	0
53,41	,	138019	,	-26686	,	-24330	,	-1.0703125	,	0.8276317	,	0
53,41	,	138035	,	-26694	,	-24336	,	-8.75	,	0.13871068	,	0
53,41	,	138051	,	-26691	,	-24330	,	-3.125	,	-0.72356844	,	0
53,41	,	138083	,	-26705	,	-24352	,	-16.1875	,	-1.7230527	,	0
53,41	,	138099	,	-26692	,	-24316	,	1.671875	,	-2.846507	,	0
53,41	,	138115	,	-26703	,	-24341	,	-9.8359375	,	-3.9895027	,	0
53,41	,	138147	,	-26703	,	-24331	,	-6.875	,	-5.004081	,	0
53,41	,	138163	,	-26702	,	-24331	,	-3.8125	,	-5.8096385	,	0
53,41	,	138195	,	-26714	,	-24337	,	-14.671875	,	-6.390484	,	0
53,41	,	138211	,	-26713	,	-24345	,	-9.2734375	,	-6.8336887	,	0
53,41	,	138227	,	-26723	,	-24344	,	-16.492188	,	-7.2929897	,	0
53,41	,	138259	,	-26717	,	-24340	,	-5.546875	,	-7.848628	,	0
53,41	,	138275	,	-26714	,	-24332	,	-0.875	,	-8.3945055	,	0
53,41	,	138291	,	-26716	,	-24342	,	-2.6171875	,	-8.6763525	,	0
53,41	,	138323	,	-26725	,	-24359	,	-10.8359375	,	-8.554662	,	0
53,41	,	138339	,	-26716	,	-24333	,	1.421875	,	-8.107645	,	0
53,41	,	138371	,	-26703	,	-24337	,	13.9921875	,	-7.356639	,	0
53,41	,	138387	,	-26691	,	-24332	,	21.796875	,	-6.0660534	,	0
53,41	,	138403	,	-26676	,	-24330	,	30.257812	,	-3.8898356	,	1
53,41	,	138435	,	-26680	,	-24323	,	17.179688	,	-0.6699166	,	3
53,41	,	138451	,	-26666	,	-24325	,	26.023438	,	3.381695	,	6
53,41	,	138467	,	-26656	,	-24325	,	28.21875	,	7.8574834	,	10
53,41	,	138499	,	-26668	,	-24322	,	7.75	,	12.314191	,	14
53,41	,	138515	,	-26658	,	-24327	,	15.421875	,	16.188225	,	18
53,41	,	138531	,	-26665	,	-24307	,	3.796875	,	18.939537	,	21
53,41	,	138563	,	-26661	,	-24332	,	6.65625	,	20.269386	,	23
53,41	,	138579	,	-26658	,	-24315	,	7.6640625	,	20.157984	,	24
53,41	,	138611	,	-26659	,	-24312	,	4.3671875	,	18.845215	,	23
53,41	,	138627	,	-26657	,	-24317	,	5.0546875	,	16.700386	,	21
53,41	,	138643	,	-26663	,	-24312	,	-2.4609375	,	14.070485	,	18
53,41	,	138675	,	-26640	,	-24320	,	21.28125	,	11.315556	,	14
53,41	,	138691	,	-26647	,	-24303	,	7.890625	,	8.897821	,	10
53,41	,	138707	,	-26637	,	-24312	,	15.53125	,	7.198353	,	6
53,41	,	138739	,	-26644	,	-24324	,	3.8671875	,	6.297755	,	3
53,41	,	138755	,	-26641	,	-24310	,	5.7109375	,	6.00924	,	1
53,41	,	138787	,	-26652	,	-24315	,	-7.0078125	,	5.983803	,	0
53,41	,	138803	,	-26643	,	-24312	,	4.09375	,	5.863764	,	0
53,42	,	138819	,	-26639	,	-24301	,	6.8671875	,	5.50813	,	0
53,42	,	138851	,	-26646	,	-24295	,	-2.1875	,	4.996743	,	0
53,42	,	138867	,	-26648	,	-24310	,	-3.53125	,	4.3766932	,	0
53,42	,	138883	,	-26655	,	-24313	,	-9.4765625	,	3.5652742	,	0
53,42	,	138915	,	-26645	,	-24304	,	3.3671875	,	2.5081744	,	0
53,42	,	138931	,	-26650	,	-24309	,	-2.640625	,	1.3214009	,	0
53,42	,	138947	,	-26658	,	-24309	,	-9.8515625	,	0.16544473	,	0
53,42	,	138979	,	-26651	,	-24316	,	0.1015625	,	-0.9169632	,	0
53,42	,	138995	,	-26645	,	-24310	,	6.078125	,	-1.8445339	,	0
53,42	,	139027	,	-26654	,	-24326	,	-4.75	,	-2.4389536	,	0
53,42	,	139043	,	-26655	,	-24308	,	-4.328125	,	-2.6681638	,	0
53,42	,	139059	,	-26666	,	-24320	,	-14.03125	,	-2.736452	,	0
53,42	,	139091	,	-26669	,	-24312	,	-12.8125	,	-2.9472895	,	0
53,42	,	139107	,	-26679	,	-24319	,	-18.96875	,	-3.5522923	,	0
53,42	,	139123	,	-26665	,	-24311	,	0.71875	,	-4.5940733	,	0
53,42	,	139155	,	-26684	,	-24316	,	-18.5	,	-5.8794928	,	0
53,42	,	139170	,	-26684	,	-24323	,	-12.953125	,	-7.2253537	,	0
53,42	,	139203	,	-26682	,	-24334	,	-7.0625	,	-8.545031	,	0
53,42	,	139219	,	-26692	,	-24321	,	-14.9453125	,	-9.715229	,	0
53,42	,	139235	,	-26689	,	-24318	,	-7.4609375	,	-10.626877	,	0
53,42	,	139267	,	-26683	,	-24340	,	0.78125	,	-11.183247	,	0
53,42	,	139283	,	-26677	,	-24305	,	6.546875	,	-11.186518	,	0
53,42	,	139299	,	-26648	,	-24309	,	33.578125	,	-10.294495	,	0
53,42	,	139330	,	-26645	,	-24305	,	26.5	,	-8.070255	,	0
53,42	,	139346	,	-26637	,	-24317	,	26.554688	,	-4.3189764	,	2
53,42	,	139362	,	-26629	,	-24309	,	26.585938	,	0.6623559	,	5
53,42	,	139394	,	-26628	,	-24300	,	19.609375	,	6.2565165	,	9
53,42	,	139411	,	-26633	,	-24301	,	8.734375	,	11.698549	,	14
53,42	,	139443	,	-26635	,	-24306	,	4.109375	,	16.17424	,	19
53,42	,	139459	,	-26627	,	-24301	,	10.875	,	19.08705	,	23
53,42	,	139475	,	-26645	,	-24304	,	-10.390625	,	20.208366	,	25
53,42	,	139506	,	-26638	,	-24328	,	-0.265625	,	19.539948	,	26
53,42	,	139522	,	-26644	,	-24280	,	-6.1875	,	17.287529	,	26
53,42	,	139538	,	-26631	,	-24298	,	8.671875	,	13.9468775	,	24
53,42	,	139570	,	-26631	,	-24304	,	6.0625	,	10.22601	,	21
53,42	,	139586	,	-26625	,	-24311	,	10.25	,	6.8283987	,	17
53,42	,	139618	,	-26629	,	-24305	,	3.171875	,	4.216538	,	12
53,42	,	139634	,	-26624	,	-24311	,	7.21875	,	2.5313725	,	7
53,42	,	139651	,	-26619	,	-24305	,	10.0546875	,	1.7266531	,	3
53,42	,	139683	,	-26628	,	-24299	,	-1.9609375	,	1.6663438	,	1
53,42	,	139698	,	-26617	,	-24302	,	9.625	,	2.1076884	,	0
53,42	,	139714	,	-26626	,	-24309	,	-2.265625	,	2.777135	,	0
53,42	,	139746	,	-26633	,	-24329	,	-8.578125	,	3.3841357	,	0
53,42	,	139762	,	-26636	,	-24288	,	-9.0078125	,	3.580914	,	0
53,42	,	139778	,	-26640	,	-24316	,	-10.3046875	,	3.1133504	,	0
53,43	,	139810	,	-26649	,	-24311	,	-16.21875	,	1.9137226	,	0
53,43	,	139826	,	-26643	,	-24315	,	-5.34375	,	0.07572055	,	0
53,43	,	139858	,	-26639	,	-24299	,	0.25	,	-2.0812016	,	0
53,43	,	139875	,	-26658	,	-24305	,	-18.820312	,	-4.154411	,	0
53,43	,	139890	,	-26655	,	-24318	,	-10.171875	,	-5.986357	,	0
53,43	,	139922	,	-26646	,	-24309	,	1.8828125	,	-7.5433216	,	0
53,43	,	139938	,	-26657	,	-24326	,	-9.6875	,	-8.6626005	,	0
53,43	,	139954	,	-26659	,	-24316	,	-8.78125	,	-9.246838	,	0
53,43	,	139986	,	-26662	,	-24328	,	-9.140625	,	-9.4053545	,	0
53,43	,	140002	,	-26665	,	-24309	,	-9.40625	,	-9.308037	,	0
53,43	,	140034	,	-26665	,	-24325	,	-6.578125	,	-9.079344	,	0
53,43	,	140050	,	-26674	,	-24313	,	-13.609375	,	-8.805422	,	0
53,43	,	140066	,	-26669	,	-24312	,	-4.53125	,	-8.559174	,	0
53,43	,	140098	,	-26670	,	-24319	,	-4.171875	,	-8.336108	,	0
53,43	,	140114	,	-26655	,	-24301	,	12.0859375	,	-7.966522	,	0
53,43	,	140130	,	-26640	,	-24306	,	23.460938	,	-7.0865903	,	0
53,43	,	140162	,	-26634	,	-24303	,	22.421875	,	-5.270036	,	0
53,43	,	140178	,	-26625	,	-24304	,	24.695312	,	-2.3256426	,	1
53,43	,	140210	,	-26620	,	-24298	,	22.289062	,	1.5785127	,	3
53,43	,	140226	,	-26616	,	-24291	,	19.59375	,	6.023212	,	6
53,43	,	140242	,	-26619	,	-24292	,	10.71875	,	10.440731	,	10
53,43	,	140274	,	-26616	,	-24287	,	10.5	,	14.221036	,	14
53,43	,	140290	,	-26629	,	-24295	,	-5.640625	,	16.834522	,	17
53,43	,	140306	,	-26612	,	-24293	,	13.046875	,	17.972824	,	19
53,43	,	140338	,	-26630	,	-24294	,	-8.8671875	,	17.656208	,	20
53,43	,	140354	,	-26629	,	-24298	,	-5.2109375	,	16.067871	,	20
53,43	,	140370	,	-26624	,	-24301	,	1.359375	,	13.4409275	,	19
53,43	,	140402	,	-26618	,	-24298	,	6.953125	,	10.223423	,	17
53,43	,	140418	,	-26610	,	-24291	,	12.859375	,	7.054362	,	14
53,43	,	140449	,	-26610	,	-24300	,	9.0	,	4.5163846	,	10
53,43	,	140465	,	-26612	,	-24284	,	4.3046875	,	2.9079647	,	6
53,43	,	140482	,	-26616	,	-24294	,	-0.984375	,	2.1576908	,	3
53,43	,	140514	,	-26609	,	-24297	,	6.3046875	,	1.9916933	,	1
53,43	,	140530	,	-26617	,	-24289	,	-3.578125	,	2.1441407	,	0
53,43	,	140546	,	-26616	,	-24295	,	-1.5078125	,	2.374867	,	0
53,43	,	140578	,	-26620	,	-24293	,	-5.0546875	,	2.458029	,	0
53,43	,	140594	,	-26625	,	-24289	,	-8.5390625	,	2.2250957	,	0
53,43	,	140626	,	-26611	,	-24298	,	8.0234375	,	1.6492558	,	0
53,43	,	140641	,	-26626	,	-24299	,	-9.390625	,	0.8867272	,	0
53,43	,	140658	,	-26626	,	-24303	,	-6.5625	,	0.05898428	,	0
53,43	,	140690	,	-26634	,	-24319	,	-12.59375	,	-0.8860806	,	0
53,43	,	140706	,	-26629	,	-24293	,	-3.8203125	,	-1.9971156	,	0
53,43	,	140722	,	-26636	,	-24296	,	-9.6796875	,	-3.1962752	,	0
53,43	,	140754	,	-26636	,	-24300	,	-6.765625	,	-4.357156	,	0
53,43	,	140770	,	-26659	,	-24309	,	-27.742188	,	-5.483848	,	0
53,43	,	140786	,	-26643	,	-24310	,	-3.4140625	,	-6.712613	,	0
53,44	,	140817	,	-26662	,	-24315	,	-21.390625	,	-8.071275	,	0
53,44	,	140833	,	-26646	,	-24319	,	1.0234375	,	-9.407228	,	0
53,44	,	140865	,	-26647	,	-24326	,	-0.2890625	,	-10.434733	,	0
53,44	,	140881	,	-26649	,	-24317	,	-2.203125	,	-10.832214	,	0
53,44	,	140897	,	-26656	,	-24316	,	-8.53125	,	-10.513603	,	0
53,44	,	140929	,	-26653	,	-24338	,	-2.9765625	,	-9.670141	,	0
53,44	,	140945	,	-26666	,	-24313	,	-15.0859375	,	-8.590016	,	0
53,44	,	140961	,	-26657	,	-24321	,	-1.5625	,	-7.5535808	,	1
53,44	,	140994	,	-26646	,	-24311	,	9.90625	,	-6.632534	,	2
53,44	,	141009	,	-26628	,	-24297	,	24.9375	,	-5.5218596	,	2
53,44	,	141041	,	-26620	,	-24298	,	25.453125	,	-3.7255955	,	3
53,44	,	141057	,	-26612	,	-24306	,	25.820312	,	-0.92648363	,	4
53,44	,	141073	,	-26609	,	-24290	,	21.070312	,	2.804068	,	6
53,44	,	141105	,	-26599	,	-24295	,	24.75	,	7.0850124	,	9
53,44	,	141121	,	-26604	,	-24298	,	12.328125	,	11.404149	,	13
53,44	,	141137	,	-26592	,	-24294	,	20.625	,	15.241104	,	17
53,44	,	141169	,	-26596	,	-24320	,	10.4375	,	18.20247	,	19
53,44	,	141186	,	-26600	,	-24278	,	3.3125	,	20.029465	,	20
53,44	,	141201	,	-26591	,	-24277	,	11.3125	,	20.56959	,	21
53,44	,	141233	,	-26598	,	-24292	,	0.921875	,	19.876295	,	20
53,44	,	141249	,	-26588	,	-24281	,	10.6484375	,	18.194721	,	19
53,44	,	141281	,	-26601	,	-24283	,	-5.546875	,	15.833755	,	17
53,44	,	141297	,	-26590	,	-24284	,	7.1171875	,	13.083488	,	14
53,44	,	141313	,	-26584	,	-24287	,	10.984375	,	10.273937	,	10
53,44	,	141345	,	-26589	,	-24284	,	2.6875	,	7.7811947	,	6
53,44	,	141361	,	-26588	,	-24275	,	2.875	,	5.8051195	,	3
53,44	,	141377	,	-26583	,	-24283	,	7.015625	,	4.345293	,	1
53,44	,	141409	,	-26591	,	-24291	,	-3.0859375	,	3.349066	,	0
53,44	,	141425	,	-26585	,	-24282	,	3.8359375	,	2.7033985	,	0
53,44	,	141457	,	-26603	,	-24278	,	-15.3125	,	2.197118	,	0
53,44	,	141473	,	-26601	,	-24290	,	-8.71875	,	1.5394537	,	0
53,44	,	141489	,	-26593	,	-24283	,	1.8984375	,	0.5612081	,	0
53,44	,	141521	,	-26605	,	-24289	,	-10.671875	,	-0.6323118	,	0
53,44	,	141537	,	-26597	,	-24287	,	0.53125	,	-1.8546443	,	0
53,44	,	141553	,	-26608	,	-24283	,	-10.6328125	,	-2.9859288	,	0
53,44	,	141585	,	-26597	,	-24284	,	3.5625	,	-3.9338522	,	0
53,44	,	141601	,	-26613	,	-24291	,	-13.5078125	,	-4.6381054	,	0
53,44	,	141633	,	-26607	,	-24289	,	-3.4609375	,	-5.130493	,	0
53,44	,	141649	,	-26612	,	-24302	,	-7.421875	,	-5.487977	,	0
53,44	,	141665	,	-26618	,	-24291	,	-11.1875	,	-5.767523	,	0
53,44	,	141697	,	-26631	,	-24293	,	-20.835938	,	-6.1088295	,	0
53,44	,	141713	,	-26621	,	-24303	,	-4.5859375	,	-6.6815195	,	0
53,44	,	141729	,	-26632	,	-24298	,	-14.203125	,	-7.4686685	,	0
53,44	,	141761	,	-26635	,	-24309	,	-12.953125	,	-8.341593	,	0
53,44	,	141777	,	-26635	,	-24306	,	-9.0625	,	-9.214603	,	0
53,44	,	141793	,	-26646	,	-24310	,	-17.34375	,	-10.029283	,	0
53,45	,	141825	,	-26635	,	-24308	,	-1.140625	,	-10.722925	,	0
53,45	,	141841	,	-26640	,	-24316	,	-5.796875	,	-11.1520195	,	0
53,45	,	141873	,	-26651	,	-24311	,	-15.0625	,	-11.195526	,	0
53,45	,	141889	,	-26649	,	-24311	,	-8.5390625	,	-10.9543915	,	0
53,45	,	141905	,	-26658	,	-24313	,	-14.9765625	,	-10.627243	,	0
53,45	,	141937	,	-26624	,	-24304	,	23.515625	,	-10.19113	,	0
53,45	,	141953	,	-26614	,	-24298	,	26.460938	,	-9.180214	,	0
53,45	,	141969	,	-26615	,	-24307	,	17.523438	,	-7.0183372	,	1
53,45	,	142001	,	-26593	,	-24287	,	34.265625	,	-3.5518374	,	3
53,45	,	142017	,	-26596	,	-24279	,	20.984375	,	0.9860239	,	6
53,45	,	142048	,	-26592	,	-24281	,	18.6875	,	6.1106124	,	10
53,45	,	142064	,	-26597	,	-24276	,	8.078125	,	11.09931	,	15
53,45	,	142080	,	-26582	,	-24292	,	20.65625	,	15.267432	,	19
53,45	,	142113	,	-26588	,	-24290	,	8.46875	,	18.24522	,	23
53,45	,	142129	,	-26580	,	-24280	,	13.921875	,	19.936861	,	25
53,45	,	142145	,	-26589	,	-24281	,	0.75	,	20.360062	,	26
53,45	,	142177	,	-26581	,	-24281	,	8.515625	,	19.602007	,	25
53,45	,	142193	,	-26587	,	-24279	,	-0.03125	,	17.859295	,	23
53,45	,	142225	,	-26591	,	-24289	,	-4.0234375	,	15.386046	,	20
53,45	,	142241	,	-26577	,	-24284	,	11.1796875	,	12.465695	,	16
53,45	,	142257	,	-26578	,	-24283	,	6.828125	,	9.517418	,	11
53,45	,	142289	,	-26577	,	-24285	,	5.78125	,	6.973579	,	7
53,45	,	142305	,	-26588	,	-24286	,	-6.953125	,	4.9938416	,	3
53,45	,	142336	,	-26564	,	-24282	,	19.132812	,	3.5509553	,	1
53,45	,	142353	,	-26576	,	-24296	,	1.390625	,	2.6992483	,	0
53,45	,	142368	,	-26566	,	-24256	,	10.9765625	,	2.4804966	,	0
53,45	,	142400	,	-26582	,	-24279	,	-8.3125	,	2.713418	,	0
53,45	,	142416	,	-26583	,	-24276	,	-6.828125	,	3.0173755	,	0
53,45	,	142432	,	-26587	,	-24272	,	-8.78125	,	2.9945657	,	0
53,45	,	142464	,	-26577	,	-24276	,	3.859375	,	2.4848475	,	0
53,45	,	142480	,	-26598	,	-24285	,	-18.296875	,	1.5578371	,	0
53,45	,	142497	,	-26589	,	-24282	,	-3.8125	,	0.27595806	,	0
53,45	,	142528	,	-26600	,	-24287	,	-13.671875	,	-1.2998977	,	0
53,45	,	142544	,	-26609	,	-24301	,	-18.5625	,	-3.0816572	,	0
53,45	,	142576	,	-26605	,	-24271	,	-9.0	,	-5.022565	,	0
53,45	,	142592	,	-26612	,	-24293	,	-13.296875	,	-7.0082917	,	0
53,45	,	142608	,	-26611	,	-24304	,	-8.3125	,	-8.830264	,	0
53,45	,	142640	,	-26613	,	-24296	,	-7.8125	,	-10.28878	,	0
53,45	,	142656	,	-26606	,	-24300	,	1.53125	,	-11.195392	,	0
53,45	,	142673	,	-26615	,	-24299	,	-7.9296875	,	-11.412551	,	0
53,45	,	142704	,	-26615	,	-24301	,	-5.5546875	,	-10.97743	,	0
53,45	,	142720	,	-26627	,	-24302	,	-15.8828125	,	-10.136913	,	0
53,45	,	142752	,	-26619	,	-24295	,	-3.1171875	,	-9.206806	,	0
53,45	,	142768	,	-26622	,	-24303	,	-5.1875	,	-8.357892	,	0
53,45	,	142784	,	-26630	,	-24312	,	-11.625	,	-7.621575	,	0
53,46	,	142816	,	-26628	,	-24292	,	-6.140625	,	-7.05305	,	0
53,46	,	142832	,	-26636	,	-24295	,	-12.296875	,	-6.7222342	,	0
53,46	,	142848	,	-26612	,	-24296	,	15.390625	,	-6.545106	,	0
53,46	,	142880	,	-26608	,	-24291	,	14.7734375	,	-6.1418533	,	0
53,46	,	142896	,	-26599	,	-24288	,	19.34375	,	-5.0236816	,	0
53,46	,	142912	,	-26595	,	-24288	,	17.539062	,	-2.955808	,	1
53,46	,	142944	,	-26593	,	-24293	,	14.28125	,	-0.054299116	,	3
53,46	,	142960	,	-26584	,	-24290	,	18.992188	,	3.3377123	,	5
53,46	,	142992	,	-26580	,	-24285	,	17.296875	,	6.8421526	,	8
53,46	,	143008	,	-26586	,	-24293	,	6.1015625	,	10.104241	,	11
53,46	,	143024	,	-26588	,	-24309	,	2.28125	,	12.705946	,	14
53,46	,	143056	,	-26595	,	-24277	,	-5.40625	,	14.218739	,	16
53,46	,	143072	,	-26596	,	-24287	,	-4.78125	,	14.375375	,	17
53,46	,	143088	,	-26585	,	-24289	,	7.6484375	,	13.236935	,	17
53,46	,	143120	,	-26598	,	-24287	,	-7.6484375	,	11.179453	,	16
53,46	,	143136	,	-26588	,	-24292	,	4.6484375	,	8.637524	,	14
53,46	,	143168	,	-26584	,	-24292	,	7.2578125	,	6.022856	,	12
53,46	,	143184	,	-26586	,	-24279	,	3.078125	,	3.75452	,	9
53,46	,	143200	,	-26582	,	-24286	,	6.15625	,	2.1054525	,	6
53,46	,	143232	,	-26591	,	-24296	,	-4.6953125	,	1.1066437	,	3
53,46	,	143248	,	-26583	,	-24289	,	4.7109375	,	0.61248386	,	1
53,46	,	143264	,	-26587	,	-24312	,	-0.703125	,	0.4492244	,	0
53,46	,	143296	,	-26592	,	-24290	,	-5.484375	,	0.46727437	,	0
53,46	,	143312	,	-26597	,	-24297	,	-8.84375	,	0.45852244	,	0
53,46	,	143328	,	-26589	,	-24294	,	1.8125	,	0.24027234	,	0
53,46	,	143360	,	-26586	,	-24289	,	4.265625	,	-0.15078744	,	0
53,46	,	143376	,	-26596	,	-24289	,	-7.015625	,	-0.54707503	,	0
53,46	,	143408	,	-26599	,	-24288	,	-7.90625	,	-0.9253108	,	0
53,46	,	143424	,	-26608	,	-24295	,	-14.53125	,	-1.4399728	,	0
53,46	,	143440	,	-26606	,	-24293	,	-8.171875	,	-2.2433617	,	0
53,46	,	143472	,	-26597	,	-24310	,	3.2734375	,	-3.285743	,	0
53,46	,	143488	,	-26609	,	-24301	,	-9.7109375	,	-4.309249	,	0
53,46	,	143504	,	-26614	,	-24314	,	-11.796875	,	-5.1527276	,	0
53,46	,	143536	,	-26618	,	-24286	,	-12.25	,	-5.8933	,	0
53,46	,	143552	,	-26629	,	-24308	,	-19.578125	,	-6.6915846	,	0
53,46	,	143584	,	-26626	,	-24306	,	-10.703125	,	-7.662864	,	0
53,46	,	143599	,	-26634	,	-24304	,	-15.5	,	-8.793243	,	0
53,46	,	143615	,	-26635	,	-24310	,	-11.84375	,	-9.96179	,	0
53,46	,	143647	,	-26643	,	-24311	,	-16.296875	,	-11.055688	,	0
53,46	,	143663	,	-26646	,	-24314	,	-14.40625	,	-12.022692	,	0
53,46	,	143680	,	-26640	,	-24314	,	-4.078125	,	-12.800152	,	0
53,46	,	143712	,	-26641	,	-24311	,	-3.859375	,	-13.210944	,	0
53,46	,	143728	,	-26618	,	-24311	,	20.296875	,	-12.945284	,	0
53,46	,	143759	,	-26619	,	-24318	,	13.2109375	,	-11.632489	,	0
53,46	,	143775	,	-26613	,	-24299	,	15.2421875	,	-9.094353	,	1
53,46	,	143791	,	-26595	,	-24283	,	28.671875	,	-5.463375	,	3
53,47	,	143823	,	-26587	,	-24294	,	28.078125	,	-0.9556136	,	6
53,47	,	143839	,	-26586	,	-24289	,	20.648438	,	4.1555605	,	10
53,47	,	143855	,	-26587	,	-24293	,	13.453125	,	9.353568	,	15
53,47	,	143888	,	-26577	,	-24297	,	19.414062	,	13.997623	,	20
53,47	,	143904	,	-26589	,	-24278	,	1.59375	,	17.571894	,	24
53,47	,	143920	,	-26582	,	-24285	,	8.1171875	,	19.720165	,	27
53,47	,	143952	,	-26591	,	-24286	,	-3.3203125	,	20.269657	,	29
53,47	,	143968	,	-26594	,	-24292	,	-5.328125	,	19.253473	,	28
53,47	,	143999	,	-26597	,	-24282	,	-6.71875	,	16.850765	,	26
53,47	,	144015	,	-26588	,	-24288	,	4.296875	,	13.438887	,	23
53,47	,	144031	,	-26567	,	-24294	,	24.0	,	9.721156	,	19
53,47	,	144063	,	-26579	,	-24293	,	4.796875	,	6.551526	,	14
53,47	,	144080	,	-26573	,	-24296	,	9.359375	,	4.4235816	,	9
53,47	,	144095	,	-26578	,	-24283	,	1.5546875	,	3.304718	,	5
53,47	,	144127	,	-26573	,	-24287	,	6.0859375	,	2.9254467	,	2
53,47	,	144143	,	-26563	,	-24295	,	14.265625	,	3.0602045	,	0
53,47	,	144175	,	-26574	,	-24291	,	-1.015625	,	3.5811107	,	0
53,47	,	144191	,	-26571	,	-24288	,	2.2890625	,	4.2772007	,	0
53,47	,	144207	,	-26578	,	-24294	,	-5.3984375	,	4.8248606	,	0
53,47	,	144239	,	-26586	,	-24271	,	-11.78125	,	4.9204774	,	0
53,47	,	144255	,	-26591	,	-24289	,	-13.25	,	4.3185935	,	0
53,47	,	144271	,	-26591	,	-24294	,	-9.265625	,	2.9240227	,	0
53,47	,	144303	,	-26595	,	-24291	,	-10.484375	,	0.8830254	,	0
53,47	,	144319	,	-26598	,	-24297	,	-10.34375	,	-1.5085607	,	0
53,47	,	144335	,	-26595	,	-24302	,	-4.2421875	,	-3.924438	,	0
53,47	,	144367	,	-26600	,	-24299	,	-7.96875	,	-6.049021	,	0
53,47	,	144383	,	-26599	,	-24300	,	-4.578125	,	-7.648977	,	0
53,47	,	144415	,	-26611	,	-24304	,	-15.203125	,	-8.672777	,	0
53,47	,	144431	,	-26612	,	-24295	,	-11.6484375	,	-9.270809	,	0
53,47	,	144447	,	-26614	,	-24327	,	-10.1484375	,	-9.6483965	,	0
53,47	,	144479	,	-26613	,	-24289	,	-6.1015625	,	-9.889169	,	0
53,47	,	144495	,	-26612	,	-24308	,	-3.2734375	,	-9.942694	,	0
53,47	,	144511	,	-26624	,	-24311	,	-14.2890625	,	-9.764963	,	0
53,47	,	144543	,	-26621	,	-24308	,	-7.0	,	-9.4453945	,	0
53,47	,	144559	,	-26644	,	-24321	,	-27.90625	,	-9.202364	,	0
53,47	,	144591	,	-26642	,	-24306	,	-17.53125	,	-9.324279	,	0
53,47	,	144607	,	-26634	,	-24312	,	-4.2734375	,	-9.922804	,	0
53,47	,	144623	,	-26619	,	-24309	,	12.0078125	,	-10.631903	,	0
53,47	,	144655	,	-26612	,	-24310	,	15.40625	,	-10.756191	,	0
53,47	,	144671	,	-26593	,	-24293	,	29.78125	,	-9.66938	,	0
53,47	,	144687	,	-26598	,	-24304	,	15.84375	,	-7.0850163	,	1
53,47	,	144735	,	-26575	,	-24283	,	25.0625	,	1.7294426	,	6
53,47	,	144751	,	-26581	,	-24291	,	11.546875	,	7.0185537	,	10
53,47	,	144783	,	-26565	,	-24295	,	24.085938	,	12.053418	,	15
53,47	,	144799	,	-26565	,	-24284	,	16.859375	,	16.301205	,	20
53,48	,	144831	,	-26556	,	-24284	,	20.804688	,	19.516304	,	24
53,48	,	144847	,	-26563	,	-24295	,	7.5625	,	21.590416	,	27
53,48	,	144863	,	-26564	,	-24279	,	4.296875	,	22.418114	,	29
53,48	,	144895	,	-26568	,	-24283	,	-1.0	,	21.909576	,	28
53,48	,	144911	,	-26557	,	-24281	,	10.296875	,	20.158854	,	26
53,48	,	144927	,	-26561	,	-24300	,	3.21875	,	17.538158	,	23
53,48	,	144958	,	-26557	,	-24267	,	6.25	,	14.525754	,	19
53,48	,	144974	,	-26554	,	-24267	,	7.375	,	11.531069	,	14
53,48	,	145007	,	-26563	,	-24264	,	-3.84375	,	8.832041	,	9
53,48	,	145023	,	-26561	,	-24276	,	-0.6875	,	6.5082154	,	5
53,48	,	145039	,	-26556	,	-24274	,	4.515625	,	4.541438	,	2
53,48	,	145071	,	-26549	,	-24278	,	10.1640625	,	3.014505	,	0
53,48	,	145086	,	-26552	,	-24267	,	4.1171875	,	2.0735524	,	0
53,48	,	145102	,	-26561	,	-24266	,	-6.125	,	1.688379	,	0
53,48	,	145135	,	-26562	,	-24267	,	-5.28125	,	1.5641268	,	0
53,48	,	145151	,	-26558	,	-24273	,	0.296875	,	1.3869174	,	0
53,48	,	145167	,	-26559	,	-24285	,	-0.78125	,	1.063838	,	0
53,48	,	145199	,	-26565	,	-24273	,	-6.546875	,	0.63744104	,	0
53,48	,	145214	,	-26571	,	-24275	,	-10.59375	,	0.081474364	,	0
53,48	,	145246	,	-26571	,	-24280	,	-7.40625	,	-0.70048064	,	0
53,48	,	145262	,	-26570	,	-24280	,	-4.1875	,	-1.7118394	,	0
53,48	,	145278	,	-26588	,	-24287	,	-20.9375	,	-2.884631	,	0
53,48	,	145311	,	-26587	,	-24295	,	-13.65625	,	-4.251268	,	0
53,48	,	145327	,	-26587	,	-24279	,	-9.5546875	,	-5.8351665	,	0
53,48	,	145343	,	-26604	,	-24288	,	-23.6875	,	-7.5346527	,	0
53,48	,	145374	,	-26586	,	-24292	,	1.4140625	,	-9.210904	,	0
53,48	,	145390	,	-26582	,	-24288	,	5.0	,	-10.557999	,	0
53,48	,	145422	,	-26590	,	-24295	,	-4.5	,	-11.150798	,	0
53,48	,	145438	,	-26601	,	-24284	,	-14.15625	,	-10.907906	,	0
53,48	,	145454	,	-26603	,	-24300	,	-11.90625	,	-10.189127	,	0
53,48	,	145486	,	-26607	,	-24297	,	-12.3359375	,	-9.424126	,	0
53,48	,	145503	,	-26617	,	-24304	,	-18.632812	,	-8.899714	,	0
53,48	,	145519	,	-26602	,	-24296	,	1.953125	,	-8.721279	,	0
53,48	,	145550	,	-26587	,	-24294	,	16.367188	,	-8.629509	,	0
53,48	,	145566	,	-26569	,	-24288	,	29.460938	,	-7.9710393	,	0
53,48	,	145582	,	-26560	,	-24289	,	29.625	,	-6.0754395	,	0
53,48	,	145614	,	-26558	,	-24283	,	22.734375	,	-2.699411	,	1
53,48	,	145630	,	-26554	,	-24290	,	19.90625	,	1.8238204	,	4
53,48	,	145662	,	-26545	,	-24272	,	22.9375	,	6.8309946	,	8
53,48	,	145678	,	-26551	,	-24284	,	10.0625	,	11.642829	,	13
53,48	,	145694	,	-26550	,	-24280	,	8.0390625	,	15.640865	,	17
53,48	,	145726	,	-26545	,	-24278	,	10.6328125	,	18.353998	,	20
53,48	,	145742	,	-26546	,	-24287	,	6.4375	,	19.613253	,	22
53,48	,	145758	,	-26544	,	-24274	,	6.5078125	,	19.515436	,	23
53,49	,	145806	,	-26544	,	-24271	,	5.59375	,	16.098022	,	22
53,49	,	145838	,	-26549	,	-24271	,	-1.09375	,	13.336104	,	19
53,49	,	145854	,	-26532	,	-24274	,	16.234375	,	10.405324	,	15
53,49	,	145870	,	-26534	,	-24295	,	9.3671875	,	7.809889	,	10
53,49	,	145902	,	-26540	,	-24265	,	0.5546875	,	5.8951163	,	6
53,49	,	145918	,	-26545	,	-24276	,	-4.609375	,	4.6064253	,	3
53,49	,	145934	,	-26533	,	-24268	,	8.7734375	,	3.6925054	,	1
53,49	,	145966	,	-26549	,	-24263	,	-9.859375	,	2.992464	,	0
53,49	,	145982	,	-26546	,	-24275	,	-3.8984375	,	2.3571155	,	0
53,49	,	146014	,	-26558	,	-24267	,	-14.734375	,	1.576582	,	0
53,49	,	146030	,	-26547	,	-24269	,	0.6875	,	0.5225005	,	0
53,49	,	146046	,	-26530	,	-24262	,	17.484375	,	-0.6225929	,	0
53,49	,	146078	,	-26555	,	-24263	,	-12.765625	,	-1.4620028	,	0
53,49	,	146094	,	-26560	,	-24278	,	-13.9375	,	-1.9423434	,	0
53,49	,	146110	,	-26556	,	-24293	,	-5.75	,	-2.3940654	,	0
53,49	,	146142	,	-26553	,	-24267	,	-1.03125	,	-2.97981	,	0
53,49	,	146158	,	-26564	,	-24288	,	-11.71875	,	-3.6105332	,	0
53,49	,	146174	,	-26570	,	-24289	,	-14.203125	,	-4.2742634	,	0
53,49	,	146206	,	-26569	,	-24279	,	-8.9375	,	-5.0721235	,	0
53,49	,	146222	,	-26576	,	-24287	,	-13.2578125	,	-6.026081	,	0
53,49	,	146254	,	-26577	,	-24289	,	-10.28125	,	-7.0677433	,	0
53,49	,	146270	,	-26583	,	-24289	,	-13.1953125	,	-8.123896	,	0
53,49	,	146286	,	-26590	,	-24288	,	-16.234375	,	-9.155907	,	0
53,49	,	146318	,	-26596	,	-24289	,	-17.367188	,	-10.187019	,	0
53,49	,	146334	,	-26588	,	-24296	,	-4.15625	,	-11.1982975	,	0
53,49	,	146350	,	-26592	,	-24314	,	-6.9140625	,	-11.998418	,	0
53,49	,	146382	,	-26593	,	-24288	,	-5.8359375	,	-12.34813	,	0
53,49	,	146398	,	-26578	,	-24302	,	10.9140625	,	-12.08317	,	0
53,49	,	146430	,	-26563	,	-24287	,	22.640625	,	-10.970643	,	0
53,49	,	146446	,	-26556	,	-24283	,	22.84375	,	-8.705593	,	1
53,49	,	146462	,	-26549	,	-24277	,	23.0	,	-5.1905656	,	3
53,49	,	146494	,	-26542	,	-24286	,	23.09375	,	-0.6668396	,	6
53,49	,	146510	,	-26536	,	-24275	,	22.171875	,	4.408425	,	10
53,49	,	146526	,	-26534	,	-24283	,	17.515625	,	9.495391	,	15
53,49	,	146558	,	-26532	,	-24283	,	14.265625	,	14.045639	,	20
53,49	,	146574	,	-26533	,	-24244	,	8.984375	,	17.578152	,	24
53,49	,	146589	,	-26531	,	-24289	,	8.28125	,	19.76413	,	27
53,49	,	146622	,	-26531	,	-24264	,	5.796875	,	20.494576	,	29
53,49	,	146638	,	-26537	,	-24275	,	-1.9375	,	19.852474	,	28
53,49	,	146670	,	-26539	,	-24277	,	-3.359375	,	18.01012	,	26
53,49	,	146686	,	-26538	,	-24277	,	-1.34375	,	15.215298	,	23
53,49	,	146702	,	-26532	,	-24273	,	5.0546875	,	11.86188	,	19
53,49	,	146734	,	-26533	,	-24269	,	2.5390625	,	8.452808	,	14
53,49	,	146750	,	-26533	,	-24273	,	1.78125	,	5.410881	,	9
53,49	,	146765	,	-26536	,	-24267	,	-1.7578125	,	2.9455295	,	5
53,49	,	146797	,	-26540	,	-24266	,	-5.2265625	,	1.0681143	,	2
53,50	,	146814	,	-26536	,	-24266	,	0.3359375	,	-0.3172481	,	0
53,50	,	146846	,	-26533	,	-24280	,	3.234375	,	-1.2723844	,	0
53,50	,	146862	,	-26526	,	-24271	,	9.265625	,	-1.7434797	,	0
53,50	,	146877	,	-26537	,	-24257	,	-4.515625	,	-1.6843549	,	0
53,50	,	146909	,	-26543	,	-24259	,	-9.1640625	,	-1.2808766	,	0
53,50	,	146925	,	-26550	,	-24261	,	-13.40625	,	-0.945271	,	0
53,50	,	146942	,	-26547	,	-24266	,	-6.390625	,	-1.028606	,	0
53,50	,	146974	,	-26551	,	-24270	,	-8.46875	,	-1.6073271	,	0
53,50	,	146990	,	-26546	,	-24267	,	-0.9296875	,	-2.515273	,	0
53,50	,	147006	,	-26545	,	-24264	,	0.3515625	,	-3.4614022	,	0
53,50	,	147037	,	-26558	,	-24268	,	-12.7578125	,	-4.2193866	,	0
53,50	,	147054	,	-26558	,	-24277	,	-8.9296875	,	-4.8023376	,	0
53,50	,	147085	,	-26561	,	-24278	,	-9.25	,	-5.344983	,	0
53,50	,	147101	,	-26562	,	-24270	,	-7.4765625	,	-5.9021587	,	0
53,50	,	147117	,	-26583	,	-24275	,	-26.234375	,	-6.533454	,	0
53,50	,	147149	,	-26569	,	-24271	,	-4.3671875	,	-7.371728	,	0
53,50	,	147165	,	-26591	,	-24281	,	-25.046875	,	-8.458346	,	0
53,50	,	147182	,	-26588	,	-24283	,	-14.5390625	,	-9.750738	,	0
53,50	,	147213	,	-26596	,	-24288	,	-18.179688	,	-11.199375	,	0
53,50	,	147229	,	-26586	,	-24287	,	-2.71875	,	-12.621761	,	0
53,50	,	147261	,	-26602	,	-24288	,	-17.90625	,	-13.730713	,	0
53,50	,	147277	,	-26589	,	-24282	,	0.46875	,	-14.329382	,	0
53,50	,	147293	,	-26592	,	-24293	,	-2.671875	,	-14.298986	,	0
53,50	,	147325	,	-26573	,	-24279	,	17.125	,	-13.464713	,	0
53,50	,	147341	,	-26566	,	-24271	,	18.984375	,	-11.591759	,	0
53,50	,	147357	,	-26554	,	-24269	,	25.296875	,	-8.518508	,	1
53,50	,	147389	,	-26543	,	-24259	,	28.703125	,	-4.282355	,	4
53,50	,	147405	,	-26534	,	-24265	,	29.09375	,	0.8812609	,	8
53,50	,	147421	,	-26534	,	-24257	,	20.359375	,	6.546335	,	13
53,50	,	147453	,	-26521	,	-24257	,	27.257812	,	12.141335	,	18
53,50	,	147469	,	-26529	,	-24258	,	11.078125	,	17.098028	,	23
53,50	,	147501	,	-26526	,	-24255	,	10.7578125	,	20.900282	,	27
53,50	,	147517	,	-26519	,	-24249	,	14.53125	,	23.179632	,	30
53,50	,	147534	,	-26517	,	-24282	,	12.171875	,	23.90784	,	32
53,50	,	147565	,	-26528	,	-24267	,	-2.484375	,	23.28012	,	31
53,50	,	147581	,	-26522	,	-24264	,	4.265625	,	21.475292	,	28
53,50	,	147597	,	-26531	,	-24257	,	-6.015625	,	18.685791	,	24
53,50	,	147629	,	-26524	,	-24260	,	2.7890625	,	15.199173	,	19
53,50	,	147645	,	-26501	,	-24258	,	24.953125	,	11.514014	,	14
53,50	,	147677	,	-26518	,	-24253	,	0.4609375	,	8.305411	,	9
53,50	,	147693	,	-26512	,	-24258	,	6.328125	,	5.964163	,	5
53,50	,	147709	,	-26504	,	-24271	,	12.4296875	,	4.4829507	,	2
53,50	,	147741	,	-26517	,	-24266	,	-4.3046875	,	3.739256	,	0
53,50	,	147757	,	-26509	,	-24264	,	4.9921875	,	3.4952624	,	0
53,50	,	147773	,	-26508	,	-24284	,	4.4921875	,	3.4732263	,	0
53,50	,	147805	,	-26512	,	-24243	,	-0.859375	,	3.5223215	,	0
53,51	,	147821	,	-26516	,	-24267	,	-4.59375	,	3.5192318	,	0
53,51	,	147837	,	-26524	,	-24265	,	-11.21875	,	3.2677298	,	0
53,51	,	147869	,	-26522	,	-24261	,	-5.8515625	,	2.582543	,	0
53,51	,	147885	,	-26524	,	-24277	,	-6.1015625	,	1.442795	,	0
53,51	,	147917	,	-26530	,	-24271	,	-10.265625	,	-0.017367482	,	0
53,51	,	147933	,	-26529	,	-24270	,	-6.1875	,	-1.6453987	,	0
53,51	,	147949	,	-26543	,	-24271	,	-18.328125	,	-3.3401463	,	0
53,51	,	147981	,	-26531	,	-24267	,	-0.828125	,	-5.0250177	,	0
53,51	,	147997	,	-26534	,	-24271	,	-3.578125	,	-6.5112996	,	0
53,51	,	148013	,	-26542	,	-24292	,	-10.515625	,	-7.566624	,	0
53,51	,	148045	,	-26544	,	-24265	,	-9.359375	,	-8.171529	,	0
53,51	,	148061	,	-26546	,	-24278	,	-8.546875	,	-8.470479	,	0
53,51	,	148093	,	-26553	,	-24268	,	-12.984375	,	-8.5991	,	0
53,51	,	148109	,	-26570	,	-24282	,	-26.09375	,	-8.752013	,	0
53,51	,	148125	,	-26556	,	-24285	,	-4.265625	,	-9.157169	,	0
53,51	,	148157	,	-26576	,	-24279	,	-22.984375	,	-9.851667	,	0
53,51	,	148173	,	-26569	,	-24280	,	-9.0859375	,	-10.721952	,	0
53,51	,	148189	,	-26569	,	-24294	,	-6.359375	,	-11.601598	,	0
53,51	,	148221	,	-26558	,	-24279	,	6.546875	,	-12.177552	,	0
53,51	,	148237	,	-26552	,	-24279	,	10.5859375	,	-12.039952	,	0
53,51	,	148253	,	-26537	,	-24297	,	22.40625	,	-10.829871	,	0
53,51	,	148285	,	-26528	,	-24254	,	24.6875	,	-8.322466	,	1
53,51	,	148301	,	-26519	,	-24271	,	26.28125	,	-4.512503	,	3
53,51	,	148333	,	-26513	,	-24262	,	24.390625	,	0.32816744	,	6
53,51	,	148349	,	-26512	,	-24256	,	18.078125	,	5.6833587	,	10
53,51	,	148365	,	-26509	,	-24274	,	15.65625	,	10.895927	,	15
53,51	,	148397	,	-26515	,	-24263	,	4.953125	,	15.294656	,	20
53,51	,	148413	,	-26508	,	-24265	,	10.46875	,	18.344515	,	24
53,51	,	148429	,	-26512	,	-24253	,	3.328125	,	19.80262	,	27
53,51	,	148460	,	-26509	,	-24272	,	5.328125	,	19.729153	,	28
53,51	,	148477	,	-26514	,	-24269	,	-1.265625	,	18.359577	,	27
53,51	,	148509	,	-26520	,	-24275	,	-6.890625	,	15.974968	,	25
53,51	,	148525	,	-26510	,	-24266	,	5.1875	,	12.885574	,	22
53,51	,	148541	,	-26510	,	-24261	,	3.625	,	9.528487	,	18
53,51	,	148573	,	-26515	,	-24265	,	-2.4609375	,	6.364903	,	13
53,51	,	148589	,	-26514	,	-24264	,	-0.7265625	,	3.6584477	,	8
53,51	,	148605	,	-26508	,	-24263	,	5.5	,	1.5245476	,	4
53,51	,	148637	,	-26504	,	-24261	,	7.84375	,	0.08087063	,	1
53,51	,	148652	,	-26508	,	-24265	,	1.4921875	,	-0.6060972	,	0
53,51	,	148684	,	-26514	,	-24270	,	-4.9609375	,	-0.6726749	,	0
53,51	,	148700	,	-26528	,	-24271	,	-17.46875	,	-0.5020647	,	0
53,51	,	148717	,	-26522	,	-24276	,	-6.2265625	,	-0.55634505	,	0
53,51	,	148749	,	-26521	,	-24274	,	-3.359375	,	-1.0475191	,	0
53,51	,	148765	,	-26524	,	-24281	,	-5.3515625	,	-1.8492749	,	0
53,51	,	148781	,	-26529	,	-24284	,	-8.75	,	-2.7633274	,	0
53,52	,	148812	,	-26534	,	-24268	,	-11.125	,	-3.713349	,	0
53,52	,	148829	,	-26534	,	-24274	,	-7.78125	,	-4.697214	,	0
53,52	,	148844	,	-26538	,	-24275	,	-9.453125	,	-5.6801414	,	0
53,52	,	148876	,	-26533	,	-24276	,	-1.609375	,	-6.55606	,	0
53,52	,	148892	,	-26546	,	-24270	,	-14.125	,	-7.2186937	,	0
53,52	,	148924	,	-26548	,	-24282	,	-11.890625	,	-7.698229	,	0
53,52	,	148941	,	-26549	,	-24283	,	-9.328125	,	-8.118572	,	0
53,52	,	148957	,	-26546	,	-24295	,	-3.53125	,	-8.494544	,	0
53,52	,	148988	,	-26551	,	-24277	,	-7.46875	,	-8.717193	,	0
53,52	,	149004	,	-26564	,	-24288	,	-18.226562	,	-8.769264	,	0
53,52	,	149020	,	-26568	,	-24289	,	-16.757812	,	-8.847538	,	0
53,52	,	149052	,	-26559	,	-24294	,	-2.734375	,	-9.11717	,	0
53,52	,	149068	,	-26557	,	-24284	,	0.09375	,	-9.425174	,	0
53,52	,	149100	,	-26546	,	-24283	,	11.0625	,	-9.390088	,	0
53,52	,	149116	,	-26537	,	-24280	,	16.742188	,	-8.619331	,	0
53,52	,	149132	,	-26533	,	-24272	,	15.71875	,	-6.857315	,	0
53,52	,	149164	,	-26517	,	-24273	,	27.007812	,	-4.062329	,	1
53,52	,	149180	,	-26516	,	-24272	,	19.90625	,	-0.36429024	,	3
53,52	,	149196	,	-26513	,	-24282	,	16.929688	,	3.9107037	,	6
53,52	,	149228	,	-26527	,	-24251	,	-2.1484375	,	8.157424	,	10
53,52	,	149244	,	-26513	,	-24274	,	12.5	,	11.664663	,	14
53,52	,	149260	,	-26504	,	-24274	,	17.75	,	14.051741	,	17
53,52	,	149292	,	-26511	,	-24264	,	5.421875	,	15.379229	,	19
53,52	,	149308	,	-26521	,	-24270	,	-6.203125	,	15.730286	,	20
53,52	,	149340	,	-26520	,	-24271	,	-3.34375	,	15.015966	,	20
53,52	,	149356	,	-26526	,	-24267	,	-8.34375	,	13.217745	,	19
53,52	,	149372	,	-26514	,	-24274	,	6.15625	,	10.576397	,	17
53,52	,	149404	,	-26525	,	-24272	,	-6.6875	,	7.542479	,	14
53,52	,	149420	,	-26511	,	-24262	,	9.3203125	,	4.5896177	,	10
53,52	,	149436	,	-26512	,	-24294	,	5.5234375	,	2.1281157	,	6
53,52	,	149468	,	-26509	,	-24256	,	6.8671875	,	0.45961094	,	3
53,52	,	149484	,	-26506	,	-24269	,	7.8046875	,	-0.32023382	,	1
53,52	,	149516	,	-26504	,	-24274	,	7.46875	,	-0.2877221	,	0
53,52	,	149532	,	-26521	,	-24268	,	-11.78125	,	0.30649102	,	0
53,52	,	149548	,	-26523	,	-24276	,	-10.2421875	,	0.9734249	,	0
53,52	,	149580	,	-26516	,	-24267	,	-0.1640625	,	1.2505423	,	0
53,52	,	149596	,	-26529	,	-24281	,	-13.125	,	0.9894515	,	0
53,52	,	149612	,	-26530	,	-24277	,	-10.1875	,	0.20386732	,	0
53,52	,	149644	,	-26532	,	-24277	,	-9.125	,	-1.0656219	,	0
53,52	,	149660	,	-26537	,	-24288	,	-11.390625	,	-2.679368	,	0
53,52	,	149676	,	-26545	,	-24298	,	-15.96875	,	-4.4677167	,	0
53,52	,	149708	,	-26553	,	-24277	,	-19.179688	,	-6.3519974	,	0
53,52	,	149724	,	-26540	,	-24284	,	-0.4296875	,	-8.239279	,	0
53,52	,	149756	,	-26550	,	-24290	,	-10.296875	,	-9.866485	,	0
53,52	,	149772	,	-26563	,	-24290	,	-20.203125	,	-11.033949	,	0
53,52	,	149788	,	-26558	,	-24305	,	-9.1484375	,	-11.82865	,	0
53,53	,	149820	,	-26564	,	-24294	,	-12.3984375	,	-12.376391	,	0
53,53	,	149836	,	-26566	,	-24301	,	-10.6875	,	-12.683775	,	0
53,53	,	149852	,	-26566	,	-24297	,	-7.4765625	,	-12.732623	,	0
53,53	,	149884	,	-26563	,	-24298	,	-2.234375	,	-12.478056	,	0
53,53	,	149900	,	-26570	,	-24301	,	-8.5625	,	-11.868204	,	0
53,53	,	149932	,	-26574	,	-24317	,	-9.9921875	,	-10.970675	,	0
53,53	,	149948	,	-26568	,	-24291	,	-1.0	,	-9.940775	,	0
53,53	,	149964	,	-26539	,	-24282	,	28.296875	,	-8.703724	,	1
53,53	,	149996	,	-26537	,	-24281	,	21.8125	,	-6.818138	,	2
53,53	,	150012	,	-26511	,	-24273	,	41.265625	,	-3.8168354	,	3
53,53	,	150028	,	-26514	,	-24277	,	25.890625	,	0.45216322	,	6
53,53	,	150060	,	-26514	,	-24276	,	18.125	,	5.6593685	,	10
53,53	,	150076	,	-26513	,	-24278	,	13.6875	,	11.02664	,	15
53,53	,	150092	,	-26500	,	-24270	,	22.578125	,	15.751574	,	20
53,53	,	150124	,	-26510	,	-24273	,	5.8046875	,	19.336609	,	24
53,53	,	150140	,	-26505	,	-24277	,	9.0625	,	21.49871	,	27
53,53	,	150172	,	-26506	,	-24254	,	5.34375	,	22.117687	,	28
53,53	,	150188	,	-26512	,	-24262	,	-2.2578125	,	21.276606	,	27
53,53	,	150204	,	-26505	,	-24268	,	5.421875	,	19.204927	,	26
53,53	,	150236	,	-26505	,	-24257	,	3.796875	,	16.281786	,	23
53,53	,	150252	,	-26507	,	-24259	,	0.65625	,	12.97275	,	19
53,53	,	150268	,	-26499	,	-24265	,	8.453125	,	9.691624	,	14
53,53	,	150300	,	-26497	,	-24269	,	7.921875	,	6.8089437	,	9
53,53	,	150315	,	-26492	,	-24255	,	10.546875	,	4.636075	,	5
53,53	,	150347	,	-26489	,	-24264	,	10.375	,	3.3404913	,	2
53,53	,	150364	,	-26504	,	-24257	,	-7.734375	,	2.848265	,	0
53,53	,	150380	,	-26494	,	-24279	,	4.59375	,	2.8228154	,	0
53,53	,	150412	,	-26504	,	-24259	,	-6.7890625	,	2.8895764	,	0
53,53	,	150428	,	-26505	,	-24265	,	-5.7578125	,	2.7914855	,	0
53,53	,	150443	,	-26497	,	-24257	,	3.96875	,	2.4040935	,	0
53,53	,	150475	,	-26508	,	-24270	,	-8.21875	,	1.7638742	,	0
53,53	,	150491	,	-26511	,	-24269	,	-8.75	,	0.919696	,	0
53,53	,	150524	,	-26506	,	-24260	,	-1.125	,	-0.12202382	,	0
53,53	,	150540	,	-26514	,	-24269	,	-8.7890625	,	-1.2693973	,	0
53,53	,	150556	,	-26514	,	-24275	,	-6.1484375	,	-2.4071543	,	0
53,53	,	150587	,	-26516	,	-24269	,	-6.3125	,	-3.4777117	,	0
53,53	,	150603	,	-26516	,	-24277	,	-4.4140625	,	-4.4209313	,	0
53,53	,	150619	,	-26523	,	-24287	,	-10.0859375	,	-5.1863556	,	0
53,53	,	150651	,	-26530	,	-24268	,	-14.0625	,	-5.8297067	,	0
53,53	,	150667	,	-26534	,	-24280	,	-13.84375	,	-6.503229	,	0
53,53	,	150684	,	-26549	,	-24286	,	-24.6875	,	-7.371689	,	0
53,53	,	150715	,	-26541	,	-24281	,	-9.28125	,	-8.534316	,	0
53,53	,	150731	,	-26543	,	-24295	,	-8.5	,	-9.873593	,	0
53,53	,	150763	,	-26546	,	-24292	,	-8.953125	,	-11.075761	,	0
53,53	,	150780	,	-26550	,	-24285	,	-10.265625	,	-11.896208	,	0
53,53	,	150795	,	-26543	,	-24282	,	-0.1875	,	-12.233793	,	0
53,54	,	150827	,	-26543	,	-24282	,	-0.125	,	-12.0009365	,	0
53,54	,	150844	,	-26551	,	-24281	,	-8.09375	,	-11.1732645	,	0
53,54	,	150859	,	-26550	,	-24314	,	-4.6640625	,	-9.925201	,	0
53,54	,	150891	,	-26541	,	-24263	,	5.734375	,	-8.475613	,	1
53,54	,	150907	,	-26508	,	-24271	,	37.015625	,	-6.717292	,	2
53,54	,	150939	,	-26501	,	-24264	,	32.914062	,	-4.1409836	,	3
53,54	,	150955	,	-26511	,	-24270	,	13.03125	,	-0.41540527	,	5
53,54	,	150971	,	-26497	,	-24269	,	23.125	,	4.1243124	,	8
53,54	,	151003	,	-26507	,	-24260	,	6.1875	,	8.767711	,	12
53,54	,	151019	,	-26499	,	-24260	,	12.328125	,	12.82445	,	16
53,54	,	151035	,	-26490	,	-24258	,	17.640625	,	15.837502	,	20
53,54	,	151067	,	-26491	,	-24257	,	11.34375	,	17.713316	,	23
53,54	,	151083	,	-26492	,	-24269	,	6.9375	,	18.532234	,	23
53,54	,	151099	,	-26498	,	-24279	,	-1.140625	,	18.324314	,	22
53,54	,	151131	,	-26493	,	-24254	,	4.203125	,	17.12017	,	21
53,54	,	151147	,	-26493	,	-24263	,	2.9375	,	15.097213	,	19
53,54	,	151179	,	-26498	,	-24261	,	-2.9375	,	12.553046	,	16
53,54	,	151195	,	-26498	,	-24260	,	-2.0625	,	9.755838	,	12
53,54	,	151211	,	-26480	,	-24270	,	16.5625	,	7.002665	,	8
53,54	,	151243	,	-26483	,	-24261	,	8.59375	,	4.7291327	,	4
53,54	,	151259	,	-26484	,	-24258	,	5.015625	,	3.2677999	,	1
53,54	,	151275	,	-26486	,	-24254	,	1.5078125	,	2.5934756	,	0
53,54	,	151307	,	-26479	,	-24268	,	8.0546875	,	2.4732683	,	0
53,54	,	151323	,	-26483	,	-24257	,	1.640625	,	2.6977305	,	0
53,54	,	151355	,	-26494	,	-24272	,	-9.859375	,	3.0309396	,	0
53,54	,	151371	,	-26494	,	-24259	,	-6.890625	,	3.135054	,	0
53,54	,	151387	,	-26492	,	-24269	,	-2.828125	,	2.7746902	,	0
53,54	,	151419	,	-26506	,	-24267	,	-15.984375	,	1.9267099	,	0
53,54	,	151435	,	-26495	,	-24277	,	-0.1875	,	0.6580701	,	0
53,54	,	151451	,	-26511	,	-24268	,	-16.125	,	-0.9048624	,	0
53,54	,	151483	,	-26510	,	-24274	,	-10.296875	,	-2.638387	,	0
53,54	,	151499	,	-26519	,	-24265	,	-16.203125	,	-4.4877596	,	0
53,54	,	151515	,	-26518	,	-24268	,	-10.34375	,	-6.3841915	,	0
53,54	,	151547	,	-26508	,	-24266	,	2.765625	,	-8.128525	,	0
53,54	,	151563	,	-26514	,	-24270	,	-4.0625	,	-9.388817	,	0
53,54	,	151595	,	-26523	,	-24274	,	-11.84375	,	-9.967953	,	0
53,54	,	151611	,	-26523	,	-24286	,	-8.296875	,	-9.988259	,	0
53,54	,	151627	,	-26527	,	-24292	,	-9.8125	,	-9.697753	,	0
53,54	,	151659	,	-26535	,	-24275	,	-14.859375	,	-9.308627	,	0
53,54	,	151675	,	-26540	,	-24283	,	-15.40625	,	-9.029011	,	0
53,54	,	151691	,	-26542	,	-24278	,	-12.78125	,	-9.02346	,	0
53,54	,	151723	,	-26545	,	-24277	,	-11.953125	,	-9.310463	,	0
53,54	,	151739	,	-26561	,	-24288	,	-24.359375	,	-9.845053	,	0
53,54	,	151771	,	-26565	,	-24292	,	-21.054688	,	-10.68404	,	0
53,54	,	151787	,	-26547	,	-24286	,	3.2578125	,	-11.790297	,	0
53,54	,	151803	,	-26545	,	-24277	,	4.28125	,	-12.727735	,	0
53,55	,	151835	,	-26533	,	-24275	,	15.0	,	-12.862232	,	0
53,55	,	151851	,	-26519	,	-24264	,	24.5	,	-11.706411	,	0
53,55	,	151866	,	-26512	,	-24273	,	24.148438	,	-9.017668	,	1
53,55	,	151899	,	-26513	,	-24278	,	15.90625	,	-4.9224963	,	3
53,55	,	151915	,	-26505	,	-24273	,	19.132812	,	0.044510365	,	7
53,55	,	151931	,	-26502	,	-24272	,	16.390625	,	5.201251	,	11
53,55	,	151963	,	-26498	,	-24271	,	15.4765625	,	9.964451	,	16
53,55	,	151979	,	-26500	,	-24263	,	8.8359375	,	13.879277	,	20
53,55	,	152010	,	-26495	,	-24272	,	11.1875	,	16.622444	,	23
53,55	,	152026	,	-26509	,	-24267	,	-6.171875	,	18.005852	,	25
53,55	,	152043	,	-26520	,	-24283	,	-15.328125	,	17.856869	,	26
53,55	,	152075	,	-26511	,	-24259	,	-1.71875	,	16.086248	,	25
53,55	,	152091	,	-26505	,	-24274	,	4.796875	,	13.025604	,	23
53,55	,	152106	,	-26500	,	-24267	,	8.3515625	,	9.426695	,	19
53,55	,	152138	,	-26498	,	-24261	,	7.8515625	,	6.066422	,	15
53,55	,	152154	,	-26512	,	-24266	,	-8.5078125	,	3.3881998	,	10
53,55	,	152186	,	-26507	,	-24264	,	-0.9609375	,	1.4073453	,	6
53,55	,	152202	,	-26505	,	-24266	,	1.328125	,	-0.019461155	,	3
53,55	,	152218	,	-26506	,	-24264	,	-0.0625	,	-0.9530568	,	1
53,55	,	152251	,	-26497	,	-24266	,	8.953125	,	-1.3985317	,	0
53,55	,	152266	,	-26497	,	-24264	,	6.265625	,	-1.3340007	,	0
53,55	,	152282	,	-26505	,	-24297	,	-3.609375	,	-0.80577016	,	0
53,55	,	152314	,	-26499	,	-24245	,	3.46875	,	-0.02925694	,	0
53,55	,	152330	,	-26514	,	-24264	,	-12.5703125	,	0.6959111	,	0
53,55	,	152362	,	-26515	,	-24267	,	-9.8046875	,	1.0536141	,	0
53,55	,	152378	,	-26508	,	-24271	,	0.140625	,	0.8488377	,	0
53,55	,	152394	,	-26528	,	-24274	,	-19.90625	,	0.10779691	,	0
53,55	,	152426	,	-26532	,	-24274	,	-17.929688	,	-1.1514372	,	0
53,55	,	152442	,	-26548	,	-24268	,	-28.554688	,	-3.0318723	,	0
53,55	,	152458	,	-26538	,	-24271	,	-9.984375	,	-5.52705	,	0
53,55	,	152490	,	-26542	,	-24276	,	-10.984375	,	-8.309153	,	0
53,55	,	152506	,	-26543	,	-24273	,	-8.6875	,	-10.853038	,	0
53,55	,	152522	,	-26543	,	-24294	,	-6.0859375	,	-12.743941	,	0
53,55	,	152554	,	-26555	,	-24266	,	-16.257812	,	-13.829042	,	0
53,55	,	152570	,	-26553	,	-24280	,	-9.3828125	,	-14.2119465	,	0
53,55	,	152602	,	-26563	,	-24278	,	-16.570312	,	-14.120057	,	0
53,55	,	152618	,	-26571	,	-24290	,	-19.59375	,	-13.811317	,	0
53,55	,	152634	,	-26558	,	-24287	,	-0.71875	,	-13.475529	,	0
53,55	,	152666	,	-26553	,	-24288	,	4.5	,	-13.00481	,	0
53,55	,	152682	,	-26538	,	-24276	,	18.140625	,	-12.009144	,	0
53,55	,	152698	,	-26529	,	-24273	,	21.703125	,	-10.075315	,	0
53,55	,	152730	,	-26527	,	-24258	,	17.1875	,	-7.0092583	,	1
53,55	,	152746	,	-26519	,	-24256	,	20.03125	,	-2.9733295	,	4
53,55	,	152778	,	-26513	,	-24281	,	20.03125	,	1.6284022	,	8
53,55	,	152794	,	-26490	,	-24244	,	37.015625	,	6.4351883	,	12
53,56	,	152810	,	-26489	,	-24254	,	26.914062	,	11.263181	,	16
53,56	,	152842	,	-26500	,	-24262	,	7.8359375	,	15.833599	,	20
53,56	,	152858	,	-26506	,	-24258	,	-0.515625	,	19.50763	,	24
53,56	,	152874	,	-26510	,	-24263	,	-4.359375	,	21.56423	,	27
53,56	,	152906	,	-26509	,	-24259	,	-2.046875	,	21.640148	,	29
53,56	,	152922	,	-26513	,	-24251	,	-5.4375	,	19.842705	,	28
53,56	,	152938	,	-26502	,	-24262	,	7.1953125	,	16.652142	,	25
53,56	,	152970	,	-26496	,	-24258	,	11.0390625	,	12.823138	,	21
53,56	,	152986	,	-26502	,	-24261	,	1.7265625	,	9.136059	,	17
53,56	,	153018	,	-26507	,	-24275	,	-3.7890625	,	6.023483	,	13
53,56	,	153034	,	-26499	,	-24258	,	5.34375	,	3.5601401	,	9
53,56	,	153050	,	-26487	,	-24267	,	15.7421875	,	1.8148422	,	5
53,56	,	153082	,	-26491	,	-24251	,	7.0234375	,	0.95654297	,	2
53,56	,	153098	,	-26492	,	-24253	,	3.90625	,	0.98494196	,	0
53,56	,	153114	,	-26493	,	-24250	,	1.734375	,	1.6058364	,	0
53,56	,	153146	,	-26494	,	-24254	,	0.21875	,	2.4220893	,	0
53,56	,	153162	,	-26505	,	-24253	,	-10.84375	,	3.0714004	,	0
53,56	,	153194	,	-26505	,	-24265	,	-7.59375	,	3.2370133	,	0
53,56	,	153210	,	-26503	,	-24256	,	-3.3125	,	2.76576	,	0
53,56	,	153226	,	-26500	,	-24263	,	0.6796875	,	1.7850828	,	0
53,56	,	153257	,	-26504	,	-24260	,	-3.5234375	,	0.5838269	,	0
53,56	,	153273	,	-26504	,	-24265	,	-2.46875	,	-0.59334517	,	0
53,56	,	153290	,	-26511	,	-24262	,	-8.7265625	,	-1.6344651	,	0
53,56	,	153322	,	-26509	,	-24263	,	-4.109375	,	-2.538752	,	0
53,56	,	153338	,	-26524	,	-24260	,	-17.875	,	-3.382335	,	0
53,56	,	153354	,	-26527	,	-24269	,	-15.515625	,	-4.3276477	,	0
53,56	,	153386	,	-26536	,	-24270	,	-19.859375	,	-5.553804	,	0
53,56	,	153401	,	-26544	,	-24269	,	-21.898438	,	-7.148081	,	0
53,56	,	153433	,	-26531	,	-24269	,	-2.328125	,	-9.009434	,	0
53,56	,	153450	,	-26539	,	-24290	,	-9.6328125	,	-10.7813835	,	0
53,56	,	153466	,	-26542	,	-24288	,	-9.7421875	,	-12.083767	,	0
53,56	,	153498	,	-26538	,	-24274	,	-2.8203125	,	-12.748978	,	0
53,56	,	153514	,	-26561	,	-24286	,	-24.976562	,	-12.8271675	,	0
53,56	,	153530	,	-26562	,	-24284	,	-18.484375	,	-12.630333	,	0
53,56	,	153561	,	-26535	,	-24278	,	14.0625	,	-12.403221	,	0
53,56	,	153577	,	-26530	,	-24270	,	14.84375	,	-11.836734	,	0
53,56	,	153609	,	-26528	,	-24259	,	12.390625	,	-10.392002	,	0
53,56	,	153625	,	-26506	,	-24262	,	30.671875	,	-7.818433	,	1
53,56	,	153642	,	-26489	,	-24245	,	38.46875	,	-4.032685	,	3
53,56	,	153674	,	-26496	,	-24245	,	19.9375	,	0.91297626	,	6
53,56	,	153690	,	-26481	,	-24251	,	28.953125	,	6.5694227	,	10
53,56	,	153705	,	-26489	,	-24267	,	12.265625	,	12.2019	,	15
53,56	,	153737	,	-26484	,	-24223	,	13.5859375	,	17.070105	,	20
53,56	,	153753	,	-26480	,	-24241	,	13.5078125	,	20.608784	,	24
53,56	,	153769	,	-26484	,	-24240	,	5.453125	,	22.55744	,	27
53,56	,	153801	,	-26478	,	-24242	,	9.8203125	,	22.916157	,	28
53,57	,	153817	,	-26489	,	-24251	,	-4.125	,	21.838245	,	27
53,57	,	153849	,	-26478	,	-24247	,	8.1171875	,	19.585842	,	25
53,57	,	153865	,	-26473	,	-24238	,	10.671875	,	16.593445	,	22
53,57	,	153881	,	-26471	,	-24249	,	9.4765625	,	13.444586	,	18
53,57	,	153913	,	-26480	,	-24239	,	-2.3671875	,	10.579487	,	13
53,57	,	153929	,	-26463	,	-24239	,	15.34375	,	8.181643	,	8
53,57	,	153945	,	-26476	,	-24271	,	-2.265625	,	6.3433027	,	4
53,57	,	153977	,	-26467	,	-24222	,	7.421875	,	5.067102	,	1
53,57	,	153993	,	-26476	,	-24249	,	-3.8125	,	4.220672	,	0
53,57	,	154025	,	-26486	,	-24252	,	-12.6640625	,	3.5576448	,	0
53,57	,	154041	,	-26480	,	-24249	,	-2.8671875	,	2.774292	,	0
53,57	,	154057	,	-26475	,	-24243	,	3.0	,	1.7701275	,	0
53,57	,	154089	,	-26479	,	-24259	,	-1.90625	,	0.7281425	,	0
53,57	,	154105	,	-26482	,	-24263	,	-4.328125	,	-0.17165756	,	0
53,57	,	154121	,	-26484	,	-24259	,	-5.03125	,	-0.91730535	,	0
53,57	,	154153	,	-26488	,	-24253	,	-7.5234375	,	-1.5886402	,	0
53,57	,	154169	,	-26493	,	-24258	,	-10.265625	,	-2.2826316	,	0
53,57	,	154201	,	-26497	,	-24270	,	-11.1875	,	-3.0953357	,	0
53,57	,	154217	,	-26498	,	-24247	,	-8.8359375	,	-4.071861	,	0
53,57	,	154233	,	-26509	,	-24244	,	-17.179688	,	-5.1957026	,	0
53,57	,	154265	,	-26515	,	-24261	,	-18.023438	,	-6.485279	,	0
53,57	,	154281	,	-26524	,	-24258	,	-21.625	,	-8.013347	,	0
53,57	,	154313	,	-26521	,	-24258	,	-12.1328125	,	-9.770133	,	0
53,57	,	154329	,	-26518	,	-24254	,	-5.4921875	,	-11.52849	,	0
53,57	,	154345	,	-26529	,	-24268	,	-14.84375	,	-12.943744	,	0
53,57	,	154377	,	-26535	,	-24271	,	-16.390625	,	-13.857529	,	0
53,57	,	154393	,	-26525	,	-24271	,	-1.46875	,	-14.303024	,	0
53,57	,	154409	,	-26537	,	-24264	,	-13.03125	,	-14.278128	,	0
53,57	,	154441	,	-26528	,	-24289	,	-0.125	,	-13.771862	,	0
53,57	,	154457	,	-26549	,	-24268	,	-21.085938	,	-12.899569	,	0
53,57	,	154473	,	-26534	,	-24266	,	0.2421875	,	-11.885567	,	0
53,57	,	154505	,	-26521	,	-24262	,	13.171875	,	-10.774176	,	1
53,57	,	154521	,	-26505	,	-24263	,	25.21875	,	-9.202932	,	2
53,57	,	154553	,	-26494	,	-24254	,	28.648438	,	-6.671968	,	3
53,57	,	154569	,	-26485	,	-24246	,	29.054688	,	-2.9346104	,	5
53,57	,	154585	,	-26497	,	-24242	,	8.34375	,	1.7792444	,	8
53,57	,	154616	,	-26470	,	-24255	,	32.835938	,	6.8504453	,	12
53,57	,	154633	,	-26478	,	-24274	,	14.984375	,	11.693244	,	17
53,57	,	154649	,	-26483	,	-24222	,	5.4921875	,	15.832265	,	21
53,57	,	154681	,	-26471	,	-24248	,	15.84375	,	18.791525	,	25
53,57	,	154697	,	-26489	,	-24247	,	-6.90625	,	20.275364	,	26
53,57	,	154729	,	-26492	,	-24250	,	-7.84375	,	20.149506	,	26
53,57	,	154745	,	-26490	,	-24246	,	-3.484375	,	18.398525	,	25
53,57	,	154761	,	-26488	,	-24240	,	-0.4375	,	15.331085	,	23
53,57	,	154793	,	-26484	,	-24250	,	3.6875	,	11.555216	,	20
53,58	,	154808	,	-26476	,	-24245	,	10.578125	,	7.765402	,	16
53,58	,	154825	,	-26467	,	-24246	,	16.40625	,	4.6195936	,	11
53,58	,	154857	,	-26473	,	-24240	,	5.484375	,	2.5769038	,	7
53,58	,	154873	,	-26477	,	-24252	,	-0.15625	,	1.6692746	,	3
53,58	,	154905	,	-26486	,	-24228	,	-9.109375	,	1.4984164	,	1
53,58	,	154921	,	-26484	,	-24237	,	-4.375	,	1.5225369	,	0
53,58	,	154937	,	-26480	,	-24250	,	0.9375	,	1.389863	,	0
53,58	,	154968	,	-26480	,	-24237	,	0.65625	,	1.0544552	,	0
53,58	,	154984	,	-26486	,	-24244	,	-5.546875	,	0.601278	,	0
53,58	,	155000	,	-26482	,	-24243	,	0.125	,	0.08026332	,	0
53,58	,	155033	,	-26484	,	-24245	,	-1.921875	,	-0.45798278	,	0
53,58	,	155049	,	-26497	,	-24250	,	-14.34375	,	-0.99540293	,	0
53,58	,	155065	,	-26487	,	-24252	,	-0.03125	,	-1.6122679	,	0
53,58	,	155096	,	-26485	,	-24247	,	1.96875	,	-2.2941113	,	0
53,58	,	155113	,	-26481	,	-24252	,	5.3828125	,	-2.8252397	,	0
53,58	,	155144	,	-26494	,	-24246	,	-9.234375	,	-3.0401192	,	0
53,58	,	155160	,	-26510	,	-24255	,	-22.460938	,	-3.1106534	,	0
53,58	,	155176	,	-26504	,	-24256	,	-9.71875	,	-3.4451754	,	0
53,58	,	155208	,	-26508	,	-24253	,	-10.8125	,	-4.246625	,	0
53,58	,	155225	,	-26519	,	-24253	,	-18.5625	,	-5.4246435	,	0
53,58	,	155241	,	-26520	,	-24263	,	-14.0	,	-6.8713937	,	0
53,58	,	155272	,	-26524	,	-24255	,	-13.796875	,	-8.490172	,	0
53,58	,	155288	,	-26517	,	-24268	,	-2.65625	,	-10.0572815	,	0
53,58	,	155320	,	-26526	,	-24263	,	-10.859375	,	-11.265324	,	0
53,58	,	155336	,	-26521	,	-24269	,	-2.6015625	,	-11.903044	,	0
53,58	,	155352	,	-26526	,	-24268	,	-6.8203125	,	-11.916447	,	0
53,58	,	155384	,	-26512	,	-24255	,	9.21875	,	-11.301441	,	0
53,58	,	155400	,	-26494	,	-24252	,	24.453125	,	-9.92502	,	0
53,58	,	155416	,	-26471	,	-24246	,	40.125	,	-7.427808	,	1
53,58	,	155448	,	-26477	,	-24248	,	22.085938	,	-3.509469	,	3
53,58	,	155464	,	-26479	,	-24245	,	13.4609375	,	1.5658584	,	6
53,58	,	155480	,	-26465	,	-24239	,	23.421875	,	7.0118265	,	11
53,58	,	155512	,	-26471	,	-24252	,	10.390625	,	12.051953	,	16
53,58	,	155528	,	-26478	,	-24248	,	0.28125	,	16.070118	,	21
53,58	,	155560	,	-26465	,	-24250	,	13.1875	,	18.590757	,	25
53,58	,	155576	,	-26479	,	-24262	,	-4.765625	,	19.464136	,	27
53,58	,	155592	,	-26476	,	-24247	,	-0.328125	,	18.797781	,	27
53,58	,	155624	,	-26491	,	-24245	,	-15.234375	,	16.749329	,	26
53,58	,	155640	,	-26480	,	-24239	,	0.3359375	,	13.552597	,	24
53,58	,	155656	,	-26479	,	-24245	,	1.234375	,	9.669479	,	21
53,58	,	155688	,	-26474	,	-24242	,	5.8671875	,	5.763522	,	16
53,58	,	155704	,	-26470	,	-24250	,	8.109375	,	2.4559088	,	11
53,58	,	155736	,	-26470	,	-24245	,	5.671875	,	0.14590693	,	6
53,58	,	155752	,	-26467	,	-24243	,	6.96875	,	-1.0474954	,	2
53,58	,	155768	,	-26471	,	-24247	,	0.875	,	-1.2674379	,	0
53,58	,	155800	,	-26469	,	-24250	,	2.6171875	,	-0.82431287	,	0
53,59	,	155816	,	-26482	,	-24265	,	-11.1640625	,	-0.11460045	,	0
53,59	,	155832	,	-26473	,	-24239	,	1.1796875	,	0.47251958	,	0
53,59	,	155864	,	-26482	,	-24255	,	-8.171875	,	0.70667475	,	0
53,59	,	155880	,	-26483	,	-24247	,	-6.7265625	,	0.5247881	,	0
53,59	,	155896	,	-26477	,	-24242	,	1.296875	,	-0.029697016	,	0
53,59	,	155928	,	-26484	,	-24249	,	-6.09375	,	-0.7963232	,	0
53,59	,	155944	,	-26484	,	-24250	,	-4.265625	,	-1.6133887	,	0
53,59	,	155976	,	-26494	,	-24249	,	-12.984375	,	-2.4413311	,	0
53,59	,	155992	,	-26498	,	-24256	,	-13.09375	,	-3.3524015	,	0
53,59	,	156008	,	-26499	,	-24262	,	-10.15625	,	-4.435534	,	0
53,59	,	156040	,	-26492	,	-24256	,	-0.109375	,	-5.622012	,	0
53,59	,	156056	,	-26509	,	-24282	,	-17.078125	,	-6.716447	,	0
53,59	,	156072	,	-26516	,	-24258	,	-18.953125	,	-7.692835	,	0
53,59	,	156104	,	-26517	,	-24272	,	-14.2734375	,	-8.713367	,	0
53,59	,	156120	,	-26532	,	-24266	,	-24.992188	,	-9.893965	,	0
53,59	,	156152	,	-26525	,	-24260	,	-10.4921875	,	-11.238605	,	0
53,59	,	156168	,	-26527	,	-24275	,	-9.34375	,	-12.587293	,	0
53,59	,	156184	,	-26526	,	-24272	,	-5.5390625	,	-13.627425	,	0
53,59	,	156216	,	-26525	,	-24269	,	-2.875	,	-14.075586	,	0
53,59	,	156231	,	-26519	,	-24263	,	3.984375	,	-13.759795	,	0
53,59	,	156248	,	-26505	,	-24264	,	16.78125	,	-12.553177	,	0
53,59	,	156280	,	-26491	,	-24256	,	25.75	,	-10.287695	,	1
53,59	,	156296	,	-26476	,	-24274	,	33.03125	,	-6.7845554	,	3
53,59	,	156312	,	-26485	,	-24239	,	14.1171875	,	-2.101873	,	6
53,59	,	156344	,	-26487	,	-24253	,	7.8828125	,	3.194942	,	10
53,59	,	156359	,	-26475	,	-24248	,	17.515625	,	8.243761	,	15
53,59	,	156392	,	-26470	,	-24234	,	17.265625	,	12.445383	,	20
53,59	,	156407	,	-26470	,	-24238	,	12.078125	,	15.597605	,	24
53,59	,	156424	,	-26471	,	-24245	,	7.4609375	,	17.627552	,	27
53,59	,	156456	,	-26480	,	-24245	,	-3.7734375	,	18.435194	,	29
53,59	,	156472	,	-26480	,	-24249	,	-2.640625	,	17.929558	,	28
53,59	,	156487	,	-26482	,	-24244	,	-3.859375	,	16.166405	,	26
53,59	,	156519	,	-26481	,	-24243	,	-1.6953125	,	13.427053	,	23
53,59	,	156535	,	-26476	,	-24266	,	3.8125	,	10.1615505	,	19
53,59	,	156567	,	-26464	,	-24233	,	14.6640625	,	6.9333544	,	14
53,59	,	156584	,	-26475	,	-24245	,	-0.734375	,	4.2791824	,	9
53,59	,	156600	,	-26473	,	-24240	,	1.484375	,	2.4288983	,	5
53,59	,	156632	,	-26466	,	-24251	,	8.046875	,	1.3160982	,	2
53,59	,	156647	,	-26468	,	-24247	,	3.625	,	0.8422766	,	0
53,59	,	156664	,	-26472	,	-24256	,	-1.453125	,	0.87836456	,	0
53,59	,	156696	,	-26474	,	-24250	,	-3.015625	,	1.1659622	,	0
53,59	,	156712	,	-26482	,	-24245	,	-10.1171875	,	1.3844101	,	0
53,59	,	156744	,	-26490	,	-24247	,	-15.0859375	,	1.2158029	,	0
53,59	,	156760	,	-26493	,	-24249	,	-13.5546875	,	0.41582024	,	0
53,59	,	156776	,	-26490	,	-24262	,	-6.4921875	,	-1.0286798	,	0
54,0	,	156807	,	-26496	,	-24251	,	-10.546875	,	-2.8673186	,	0
54,0	,	156823	,	-26503	,	-24258	,	-14.375	,	-4.808651	,	0
54,0	,	156839	,	-26498	,	-24261	,	-5.0625	,	-6.6615176	,	0
54,0	,	156872	,	-26505	,	-24261	,	-10.546875	,	-8.253632	,	0
54,0	,	156887	,	-26506	,	-24255	,	-8.3828125	,	-9.443197	,	0
54,0	,	156903	,	-26508	,	-24263	,	-7.8671875	,	-10.186048	,	0
54,0	,	156935	,	-26516	,	-24261	,	-13.5078125	,	-10.523668	,	0
54,0	,	156952	,	-26520	,	-24264	,	-13.453125	,	-10.59758	,	0
54,0	,	156983	,	-26517	,	-24262	,	-6.4140625	,	-10.56617	,	0
54,0	,	156999	,	-26516	,	-24268	,	-3.5	,	-10.43808	,	0
54,0	,	157015	,	-26535	,	-24266	,	-21.445312	,	-10.18305	,	0
54,0	,	157047	,	-26525	,	-24268	,	-5.0078125	,	-9.923574	,	0
54,0	,	157063	,	-26539	,	-24273	,	-17.507812	,	-9.799477	,	0
54,0	,	157079	,	-26531	,	-24281	,	-4.2578125	,	-9.823359	,	0
54,0	,	157111	,	-26549	,	-24283	,	-20.984375	,	-9.959247	,	0
54,0	,	157127	,	-26522	,	-24273	,	12.3125	,	-10.11185	,	0
54,0	,	157159	,	-26525	,	-24277	,	5.625	,	-9.970131	,	0
54,0	,	157175	,	-26509	,	-24265	,	19.9375	,	-9.098953	,	0
54,0	,	157191	,	-26502	,	-24257	,	20.953125	,	-7.200597	,	0
54,0	,	157223	,	-26497	,	-24254	,	19.671875	,	-4.2167735	,	1
54,0	,	157239	,	-26483	,	-24263	,	27.765625	,	-0.32357407	,	3
54,0	,	157255	,	-26484	,	-24243	,	18.4375	,	4.146427	,	6
54,0	,	157287	,	-26491	,	-24247	,	5.90625	,	8.682185	,	10
54,0	,	157303	,	-26478	,	-24254	,	17.132812	,	12.64157	,	14
54,0	,	157319	,	-26473	,	-24248	,	16.992188	,	15.614978	,	17
54,0	,	157351	,	-26473	,	-24250	,	11.890625	,	17.546173	,	19
54,0	,	157367	,	-26475	,	-24249	,	6.328125	,	18.471043	,	20
54,0	,	157399	,	-26479	,	-24253	,	0.4296875	,	18.375988	,	20
54,0	,	157415	,	-26483	,	-24244	,	-3.6953125	,	17.246342	,	19
54,0	,	157431	,	-26486	,	-24248	,	-5.59375	,	15.142295	,	17
54,0	,	157463	,	-26476	,	-24249	,	6.09375	,	12.300073	,	14
54,0	,	157479	,	-26479	,	-24254	,	1.265625	,	9.161627	,	10
54,0	,	157495	,	-26475	,	-24230	,	4.875	,	6.1971664	,	6
54,0	,	157527	,	-26478	,	-24253	,	0.421875	,	3.7131853	,	3
54,0	,	157543	,	-26481	,	-24238	,	-2.703125	,	1.8131247	,	1
54,0	,	157575	,	-26473	,	-24245	,	6.1015625	,	0.47940612	,	0
54,0	,	157591	,	-26478	,	-24251	,	-0.7265625	,	-0.30977607	,	0
54,0	,	157607	,	-26491	,	-24253	,	-13.515625	,	-0.67616963	,	0
54,0	,	157639	,	-26480	,	-24248	,	1.546875	,	-0.90515256	,	0
54,0	,	157655	,	-26488	,	-24258	,	-6.921875	,	-1.1945277	,	0
54,0	,	157671	,	-26486	,	-24263	,	-2.84375	,	-1.5581473	,	0
54,0	,	157703	,	-26481	,	-24252	,	3.015625	,	-1.9270017	,	0
54,0	,	157719	,	-26484	,	-24278	,	-0.890625	,	-2.1731143	,	0
54,0	,	157735	,	-26488	,	-24247	,	-4.625	,	-2.2207189	,	0
54,0	,	157767	,	-26515	,	-24266	,	-30.234375	,	-2.269196	,	0
54,0	,	157783	,	-26510	,	-24250	,	-16.171875	,	-2.786117	,	0
54,1	,	157815	,	-26513	,	-24266	,	-14.3125	,	-4.0675883	,	0
54,1	,	157831	,	-26515	,	-24258	,	-12.0234375	,	-5.9522085	,	0
54,1	,	157847	,	-26521	,	-24262	,	-14.4140625	,	-8.06929	,	0
54,1	,	157879	,	-26523	,	-24265	,	-12.09375	,	-10.103702	,	0
54,1	,	157895	,	-26530	,	-24274	,	-15.46875	,	-11.850257	,	0
54,1	,	157911	,	-26522	,	-24273	,	-2.828125	,	-13.15987	,	0
54,1	,	157943	,	-26535	,	-24280	,	-14.9765625	,	-13.896696	,	0
54,1	,	157959	,	-26523	,	-24293	,	1.515625	,	-14.000434	,	0
54,1	,	157991	,	-26527	,	-24273	,	-2.9375	,	-13.462084	,	0
54,1	,	158007	,	-26542	,	-24282	,	-17.054688	,	-12.3715925	,	0
54,1	,	158022	,	-26557	,	-24279	,	-26.9375	,	-11.140619	,	1
54,1	,	158054	,	-26543	,	-24281	,	-4.859375	,	-10.286036	,	2
54,1	,	158070	,	-26556	,	-24289	,	-16.40625	,	-9.958242	,	2
54,1	,	158086	,	-26544	,	-24281	,	0.515625	,	-9.968599	,	2
54,1	,	158118	,	-26529	,	-24270	,	15.3671875	,	-9.932637	,	2
54,1	,	158134	,	-26519	,	-24269	,	20.757812	,	-9.270323	,	2
54,1	,	158166	,	-26507	,	-24276	,	26.53125	,	-7.4564633	,	2
54,1	,	158182	,	-26503	,	-24269	,	22.570312	,	-4.311448	,	3
54,1	,	158199	,	-26503	,	-24280	,	15.796875	,	-0.09154987	,	6
54,1	,	158230	,	-26494	,	-24258	,	20.054688	,	4.6246696	,	9
54,1	,	158246	,	-26504	,	-24268	,	4.046875	,	9.173016	,	12
54,1	,	158263	,	-26521	,	-24264	,	-14.171875	,	12.822559	,	16
54,1	,	158294	,	-26504	,	-24265	,	7.078125	,	14.892889	,	19
54,1	,	158310	,	-26508	,	-24258	,	0.953125	,	15.203768	,	21
54,1	,	158326	,	-26509	,	-24267	,	-0.328125	,	14.089832	,	21
54,1	,	158358	,	-26503	,	-24265	,	5.765625	,	12.031572	,	21
54,1	,	158374	,	-26510	,	-24269	,	-2.9609375	,	9.506681	,	20
54,1	,	158406	,	-26505	,	-24265	,	2.9296875	,	6.909498	,	17
54,1	,	158422	,	-26499	,	-24268	,	8.046875	,	4.546312	,	13
54,1	,	158438	,	-26505	,	-24264	,	-0.359375	,	2.679193	,	9
54,1	,	158471	,	-26492	,	-24261	,	12.7421875	,	1.4606278	,	5
54,1	,	158486	,	-26505	,	-24268	,	-4.078125	,	0.90066147	,	2
54,1	,	158502	,	-26508	,	-24271	,	-5.8515625	,	0.80619764	,	0
54,1	,	158534	,	-26506	,	-24267	,	-2.1015625	,	0.8354154	,	0
54,1	,	158550	,	-26510	,	-24268	,	-5.46875	,	0.74224234	,	0
54,1	,	158582	,	-26514	,	-24259	,	-7.828125	,	0.42263806	,	0
54,1	,	158598	,	-26515	,	-24266	,	-6.4765625	,	-0.1714715	,	0
54,1	,	158614	,	-26509	,	-24257	,	1.4609375	,	-0.98565745	,	0
54,1	,	158646	,	-26534	,	-24270	,	-23.976562	,	-1.9342338	,	0
54,1	,	158662	,	-26519	,	-24283	,	-1.78125	,	-3.0495102	,	0
54,1	,	158678	,	-26513	,	-24260	,	4.75	,	-4.245198	,	0
54,1	,	158710	,	-26530	,	-24286	,	-13.671875	,	-5.2316613	,	0
54,1	,	158726	,	-26539	,	-24272	,	-18.578125	,	-5.9634814	,	0
54,1	,	158742	,	-26539	,	-24275	,	-13.0	,	-6.704066	,	0
54,1	,	158774	,	-26533	,	-24276	,	-3.09375	,	-7.5806465	,	0
54,1	,	158790	,	-26540	,	-24275	,	-9.171875	,	-8.4332905	,	0
54,2	,	158822	,	-26543	,	-24284	,	-9.421875	,	-9.077813	,	0
54,2	,	158838	,	-26545	,	-24287	,	-8.59375	,	-9.473972	,	0
54,2	,	158854	,	-26546	,	-24283	,	-7.015625	,	-9.642324	,	0
54,2	,	158886	,	-26555	,	-24298	,	-13.90625	,	-9.62735	,	0
54,2	,	158902	,	-26556	,	-24303	,	-10.734375	,	-9.535782	,	0
54,2	,	158918	,	-26560	,	-24279	,	-11.515625	,	-9.477785	,	0
54,2	,	158950	,	-26563	,	-24295	,	-11.0625	,	-9.501305	,	0
54,2	,	158966	,	-26556	,	-24291	,	-0.75	,	-9.56031	,	0
54,2	,	158998	,	-26537	,	-24276	,	18.484375	,	-9.385709	,	0
54,2	,	159014	,	-26533	,	-24285	,	16.9375	,	-8.495113	,	0
54,2	,	159030	,	-26523	,	-24276	,	21.859375	,	-6.519887	,	0
54,2	,	159062	,	-26515	,	-24271	,	23.296875	,	-3.4190073	,	1
54,2	,	159078	,	-26511	,	-24266	,	20.3125	,	0.58215976	,	4
54,2	,	159094	,	-26518	,	-24267	,	7.21875	,	5.0110984	,	8
54,2	,	159126	,	-26509	,	-24267	,	14.046875	,	9.215545	,	12
54,2	,	159142	,	-26508	,	-24285	,	10.828125	,	12.651329	,	16
54,2	,	159158	,	-26512	,	-24253	,	3.5859375	,	15.018469	,	19
54,2	,	159190	,	-26515	,	-24270	,	-0.4921875	,	16.141003	,	21
54,2	,	159206	,	-26522	,	-24276	,	-7.34375	,	15.922346	,	22
54,2	,	159318	,	-26502	,	-24278	,	12.65625	,	3.486115	,	10
54,2	,	159334	,	-26507	,	-24265	,	3.859375	,	1.6975031	,	6
54,2	,	159366	,	-26515	,	-24284	,	-5.296875	,	0.77964973	,	3
54,2	,	159382	,	-26515	,	-24297	,	-3.71875	,	0.4199431	,	1
54,2	,	159414	,	-26513	,	-24254	,	-0.59375	,	0.27047783	,	0
54,2	,	159430	,	-26519	,	-24275	,	-6.421875	,	0.14042407	,	0
54,2	,	159446	,	-26527	,	-24278	,	-12.4921875	,	-0.120239705	,	0
54,2	,	159477	,	-26521	,	-24273	,	-2.7421875	,	-0.65752745	,	0
54,2	,	159494	,	-26535	,	-24282	,	-15.921875	,	-1.5035528	,	0
54,2	,	159510	,	-26524	,	-24291	,	-0.140625	,	-2.585271	,	0
54,2	,	159542	,	-26536	,	-24274	,	-12.109375	,	-3.7658978	,	0
54,2	,	159558	,	-26537	,	-24285	,	-9.46875	,	-4.923791	,	0
54,2	,	159574	,	-26542	,	-24281	,	-11.625	,	-6.028381	,	0
54,2	,	159606	,	-26531	,	-24292	,	2.859375	,	-7.0138817	,	0
54,2	,	159622	,	-26547	,	-24305	,	-14.0	,	-7.7385974	,	0
54,2	,	159654	,	-26549	,	-24277	,	-11.796875	,	-8.193727	,	0
54,2	,	159670	,	-26561	,	-24277	,	-20.265625	,	-8.573131	,	0
54,2	,	159686	,	-26561	,	-24289	,	-14.1875	,	-9.100623	,	0
54,2	,	159717	,	-26565	,	-24287	,	-13.921875	,	-9.857988	,	0
54,2	,	159733	,	-26565	,	-24292	,	-9.75	,	-10.737224	,	0
54,2	,	159750	,	-26567	,	-24291	,	-8.828125	,	-11.527277	,	0
54,2	,	159782	,	-26578	,	-24302	,	-17.171875	,	-12.082261	,	0
54,2	,	159798	,	-26582	,	-24292	,	-16.023438	,	-12.445528	,	0
54,3	,	159829	,	-26586	,	-24296	,	-15.21875	,	-12.762922	,	0
54,3	,	159845	,	-26589	,	-24301	,	-13.6484375	,	-13.103947	,	0
54,3	,	159861	,	-26595	,	-24314	,	-15.5625	,	-13.445835	,	0
54,3	,	159893	,	-26578	,	-24293	,	6.109375	,	-13.659178	,	0
54,3	,	159909	,	-26561	,	-24281	,	21.28125	,	-13.345128	,	0
54,3	,	159925	,	-26550	,	-24278	,	25.890625	,	-11.899477	,	0
54,3	,	159958	,	-26534	,	-24280	,	34.125	,	-8.8824215	,	1
54,3	,	159974	,	-26536	,	-24276	,	21.890625	,	-4.290318	,	4
54,3	,	160005	,	-26525	,	-24276	,	26.328125	,	1.4062147	,	8
54,3	,	160022	,	-26517	,	-24271	,	26.421875	,	7.5001006	,	13
54,3	,	160037	,	-26523	,	-24277	,	12.5	,	13.298945	,	19
54,3	,	160069	,	-26512	,	-24254	,	19.75	,	18.168709	,	24
54,3	,	160085	,	-26510	,	-24276	,	15.828125	,	21.675537	,	28
54,3	,	160101	,	-26518	,	-24263	,	3.078125	,	23.646702	,	31
54,3	,	160133	,	-26524	,	-24267	,	-3.84375	,	23.979137	,	32
54,3	,	160149	,	-26508	,	-24270	,	13.3046875	,	22.707443	,	31
54,3	,	160166	,	-26525	,	-24267	,	-7.6875	,	20.17461	,	28
54,3	,	160197	,	-26520	,	-24265	,	-0.3828125	,	16.812366	,	24
54,3	,	160213	,	-26508	,	-24256	,	11.734375	,	13.043816	,	19
54,3	,	160245	,	-26509	,	-24265	,	7.21875	,	9.425717	,	13
54,3	,	160261	,	-26513	,	-24267	,	1.046875	,	6.4340777	,	8
54,3	,	160277	,	-26516	,	-24270	,	-2.265625	,	4.188007	,	4
54,3	,	160309	,	-26516	,	-24268	,	-1.5859375	,	2.5511837	,	1
54,3	,	160325	,	-26523	,	-24272	,	-8.109375	,	1.3211813	,	0
54,3	,	160341	,	-26512	,	-24260	,	5.3203125	,	0.33883476	,	0
54,3	,	160373	,	-26519	,	-24261	,	-3.2734375	,	-0.42549133	,	0
54,3	,	160389	,	-26518	,	-24267	,	-1.2890625	,	-0.94841814	,	0
54,3	,	160421	,	-26518	,	-24267	,	-0.90625	,	-1.2612262	,	0
54,3	,	160437	,	-26528	,	-24266	,	-10.6328125	,	-1.4480408	,	0
54,3	,	160453	,	-26531	,	-24268	,	-10.4453125	,	-1.6829634	,	0
54,3	,	160485	,	-26530	,	-24267	,	-6.3125	,	-2.148929	,	0
54,3	,	160501	,	-26538	,	-24268	,	-12.421875	,	-2.891866	,	0
54,3	,	160517	,	-26534	,	-24276	,	-4.6875	,	-3.84534	,	0
54,3	,	160549	,	-26538	,	-24270	,	-7.28125	,	-4.870669	,	0
54,3	,	160565	,	-26555	,	-24296	,	-22.09375	,	-5.8802977	,	0
54,3	,	160581	,	-26549	,	-24264	,	-9.46875	,	-6.9542875	,	0
54,3	,	160613	,	-26557	,	-24286	,	-14.625	,	-8.144722	,	0
54,3	,	160629	,	-26561	,	-24287	,	-14.2421875	,	-9.367371	,	0
54,3	,	160661	,	-26551	,	-24283	,	0.03125	,	-10.472424	,	0
54,3	,	160677	,	-26556	,	-24281	,	-4.9765625	,	-11.211923	,	0
54,3	,	160693	,	-26568	,	-24290	,	-15.484375	,	-11.41732	,	0
54,3	,	160725	,	-26557	,	-24284	,	0.15625	,	-11.173426	,	0
54,3	,	160741	,	-26572	,	-24288	,	-14.890625	,	-10.639385	,	0
54,3	,	160757	,	-26561	,	-24278	,	0.578125	,	-9.933607	,	0
54,3	,	160789	,	-26586	,	-24290	,	-24.59375	,	-9.212507	,	0
54,4	,	160805	,	-26568	,	-24309	,	0.78125	,	-8.674498	,	0
54,4	,	160837	,	-26560	,	-24265	,	8.546875	,	-8.294348	,	0
54,4	,	160853	,	-26526	,	-24281	,	39.984375	,	-7.555041	,	0
54,4	,	160869	,	-26537	,	-24279	,	16.984375	,	-5.744773	,	0
54,4	,	160901	,	-26525	,	-24278	,	23.890625	,	-2.6055834	,	1
54,4	,	160917	,	-26528	,	-24266	,	13.7265625	,	1.4965708	,	4
54,4	,	160933	,	-26518	,	-24261	,	19.609375	,	5.9364033	,	8
54,4	,	160965	,	-26524	,	-24266	,	7.7265625	,	10.110328	,	12
54,4	,	160981	,	-26518	,	-24266	,	11.40625	,	13.510391	,	16
54,4	,	160997	,	-26517	,	-24268	,	8.984375	,	15.808968	,	19
54,4	,	161029	,	-26517	,	-24270	,	6.296875	,	16.91087	,	21
54,4	,	161045	,	-26508	,	-24284	,	13.40625	,	16.926592	,	22
54,4	,	161076	,	-26515	,	-24259	,	2.375	,	16.107307	,	22
54,4	,	161093	,	-26524	,	-24273	,	-7.328125	,	14.642246	,	21
54,4	,	161109	,	-26514	,	-24265	,	4.8671875	,	12.592468	,	18
54,4	,	161141	,	-26511	,	-24264	,	6.40625	,	10.155224	,	14
54,4	,	161157	,	-26510	,	-24277	,	5.484375	,	7.723221	,	10
54,4	,	161173	,	-26516	,	-24269	,	-2.1640625	,	5.6053376	,	6
54,4	,	161205	,	-26512	,	-24268	,	2.484375	,	3.8844957	,	3
54,4	,	161221	,	-26509	,	-24272	,	4.7421875	,	2.5552723	,	1
54,4	,	161252	,	-26514	,	-24276	,	-1.6796875	,	1.6232698	,	0
54,4	,	161269	,	-26511	,	-24263	,	1.828125	,	1.0408483	,	0
54,4	,	161285	,	-26513	,	-24287	,	-0.71875	,	0.70673585	,	0
54,4	,	161317	,	-26521	,	-24271	,	-8.5078125	,	0.49335766	,	0
54,4	,	161333	,	-26518	,	-24270	,	-2.9609375	,	0.2370224	,	0
54,4	,	161349	,	-26529	,	-24275	,	-13.0625	,	-0.20764491	,	0
54,4	,	161381	,	-26533	,	-24281	,	-13.1484375	,	-0.9677886	,	0
54,4	,	161397	,	-26533	,	-24271	,	-9.203125	,	-2.1265159	,	0
54,4	,	161412	,	-26543	,	-24283	,	-16.445312	,	-3.6360896	,	0
54,4	,	161444	,	-26540	,	-24286	,	-8.515625	,	-5.358067	,	0
54,4	,	161460	,	-26556	,	-24282	,	-21.953125	,	-7.152805	,	0
54,4	,	161493	,	-26548	,	-24290	,	-7.375	,	-8.911499	,	0
54,4	,	161509	,	-26542	,	-24295	,	0.84375	,	-10.436561	,	0
54,4	,	161525	,	-26556	,	-24290	,	-13.40625	,	-11.444105	,	0
54,4	,	161557	,	-26554	,	-24284	,	-7.390625	,	-11.84596	,	0
54,4	,	161573	,	-26560	,	-24288	,	-11.171875	,	-11.780409	,	0
54,4	,	161589	,	-26577	,	-24293	,	-24.820312	,	-11.495127	,	0
54,4	,	161621	,	-26585	,	-24298	,	-25.375	,	-11.375635	,	0
54,4	,	161637	,	-26566	,	-24290	,	1.2421875	,	-11.67174	,	0
54,4	,	161668	,	-26575	,	-24303	,	-8.1328125	,	-12.162383	,	0
54,4	,	161684	,	-26576	,	-24305	,	-6.6953125	,	-12.442442	,	0
54,4	,	161700	,	-26580	,	-24303	,	-8.6875	,	-12.334404	,	0
54,4	,	161733	,	-26554	,	-24290	,	19.921875	,	-11.742781	,	0
54,4	,	161749	,	-26543	,	-24306	,	24.945312	,	-10.341379	,	0
54,4	,	161765	,	-26530	,	-24276	,	30.460938	,	-7.699818	,	1
54,4	,	161797	,	-26537	,	-24275	,	14.328125	,	-3.7303057	,	3
54,5	,	161813	,	-26537	,	-24280	,	10.0234375	,	1.0799317	,	6
54,5	,	161828	,	-26528	,	-24277	,	16.015625	,	5.940038	,	10
54,5	,	161860	,	-26536	,	-24283	,	3.2109375	,	10.1753845	,	14
54,5	,	161876	,	-26525	,	-24270	,	13.25	,	13.35038	,	18
54,5	,	161908	,	-26535	,	-24284	,	-0.7265625	,	15.254962	,	21
54,5	,	161924	,	-26520	,	-24271	,	14.4921875	,	15.909216	,	22
54,5	,	161940	,	-26525	,	-24272	,	5.140625	,	15.542091	,	22
54,5	,	161972	,	-26538	,	-24277	,	-9.3984375	,	14.400712	,	21
54,5	,	161988	,	-26539	,	-24293	,	-7.578125	,	12.531596	,	19
54,5	,	162004	,	-26526	,	-24269	,	7.6953125	,	10.011095	,	16
54,5	,	162036	,	-26530	,	-24267	,	1.390625	,	7.2209215	,	12
54,5	,	162052	,	-26523	,	-24271	,	7.96875	,	4.647256	,	8
54,5	,	162084	,	-26530	,	-24271	,	-1.421875	,	2.60536	,	4
54,5	,	162100	,	-26528	,	-24271	,	1.0	,	1.1768377	,	1
54,5	,	162116	,	-26526	,	-24263	,	2.703125	,	0.29145837	,	0
54,5	,	162148	,	-26520	,	-24270	,	7.890625	,	-0.11939716	,	0
54,5	,	162164	,	-26532	,	-24267	,	-6.46875	,	-0.12475991	,	0
54,5	,	162180	,	-26536	,	-24273	,	-8.53125	,	0.050976887	,	0
54,5	,	162212	,	-26534	,	-24269	,	-3.96875	,	0.09691771	,	0
54,5	,	162228	,	-26546	,	-24291	,	-14.78125	,	-0.18318635	,	0
54,5	,	162244	,	-26535	,	-24253	,	0.65625	,	-0.84004134	,	0
54,5	,	162276	,	-26554	,	-24271	,	-18.546875	,	-1.8240418	,	0
54,5	,	162292	,	-26552	,	-24279	,	-10.984375	,	-3.0872138	,	0
54,5	,	162324	,	-26558	,	-24273	,	-13.6875	,	-4.598984	,	0
54,5	,	162340	,	-26551	,	-24283	,	-2.578125	,	-6.20489	,	0
54,5	,	162356	,	-26570	,	-24279	,	-20.804688	,	-7.688209	,	0
54,5	,	162388	,	-26558	,	-24287	,	-2.5625	,	-8.941275	,	0
54,5	,	162404	,	-26571	,	-24282	,	-14.796875	,	-9.91234	,	0
54,5	,	162420	,	-26571	,	-24289	,	-10.3515625	,	-10.57249	,	0
54,5	,	162452	,	-26567	,	-24288	,	-3.25	,	-10.933523	,	0
54,5	,	162468	,	-26570	,	-24305	,	-5.28125	,	-10.951046	,	0
54,5	,	162500	,	-26575	,	-24283	,	-8.6875	,	-10.589205	,	0
54,5	,	162516	,	-26592	,	-24281	,	-23.085938	,	-10.02322	,	0
54,5	,	162532	,	-26579	,	-24291	,	-3.1640625	,	-9.564443	,	0
54,5	,	162564	,	-26583	,	-24289	,	-6.2109375	,	-9.314093	,	0
54,5	,	162580	,	-26565	,	-24284	,	13.6484375	,	-9.029228	,	0
54,5	,	162596	,	-26560	,	-24280	,	14.5625	,	-8.283522	,	0
54,5	,	162628	,	-26542	,	-24282	,	28.1875	,	-6.649906	,	0
54,5	,	162644	,	-26535	,	-24265	,	26.734375	,	-3.8543644	,	1
54,5	,	162676	,	-26532	,	-24276	,	21.71875	,	0.06821728	,	3
54,5	,	162692	,	-26516	,	-24271	,	31.203125	,	4.76445	,	6
54,5	,	162708	,	-26518	,	-24289	,	19.835938	,	9.755274	,	10
54,5	,	162740	,	-26518	,	-24260	,	13.8828125	,	14.492207	,	14
54,5	,	162756	,	-26524	,	-24270	,	3.71875	,	18.326742	,	18
54,5	,	162772	,	-26533	,	-24262	,	-6.390625	,	20.642483	,	21
54,6	,	162804	,	-26524	,	-24268	,	4.5234375	,	21.083958	,	23
54,6	,	162820	,	-26518	,	-24261	,	9.1640625	,	19.795963	,	23
54,6	,	162836	,	-26529	,	-24269	,	-4.578125	,	17.315807	,	22
54,6	,	162868	,	-26510	,	-24244	,	15.7890625	,	14.228984	,	20
54,6	,	162884	,	-26532	,	-24246	,	-10.9453125	,	11.026101	,	17
54,6	,	162916	,	-26524	,	-24261	,	0.3359375	,	7.979335	,	13
54,6	,	162931	,	-26508	,	-24261	,	16.234375	,	5.2572904	,	9
54,6	,	162948	,	-26518	,	-24265	,	1.3671875	,	3.1636481	,	5
54,6	,	162979	,	-26519	,	-24257	,	-0.046875	,	1.8644426	,	2
54,6	,	162996	,	-26519	,	-24263	,	-0.03125	,	1.1916397	,	0
54,6	,	163012	,	-26515	,	-24250	,	3.984375	,	0.907338	,	0
54,6	,	163044	,	-26521	,	-24257	,	-3.21875	,	0.8502239	,	0
54,6	,	163060	,	-26524	,	-24260	,	-5.25	,	0.8534849	,	0
54,6	,	163092	,	-26517	,	-24259	,	3.328125	,	0.7663995	,	0
54,6	,	163107	,	-26523	,	-24260	,	-3.671875	,	0.5661744	,	0
54,6	,	163123	,	-26534	,	-24256	,	-13.578125	,	0.24113184	,	0
54,6	,	163155	,	-26530	,	-24257	,	-5.5	,	-0.33135313	,	0
54,6	,	163171	,	-26532	,	-24275	,	-5.84375	,	-1.1997622	,	0
54,6	,	163188	,	-26536	,	-24267	,	-8.09375	,	-2.2484744	,	0
54,6	,	163220	,	-26539	,	-24265	,	-8.671875	,	-3.3555021	,	0
54,6	,	163236	,	-26539	,	-24271	,	-6.0625	,	-4.4444427	,	0
54,6	,	163252	,	-26537	,	-24268	,	-2.25	,	-5.407998	,	0
54,6	,	163283	,	-26560	,	-24265	,	-24.578125	,	-6.2016983	,	0
54,6	,	163300	,	-26554	,	-24268	,	-11.203125	,	-6.990566	,	0
54,6	,	163331	,	-26550	,	-24267	,	-3.84375	,	-7.8938737	,	0
54,6	,	163347	,	-26556	,	-24256	,	-8.6875	,	-8.741831	,	0
54,6	,	163363	,	-26560	,	-24270	,	-10.078125	,	-9.336975	,	0
54,6	,	163395	,	-26566	,	-24272	,	-13.0546875	,	-9.685876	,	0
54,6	,	163412	,	-26557	,	-24293	,	-0.140625	,	-9.8558235	,	0
54,6	,	163427	,	-26569	,	-24268	,	-12.1015625	,	-9.828321	,	0
54,6	,	163459	,	-26575	,	-24274	,	-14.46875	,	-9.641035	,	0
54,6	,	163475	,	-26560	,	-24269	,	4.875	,	-9.3989105	,	0
54,6	,	163507	,	-26545	,	-24280	,	18.40625	,	-8.931777	,	0
54,6	,	163523	,	-26541	,	-24260	,	16.890625	,	-7.779843	,	0
54,6	,	163539	,	-26537	,	-24261	,	15.828125	,	-5.6417613	,	1
54,6	,	163571	,	-26521	,	-24251	,	27.078125	,	-2.5534625	,	3
54,6	,	163588	,	-26517	,	-24261	,	22.953125	,	1.3033428	,	6
54,6	,	163603	,	-26513	,	-24255	,	20.0625	,	5.644216	,	9
54,6	,	163635	,	-26509	,	-24263	,	18.046875	,	10.0316725	,	13
54,6	,	163651	,	-26513	,	-24281	,	8.6328125	,	13.956521	,	17
54,6	,	163667	,	-26517	,	-24256	,	2.0390625	,	16.904524	,	20
54,6	,	163699	,	-26520	,	-24257	,	-1.5703125	,	18.44607	,	22
54,6	,	163715	,	-26519	,	-24253	,	-0.1015625	,	18.402935	,	23
54,6	,	163747	,	-26510	,	-24257	,	8.9375	,	16.959854	,	22
54,6	,	163763	,	-26505	,	-24257	,	11.25	,	14.639146	,	20
54,6	,	163779	,	-26500	,	-24255	,	12.875	,	12.098647	,	17
54,7	,	163811	,	-26503	,	-24261	,	6.015625	,	9.849368	,	14
54,7	,	163827	,	-26486	,	-24252	,	21.203125	,	8.178511	,	10
54,7	,	163843	,	-26493	,	-24240	,	7.84375	,	7.2461324	,	6
54,7	,	163875	,	-26495	,	-24248	,	3.5	,	6.995845	,	3
54,7	,	163891	,	-26491	,	-24274	,	6.4453125	,	7.11684	,	1
54,7	,	163923	,	-26510	,	-24232	,	-14.4921875	,	7.2145643	,	0
54,7	,	163939	,	-26492	,	-24244	,	7.859375	,	6.943227	,	0
54,7	,	163955	,	-26494	,	-24243	,	3.5	,	6.22721	,	0
54,7	,	163987	,	-26500	,	-24260	,	-3.546875	,	5.256742	,	0
54,7	,	164003	,	-26512	,	-24256	,	-14.484375	,	4.108637	,	0
54,7	,	164019	,	-26507	,	-24255	,	-5.140625	,	2.6754045	,	0
54,7	,	164051	,	-26516	,	-24256	,	-12.59375	,	0.9215503	,	0
54,7	,	164067	,	-26505	,	-24266	,	2.1796875	,	-1.0021255	,	0
54,7	,	164083	,	-26514	,	-24270	,	-7.4765625	,	-2.8212013	,	0
54,7	,	164115	,	-26509	,	-24263	,	-0.234375	,	-4.2853894	,	0
54,7	,	164131	,	-26525	,	-24288	,	-16.15625	,	-5.3239923	,	0
54,7	,	164163	,	-26520	,	-24257	,	-6.3125	,	-6.0650244	,	0
54,7	,	164179	,	-26534	,	-24272	,	-18.421875	,	-6.7036986	,	0
54,7	,	164195	,	-26535	,	-24263	,	-13.890625	,	-7.4070086	,	0
54,7	,	164227	,	-26540	,	-24268	,	-14.7265625	,	-8.271686	,	0
54,7	,	164243	,	-26539	,	-24262	,	-9.3046875	,	-9.257491	,	0
54,7	,	164259	,	-26547	,	-24270	,	-14.515625	,	-10.2290945	,	0
54,7	,	164291	,	-26542	,	-24271	,	-5.15625	,	-11.050358	,	0
54,7	,	164307	,	-26552	,	-24278	,	-13.609375	,	-11.610611	,	0
54,7	,	164339	,	-26559	,	-24291	,	-16.53125	,	-11.907871	,	0
54,7	,	164355	,	-26553	,	-24284	,	-5.578125	,	-12.038605	,	0
54,7	,	164371	,	-26560	,	-24292	,	-10.8984375	,	-12.021028	,	0
54,7	,	164403	,	-26557	,	-24278	,	-4.6328125	,	-11.790863	,	0
54,7	,	164419	,	-26550	,	-24279	,	3.765625	,	-11.264366	,	0
54,7	,	164435	,	-26529	,	-24276	,	23.625	,	-10.217825	,	0
54,7	,	164467	,	-26522	,	-24269	,	23.546875	,	-8.265057	,	1
54,7	,	164483	,	-26504	,	-24261	,	34.484375	,	-5.090317	,	2
54,7	,	164515	,	-26505	,	-24272	,	23.132812	,	-0.68608284	,	5
54,7	,	164531	,	-26519	,	-24276	,	2.1953125	,	4.4614506	,	9
54,7	,	164547	,	-26501	,	-24265	,	19.53125	,	9.47185	,	14
54,7	,	164579	,	-26501	,	-24264	,	13.671875	,	13.6283245	,	19
54,7	,	164595	,	-26505	,	-24273	,	5.578125	,	16.60923	,	23
54,7	,	164611	,	-26500	,	-24257	,	8.90625	,	18.258305	,	25
54,7	,	164642	,	-26495	,	-24263	,	11.234375	,	18.593803	,	26
54,7	,	164659	,	-26517	,	-24268	,	-14.140625	,	17.77563	,	25
54,7	,	164675	,	-26526	,	-24264	,	-18.898438	,	15.798251	,	24
54,7	,	164707	,	-26504	,	-24265	,	8.7734375	,	12.6676	,	21
54,7	,	164723	,	-26508	,	-24257	,	2.140625	,	8.879045	,	17
54,7	,	164754	,	-26501	,	-24256	,	8.5	,	5.222685	,	12
54,7	,	164771	,	-26513	,	-24256	,	-6.0546875	,	2.2412467	,	7
54,7	,	164787	,	-26509	,	-24252	,	-0.2421875	,	0.06616211	,	3
54,8	,	164819	,	-26509	,	-24262	,	-0.1640625	,	-1.3892708	,	1
54,8	,	164835	,	-26509	,	-24277	,	-0.1171875	,	-2.2214293	,	0
54,8	,	164851	,	-26517	,	-24249	,	-8.078125	,	-2.5657392	,	0
54,8	,	164883	,	-26506	,	-24259	,	5.34375	,	-2.6124468	,	0
54,8	,	164899	,	-26510	,	-24264	,	-0.265625	,	-2.4549978	,	0
54,8	,	164930	,	-26519	,	-24266	,	-9.1796875	,	-2.1471243	,	0
54,8	,	164946	,	-26519	,	-24265	,	-6.4296875	,	-1.8761951	,	0
54,8	,	164962	,	-26516	,	-24270	,	-1.5	,	-1.8193926	,	0
54,8	,	164994	,	-26523	,	-24275	,	-8.046875	,	-1.9856642	,	0
54,8	,	165011	,	-26527	,	-24269	,	-9.6328125	,	-2.3516836	,	0
54,8	,	165027	,	-26520	,	-24270	,	0.2578125	,	-2.9038239	,	0
54,8	,	165058	,	-26524	,	-24263	,	-3.8203125	,	-3.5147831	,	0
54,8	,	165074	,	-26531	,	-24281	,	-9.6796875	,	-4.038931	,	0
54,8	,	165090	,	-26547	,	-24265	,	-22.765625	,	-4.551694	,	0
54,8	,	165122	,	-26556	,	-24269	,	-24.9375	,	-5.36666	,	0
54,8	,	165139	,	-26551	,	-24277	,	-12.4609375	,	-6.730958	,	0
54,8	,	165170	,	-26554	,	-24278	,	-11.7265625	,	-8.524084	,	0
54,8	,	165186	,	-26543	,	-24284	,	2.796875	,	-10.305492	,	0
54,8	,	165202	,	-26554	,	-24278	,	-9.046875	,	-11.598293	,	0
54,8	,	165234	,	-26555	,	-24269	,	-7.328125	,	-12.175081	,	0
54,8	,	165250	,	-26560	,	-24272	,	-10.125	,	-12.117169	,	0
54,8	,	165266	,	-26567	,	-24271	,	-14.09375	,	-11.66551	,	0
54,8	,	165298	,	-26568	,	-24282	,	-10.859375	,	-11.092359	,	0
54,8	,	165314	,	-26559	,	-24313	,	1.390625	,	-10.530485	,	0
54,8	,	165346	,	-26557	,	-24257	,	2.9765625	,	-9.861284	,	0
54,8	,	165362	,	-26531	,	-24268	,	28.085938	,	-8.758383	,	0
54,8	,	165378	,	-26521	,	-24258	,	29.65625	,	-6.7453017	,	1
54,8	,	165410	,	-26519	,	-24262	,	22.765625	,	-3.482119	,	3
54,8	,	165426	,	-26512	,	-24256	,	22.929688	,	0.88008165	,	6
54,8	,	165442	,	-26527	,	-24262	,	1.0546875	,	5.710641	,	10
54,8	,	165474	,	-26515	,	-24261	,	12.734375	,	10.16516	,	14
54,8	,	165490	,	-26518	,	-24256	,	5.9140625	,	13.570098	,	18
54,8	,	165506	,	-26514	,	-24263	,	8.140625	,	15.640583	,	21
54,8	,	165538	,	-26508	,	-24269	,	11.6953125	,	16.414997	,	23
54,8	,	165554	,	-26517	,	-24290	,	-0.8125	,	16.114841	,	23
54,8	,	165586	,	-26519	,	-24244	,	-2.5625	,	14.939287	,	22
54,8	,	165602	,	-26524	,	-24257	,	-6.796875	,	12.993322	,	20
54,8	,	165618	,	-26521	,	-24257	,	-1.7578125	,	10.424289	,	17
54,8	,	165650	,	-26525	,	-24266	,	-5.2265625	,	7.4965873	,	13
54,8	,	165666	,	-26510	,	-24257	,	11.3359375	,	4.5818224	,	9
54,8	,	165682	,	-26527	,	-24261	,	-9.0625	,	2.062047	,	5
54,8	,	165714	,	-26529	,	-24256	,	-8.34375	,	0.06915021	,	2
54,8	,	165730	,	-26521	,	-24255	,	2.15625	,	-1.5012169	,	0
54,8	,	165762	,	-26530	,	-24255	,	-7.4921875	,	-2.6962867	,	0
54,8	,	165778	,	-26525	,	-24258	,	-0.2421875	,	-3.5076942	,	0
54,8	,	165794	,	-26515	,	-24279	,	9.8359375	,	-3.9072244	,	0
54,9	,	165826	,	-26528	,	-24259	,	-6.125	,	-3.8271017	,	0
54,9	,	165842	,	-26530	,	-24261	,	-6.28125	,	-3.3772657	,	0
54,9	,	165858	,	-26529	,	-24257	,	-3.3984375	,	-2.8498168	,	0
54,9	,	165890	,	-26544	,	-24266	,	-17.382812	,	-2.511875	,	0
54,9	,	165906	,	-26541	,	-24275	,	-9.1640625	,	-2.5861244	,	0
54,9	,	165922	,	-26536	,	-24268	,	-1.4140625	,	-3.1327503	,	0
54,9	,	165954	,	-26539	,	-24270	,	-3.984375	,	-3.9220433	,	0
54,9	,	165970	,	-26547	,	-24265	,	-10.796875	,	-4.682109	,	0
54,9	,	166002	,	-26555	,	-24270	,	-15.5546875	,	-5.3763027	,	0
54,9	,	166018	,	-26544	,	-24273	,	0.109375	,	-6.082155	,	0
54,9	,	166034	,	-26552	,	-24287	,	-7.921875	,	-6.731251	,	0
54,9	,	166066	,	-26561	,	-24269	,	-14.546875	,	-7.2203116	,	0
54,9	,	166082	,	-26568	,	-24271	,	-17.179688	,	-7.6538267	,	0
54,9	,	166098	,	-26571	,	-24283	,	-15.03125	,	-8.241264	,	0
54,9	,	166130	,	-26575	,	-24281	,	-14.515625	,	-9.073761	,	0
54,9	,	166146	,	-26566	,	-24271	,	-1.1640625	,	-10.0273	,	0
54,9	,	166177	,	-26568	,	-24282	,	-2.8125	,	-10.780757	,	0
54,9	,	166193	,	-26579	,	-24278	,	-12.96875	,	-11.062773	,	0
54,9	,	166209	,	-26591	,	-24280	,	-21.078125	,	-10.958606	,	0
54,9	,	166242	,	-26585	,	-24280	,	-8.7578125	,	-10.795831	,	0
54,9	,	166258	,	-26567	,	-24285	,	11.875	,	-10.644199	,	0
54,9	,	166274	,	-26569	,	-24281	,	6.3125	,	-10.14973	,	0
54,9	,	166306	,	-26546	,	-24270	,	27.414062	,	-8.863824	,	0
54,9	,	166322	,	-26535	,	-24267	,	30.195312	,	-6.4334836	,	1
54,9	,	166353	,	-26534	,	-24256	,	22.132812	,	-2.7111788	,	3
54,9	,	166369	,	-26524	,	-24261	,	25.492188	,	2.0416183	,	6
54,9	,	166385	,	-26523	,	-24269	,	18.84375	,	7.2454596	,	10
54,9	,	166417	,	-26532	,	-24262	,	4.1875	,	12.187164	,	15
54,9	,	166433	,	-26522	,	-24255	,	12.9375	,	16.144701	,	19
54,9	,	166466	,	-26520	,	-24267	,	11.0546875	,	18.682705	,	22
54,9	,	166481	,	-26521	,	-24265	,	6.7421875	,	19.765549	,	24
54,9	,	166497	,	-26526	,	-24271	,	-0.28125	,	19.521421	,	25
54,9	,	166529	,	-26526	,	-24261	,	-0.203125	,	18.09665	,	24
54,9	,	166545	,	-26521	,	-24263	,	4.859375	,	15.73605	,	22
54,9	,	166561	,	-26514	,	-24261	,	10.40625	,	12.869814	,	19
54,9	,	166594	,	-26527	,	-24256	,	-5.71875	,	9.97043	,	15
54,9	,	166609	,	-26512	,	-24255	,	11.0	,	7.342613	,	10
54,9	,	166625	,	-26513	,	-24264	,	6.6953125	,	5.199084	,	6
54,9	,	166657	,	-26515	,	-24270	,	2.6875	,	3.6997447	,	3
54,9	,	166673	,	-26510	,	-24257	,	6.8828125	,	2.8276699	,	1
54,9	,	166705	,	-26512	,	-24275	,	2.8125	,	2.4518394	,	0
54,9	,	166721	,	-26517	,	-24268	,	-3.03125	,	2.3925552	,	0
54,9	,	166738	,	-26517	,	-24264	,	-2.1171875	,	2.4061751	,	0
54,9	,	166769	,	-26519	,	-24265	,	-3.484375	,	2.283747	,	0
54,9	,	166785	,	-26518	,	-24268	,	-1.4375	,	1.9421867	,	0
54,9	,	166801	,	-26520	,	-24269	,	-3.0078125	,	1.4045528	,	0
54,10	,	166833	,	-26526	,	-24268	,	-8.109375	,	0.70860624	,	0
54,10	,	166849	,	-26531	,	-24270	,	-10.671875	,	-0.17309576	,	0
54,10	,	166881	,	-26530	,	-24265	,	-6.46875	,	-1.2769268	,	0
54,10	,	166897	,	-26544	,	-24273	,	-18.53125	,	-2.5909472	,	0
54,10	,	166913	,	-26554	,	-24275	,	-22.96875	,	-4.1649566	,	0
54,10	,	166945	,	-26549	,	-24276	,	-11.078125	,	-6.0724134	,	0
54,10	,	166961	,	-26554	,	-24283	,	-12.75	,	-8.177448	,	0
54,10	,	166977	,	-26551	,	-24267	,	-5.9296875	,	-10.143438	,	0
54,10	,	167009	,	-26553	,	-24280	,	-6.1484375	,	-11.62929	,	0
54,10	,	167025	,	-26561	,	-24281	,	-12.3125	,	-12.453126	,	0
54,10	,	167057	,	-26571	,	-24280	,	-18.609375	,	-12.713064	,	0
54,10	,	167073	,	-26563	,	-24286	,	-5.03125	,	-12.66079	,	0
54,10	,	167089	,	-26565	,	-24284	,	-5.515625	,	-12.401115	,	0
54,10	,	167121	,	-26575	,	-24285	,	-13.8671875	,	-11.911665	,	0
54,10	,	167137	,	-26574	,	-24285	,	-8.7109375	,	-11.269966	,	0
54,10	,	167153	,	-26581	,	-24281	,	-13.09375	,	-10.631043	,	0
54,10	,	167185	,	-26577	,	-24301	,	-5.1640625	,	-10.091273	,	0
54,10	,	167201	,	-26572	,	-24294	,	1.3828125	,	-9.602734	,	0
54,10	,	167217	,	-26561	,	-24277	,	11.96875	,	-8.928114	,	0
54,10	,	167249	,	-26536	,	-24277	,	33.375	,	-7.6426497	,	0
54,10	,	167265	,	-26532	,	-24278	,	27.367188	,	-5.2487473	,	1
54,10	,	167297	,	-26541	,	-24274	,	10.15625	,	-1.6088915	,	3
54,10	,	167313	,	-26530	,	-24272	,	18.109375	,	2.79358	,	6
54,10	,	167329	,	-26519	,	-24271	,	23.679688	,	7.2941027	,	10
54,10	,	167361	,	-26517	,	-24269	,	18.578125	,	11.473072	,	14
54,10	,	167377	,	-26521	,	-24270	,	9.0	,	15.028329	,	18
54,10	,	167393	,	-26510	,	-24267	,	17.296875	,	17.657866	,	21
54,10	,	167425	,	-26514	,	-24274	,	8.109375	,	19.205647	,	23
54,10	,	167441	,	-26530	,	-24250	,	-10.328125	,	19.590813	,	24
54,10	,	167473	,	-26530	,	-24259	,	-7.21875	,	18.637072	,	23
54,10	,	167489	,	-26517	,	-24271	,	7.9375	,	16.348873	,	21
54,10	,	167505	,	-26520	,	-24264	,	2.5625	,	13.188423	,	18
54,10	,	167536	,	-26519	,	-24260	,	2.796875	,	9.792551	,	14
54,10	,	167553	,	-26518	,	-24257	,	2.953125	,	6.62665	,	10
54,10	,	167569	,	-26516	,	-24257	,	4.0625	,	3.9731274	,	6
54,10	,	167601	,	-26520	,	-24256	,	-1.15625	,	1.9773378	,	3
54,10	,	167617	,	-26517	,	-24265	,	2.1953125	,	0.6361673	,	1
54,10	,	167633	,	-26522	,	-24266	,	-3.4609375	,	-0.16184056	,	0
54,10	,	167665	,	-26524	,	-24282	,	-4.421875	,	-0.5938343	,	0
54,10	,	167681	,	-26521	,	-24249	,	-0.09375	,	-0.84451246	,	0
54,10	,	167712	,	-26529	,	-24270	,	-8.0703125	,	-1.0430169	,	0
54,10	,	167728	,	-26530	,	-24271	,	-6.6484375	,	-1.3040833	,	0
54,10	,	167744	,	-26534	,	-24275	,	-8.65625	,	-1.7364482	,	0
54,10	,	167776	,	-26537	,	-24276	,	-9.0625	,	-2.3869343	,	0
54,10	,	167792	,	-26543	,	-24269	,	-12.34375	,	-3.2611456	,	0
54,11	,	167809	,	-26535	,	-24281	,	-0.640625	,	-4.2973704	,	0
54,11	,	167841	,	-26535	,	-24276	,	-0.4453125	,	-5.2742376	,	0
54,11	,	167856	,	-26552	,	-24269	,	-17.3125	,	-5.986055	,	0
54,11	,	167888	,	-26546	,	-24283	,	-6.1171875	,	-6.489909	,	0
54,11	,	167904	,	-26555	,	-24297	,	-13.28125	,	-6.950264	,	0
54,11	,	167920	,	-26563	,	-24258	,	-17.296875	,	-7.4780817	,	0
54,11	,	167952	,	-26558	,	-24287	,	-7.109375	,	-8.149612	,	0
54,11	,	167968	,	-26565	,	-24286	,	-11.9765625	,	-8.916149	,	0
54,11	,	167984	,	-26567	,	-24291	,	-10.3828125	,	-9.637231	,	0
54,11	,	168017	,	-26571	,	-24281	,	-11.265625	,	-10.2275715	,	0
54,11	,	168032	,	-26582	,	-24288	,	-18.890625	,	-10.701159	,	0
54,11	,	168048	,	-26575	,	-24296	,	-6.21875	,	-11.119585	,	0
54,11	,	168080	,	-26581	,	-24296	,	-10.359375	,	-11.458235	,	0
54,11	,	168096	,	-26577	,	-24294	,	-3.25	,	-11.592686	,	0
54,11	,	168129	,	-26575	,	-24281	,	-0.2734375	,	-11.38146	,	0
54,11	,	168144	,	-26585	,	-24322	,	-10.1953125	,	-10.752822	,	0
54,11	,	168160	,	-26573	,	-24284	,	4.8671875	,	-9.771583	,	0
54,11	,	168192	,	-26558	,	-24299	,	18.40625	,	-8.430118	,	0
54,11	,	168208	,	-26543	,	-24275	,	27.882812	,	-6.445146	,	1
54,11	,	168224	,	-26546	,	-24278	,	16.515625	,	-3.5320964	,	2
54,11	,	168256	,	-26538	,	-24292	,	19.5625	,	0.21736026	,	4
54,11	,	168272	,	-26548	,	-24283	,	3.703125	,	4.319094	,	7
54,11	,	168304	,	-26538	,	-24284	,	12.5859375	,	8.131541	,	11
54,11	,	168320	,	-26551	,	-24281	,	-4.1875	,	11.099012	,	14
54,11	,	168336	,	-26538	,	-24290	,	10.0703125	,	12.891079	,	16
54,11	,	168368	,	-26542	,	-24287	,	3.046875	,	13.477713	,	17
54,11	,	168384	,	-26553	,	-24290	,	-8.8671875	,	13.010277	,	17
54,11	,	168400	,	-26559	,	-24280	,	-12.2109375	,	11.557959	,	16
54,11	,	168432	,	-26546	,	-24293	,	4.453125	,	9.214525	,	15
54,11	,	168448	,	-26546	,	-24281	,	3.125	,	6.3875184	,	13
54,11	,	168464	,	-26549	,	-24272	,	-0.8125	,	3.6432538	,	10
54,11	,	168496	,	-26553	,	-24275	,	-4.578125	,	1.3367105	,	6
54,11	,	168512	,	-26545	,	-24277	,	4.796875	,	-0.423604	,	3
54,11	,	168544	,	-26550	,	-24285	,	-1.640625	,	-1.5996135	,	1
54,11	,	168560	,	-26546	,	-24281	,	2.8515625	,	-2.1959908	,	0
54,11	,	168576	,	-26540	,	-24283	,	7.9921875	,	-2.2629113	,	0
54,11	,	168608	,	-26537	,	-24288	,	8.59375	,	-1.821537	,	0
54,11	,	168624	,	-26554	,	-24287	,	-10.984375	,	-0.97634554	,	0
54,11	,	168640	,	-26554	,	-24279	,	-7.6875	,	-0.08584893	,	0
54,11	,	168672	,	-26563	,	-24280	,	-14.375	,	0.3967588	,	0
54,11	,	168688	,	-26558	,	-24286	,	-5.0625	,	0.21400934	,	0
54,11	,	168720	,	-26567	,	-24278	,	-12.546875	,	-0.6184278	,	0
54,11	,	168736	,	-26565	,	-24286	,	-6.78125	,	-1.9207083	,	0
54,11	,	168752	,	-26571	,	-24289	,	-10.75	,	-3.4647584	,	0
54,11	,	168784	,	-26581	,	-24291	,	-17.523438	,	-5.0801296	,	0
54,11	,	168800	,	-26585	,	-24298	,	-16.265625	,	-6.7364655	,	0
54,12	,	168816	,	-26573	,	-24288	,	0.6171875	,	-8.377427	,	0
54,12	,	168848	,	-26592	,	-24299	,	-18.570312	,	-9.793943	,	0
54,12	,	168864	,	-26579	,	-24288	,	0.0	,	-10.812125	,	0
54,12	,	168896	,	-26589	,	-24290	,	-10.0	,	-11.35483	,	0
54,12	,	168912	,	-26598	,	-24291	,	-16.0	,	-11.451788	,	0
54,12	,	168928	,	-26601	,	-24291	,	-14.1953125	,	-11.326363	,	0
54,12	,	168960	,	-26594	,	-24304	,	-2.9375	,	-11.175594	,	0
54,12	,	168976	,	-26596	,	-24298	,	-4.0625	,	-10.940254	,	0
54,12	,	168992	,	-26606	,	-24304	,	-12.84375	,	-10.502586	,	0
54,12	,	169024	,	-26597	,	-24298	,	0.015625	,	-9.888337	,	0
54,12	,	169040	,	-26584	,	-24293	,	13.0078125	,	-9.054726	,	0
54,12	,	169056	,	-26574	,	-24293	,	19.101562	,	-7.7050223	,	0
54,12	,	169087	,	-26565	,	-24302	,	22.375	,	-5.500859	,	1
54,12	,	169104	,	-26556	,	-24285	,	24.65625	,	-2.320809	,	3
54,12	,	169136	,	-26555	,	-24280	,	18.265625	,	1.6667943	,	6
54,12	,	169152	,	-26547	,	-24284	,	20.78125	,	6.0528703	,	9
54,12	,	169168	,	-26555	,	-24274	,	6.546875	,	10.292571	,	13
54,12	,	169200	,	-26540	,	-24282	,	19.585938	,	13.858012	,	17
54,12	,	169216	,	-26550	,	-24284	,	3.7109375	,	16.406498	,	20
54,12	,	169232	,	-26544	,	-24275	,	8.59375	,	17.77786	,	22
54,12	,	169264	,	-26551	,	-24284	,	-0.984375	,	17.923798	,	23
54,12	,	169280	,	-26552	,	-24286	,	-1.6875	,	16.912462	,	22
54,12	,	169311	,	-26558	,	-24292	,	-7.1796875	,	14.889246	,	20
54,12	,	169328	,	-26562	,	-24310	,	-9.0234375	,	12.03336	,	17
54,12	,	169344	,	-26550	,	-24272	,	5.6875	,	8.635296	,	14
54,12	,	169376	,	-26544	,	-24286	,	9.9765625	,	5.21992	,	10
54,12	,	169392	,	-26542	,	-24276	,	8.984375	,	2.4089317	,	6
54,12	,	169407	,	-26545	,	-24275	,	3.2890625	,	0.5774789	,	3
54,12	,	169439	,	-26551	,	-24279	,	-3.703125	,	-0.3010738	,	1
54,12	,	169455	,	-26555	,	-24280	,	-6.59375	,	-0.5540273	,	0
54,12	,	169471	,	-26548	,	-24285	,	2.390625	,	-0.5520775	,	0
54,12	,	169503	,	-26552	,	-24280	,	-2.328125	,	-0.49132878	,	0
54,12	,	169519	,	-26559	,	-24270	,	-8.625	,	-0.46252093	,	0
54,12	,	169551	,	-26557	,	-24277	,	-4.046875	,	-0.5888864	,	0
54,12	,	169567	,	-26556	,	-24299	,	-1.828125	,	-0.9287708	,	0
54,12	,	169583	,	-26563	,	-24269	,	-8.28125	,	-1.4204055	,	0
54,12	,	169615	,	-26562	,	-24282	,	-4.796875	,	-2.0076368	,	0
54,12	,	169631	,	-26562	,	-24284	,	-3.359375	,	-2.6483264	,	0
54,12	,	169648	,	-26567	,	-24290	,	-7.34375	,	-3.270062	,	0
54,12	,	169679	,	-26579	,	-24282	,	-17.140625	,	-3.890422	,	0
54,12	,	169695	,	-26565	,	-24284	,	2.0	,	-4.5985126	,	0
54,12	,	169727	,	-26573	,	-24288	,	-6.6015625	,	-5.3222456	,	0
54,12	,	169743	,	-26572	,	-24288	,	-3.6171875	,	-5.873841	,	0
54,12	,	169759	,	-26577	,	-24278	,	-7.53125	,	-6.17492	,	0
54,12	,	169791	,	-26572	,	-24283	,	-0.28125	,	-6.241581	,	0
54,13	,	169807	,	-26576	,	-24305	,	-4.1875	,	-6.0829716	,	0
54,13	,	169823	,	-26584	,	-24288	,	-10.9375	,	-5.7550964	,	0
54,13	,	169855	,	-26596	,	-24296	,	-19.65625	,	-5.479743	,	0
54,13	,	169871	,	-26592	,	-24293	,	-9.7578125	,	-5.547474	,	0
54,13	,	169887	,	-26597	,	-24292	,	-11.8359375	,	-6.0540614	,	0
54,13	,	169919	,	-26590	,	-24291	,	-1.28125	,	-6.826824	,	0
54,13	,	169935	,	-26576	,	-24282	,	13.109375	,	-7.4779654	,	0
54,13	,	169967	,	-26566	,	-24283	,	19.171875	,	-7.4606543	,	0
54,13	,	169983	,	-26549	,	-24283	,	30.421875	,	-6.253122	,	0
54,13	,	169999	,	-26538	,	-24273	,	32.296875	,	-3.551486	,	1
54,13	,	170031	,	-26532	,	-24276	,	28.609375	,	0.61016035	,	3
54,13	,	170047	,	-26542	,	-24273	,	10.015625	,	5.7324142	,	7
54,13	,	170063	,	-26521	,	-24271	,	28.015625	,	10.995057	,	12
54,13	,	170095	,	-26530	,	-24271	,	10.609375	,	15.683102	,	17
54,13	,	170111	,	-26530	,	-24266	,	7.4296875	,	19.286316	,	21
54,13	,	170143	,	-26536	,	-24258	,	-0.8046875	,	21.376822	,	24
54,13	,	170159	,	-26539	,	-24266	,	-3.5625	,	21.703596	,	26
54,13	,	170175	,	-26539	,	-24261	,	-2.484375	,	20.30189	,	26
54,13	,	170207	,	-26532	,	-24262	,	5.25	,	17.524345	,	25
54,13	,	170223	,	-26521	,	-24261	,	14.6796875	,	14.032783	,	23
54,13	,	170239	,	-26526	,	-24256	,	5.2734375	,	10.588878	,	19
54,13	,	170271	,	-26517	,	-24276	,	12.6953125	,	7.738805	,	14
54,13	,	170287	,	-26518	,	-24246	,	7.8828125	,	5.7302322	,	9
54,13	,	170303	,	-26527	,	-24257	,	-3.484375	,	4.5412292	,	5
54,13	,	170335	,	-26511	,	-24267	,	13.5625	,	3.9549224	,	2
54,13	,	170351	,	-26518	,	-24265	,	2.5	,	3.7924237	,	0
54,13	,	170383	,	-26524	,	-24267	,	-4.25	,	3.8944633	,	0
54,13	,	170399	,	-26531	,	-24258	,	-9.9765625	,	3.9446087	,	0
54,13	,	170415	,	-26523	,	-24260	,	1.015625	,	3.6400204	,	0
54,13	,	170447	,	-26529	,	-24265	,	-5.2890625	,	2.9282756	,	0
54,13	,	170463	,	-26529	,	-24262	,	-3.703125	,	1.9280413	,	0
54,13	,	170479	,	-26531	,	-24265	,	-4.59375	,	0.7708838	,	0
54,13	,	170511	,	-26546	,	-24284	,	-18.21875	,	-0.49103475	,	0
54,13	,	170527	,	-26532	,	-24243	,	1.25	,	-1.8801559	,	0
54,13	,	170559	,	-26546	,	-24270	,	-13.125	,	-3.3317804	,	0
54,13	,	170575	,	-26554	,	-24268	,	-17.1875	,	-4.7640843	,	0
54,13	,	170591	,	-26557	,	-24262	,	-15.03125	,	-6.244403	,	0
54,13	,	170623	,	-26553	,	-24270	,	-6.515625	,	-7.791966	,	0
54,13	,	170639	,	-26556	,	-24272	,	-7.5625	,	-9.211554	,	0
54,13	,	170655	,	-26555	,	-24272	,	-4.296875	,	-10.24246	,	0
54,13	,	170686	,	-26561	,	-24266	,	-9.0078125	,	-10.745663	,	0
54,13	,	170703	,	-26563	,	-24271	,	-8.3046875	,	-10.760628	,	0
54,13	,	170735	,	-26563	,	-24281	,	-5.8125	,	-10.421651	,	0
54,13	,	170751	,	-26574	,	-24289	,	-15.0703125	,	-9.883081	,	0
54,13	,	170766	,	-26567	,	-24255	,	-3.546875	,	-9.311335	,	0
54,13	,	170798	,	-26572	,	-24274	,	-7.484375	,	-8.788248	,	0
54,14	,	170815	,	-26566	,	-24282	,	0.7578125	,	-8.263257	,	0
54,14	,	170831	,	-26549	,	-24274	,	17.53125	,	-7.5508723	,	0
54,14	,	170863	,	-26533	,	-24265	,	28.273438	,	-6.248269	,	0
54,14	,	170879	,	-26545	,	-24254	,	7.7890625	,	-3.9894612	,	1
54,14	,	170895	,	-26521	,	-24255	,	29.453125	,	-0.8170004	,	3
54,14	,	170927	,	-26508	,	-24271	,	33.625	,	3.0502925	,	6
54,14	,	170943	,	-26515	,	-24249	,	16.53125	,	7.427178	,	9
54,14	,	170974	,	-26506	,	-24248	,	20.578125	,	11.907657	,	13
54,14	,	170990	,	-26510	,	-24265	,	10.3984375	,	15.897974	,	17
54,14	,	171006	,	-26503	,	-24232	,	14.28125	,	18.908571	,	20
54,14	,	171039	,	-26517	,	-24247	,	-4.0078125	,	20.619328	,	23
54,14	,	171055	,	-26515	,	-24240	,	-0.796875	,	20.820557	,	24
