Data recorded on Mon Jul 24 09-46-02 CAT 2017
Time: 9:46:9
Time		Millis		IR PPG		Red PPG		Filtered		SSF
46,18	,	98217	,	-28296	,	-27422	,	-10.398574	,	3
46,18	,	98249	,	-28269	,	-27419	,	-3.4675217	,	7
46,18	,	98265	,	-28283	,	-27412	,	5.2410197	,	13
46,18	,	98281	,	-28286	,	-27413	,	14.545721	,	21
46,18	,	98313	,	-28265	,	-27415	,	22.951859	,	30
46,18	,	98329	,	-28266	,	-27406	,	29.467041	,	38
46,18	,	98345	,	-28266	,	-27377	,	33.709602	,	44
46,18	,	98377	,	-28272	,	-27420	,	35.53002	,	48
46,18	,	98393	,	-28268	,	-27433	,	34.944065	,	48
46,18	,	98425	,	-28286	,	-27394	,	32.18062	,	46
46,18	,	98441	,	-28266	,	-27405	,	27.668259	,	42
46,18	,	98457	,	-28269	,	-27406	,	22.122816	,	36
46,18	,	98489	,	-28268	,	-27410	,	16.413998	,	28
46,18	,	98505	,	-28263	,	-27421	,	11.229667	,	19
46,18	,	98521	,	-28263	,	-27411	,	6.9989414	,	11
46,18	,	98553	,	-28256	,	-27402	,	3.950006	,	5
46,18	,	98569	,	-28261	,	-27408	,	2.1115198	,	1
46,18	,	98601	,	-28275	,	-27414	,	1.2289445	,	0
46,18	,	98617	,	-28280	,	-27407	,	0.7489625	,	0
46,18	,	98633	,	-28293	,	-27437	,	0.062047184	,	0
46,18	,	98665	,	-28284	,	-27410	,	-1.1872506	,	0
46,18	,	98681	,	-28288	,	-27415	,	-2.930873	,	0
46,18	,	98697	,	-28292	,	-27425	,	-4.8342133	,	0
46,18	,	98729	,	-28310	,	-27429	,	-6.691867	,	0
46,18	,	98745	,	-28306	,	-27437	,	-8.540385	,	0
46,18	,	98761	,	-28305	,	-27435	,	-10.356789	,	0
46,18	,	98793	,	-28314	,	-27439	,	-11.924776	,	0
46,18	,	98809	,	-28327	,	-27444	,	-13.128136	,	0
46,18	,	98841	,	-28324	,	-27448	,	-14.074924	,	0
46,18	,	98857	,	-28327	,	-27448	,	-14.835701	,	0
46,18	,	98873	,	-28337	,	-27460	,	-15.362817	,	0
46,18	,	98905	,	-28329	,	-27444	,	-15.617134	,	0
46,18	,	98921	,	-28358	,	-27450	,	-15.644518	,	0
46,18	,	98937	,	-28347	,	-27450	,	-15.634503	,	0
46,18	,	98969	,	-28358	,	-27454	,	-15.744767	,	0
46,18	,	98985	,	-28364	,	-27459	,	-15.966988	,	0
46,18	,	99016	,	-28364	,	-27459	,	-16.253448	,	0
46,18	,	99032	,	-28377	,	-27467	,	-16.555141	,	0
46,18	,	99048	,	-28377	,	-27465	,	-16.844206	,	0
46,18	,	99081	,	-28382	,	-27453	,	-17.103487	,	0
46,18	,	99097	,	-28352	,	-27455	,	-17.114666	,	0
46,18	,	99113	,	-28317	,	-27446	,	-16.170286	,	0
46,18	,	99145	,	-28299	,	-27421	,	-13.222321	,	0
46,18	,	99161	,	-28297	,	-27415	,	-7.6803503	,	2
46,18	,	99177	,	-28289	,	-27407	,	0.035883904	,	7
46,19	,	99209	,	-28288	,	-27412	,	8.772897	,	14
46,19	,	99225	,	-28288	,	-27413	,	17.18786	,	22
46,19	,	99256	,	-28266	,	-27417	,	24.20949	,	30
46,19	,	99272	,	-28278	,	-27412	,	29.300259	,	37
46,19	,	99288	,	-28277	,	-27415	,	32.23864	,	42
46,19	,	99320	,	-28291	,	-27414	,	32.84439	,	44
46,19	,	99337	,	-28287	,	-27414	,	31.081923	,	44
46,19	,	99353	,	-28281	,	-27401	,	27.299694	,	42
46,19	,	99385	,	-28285	,	-27403	,	22.239382	,	37
46,19	,	99401	,	-28273	,	-27409	,	16.766815	,	30
46,19	,	99432	,	-28273	,	-27396	,	11.669907	,	22
46,19	,	99448	,	-28269	,	-27402	,	7.538823	,	14
46,19	,	99464	,	-28274	,	-27397	,	4.6186786	,	7
46,19	,	99496	,	-28274	,	-27406	,	2.802517	,	2
46,19	,	99512	,	-28280	,	-27408	,	1.7719276	,	0
46,19	,	99528	,	-28274	,	-27414	,	1.1848004	,	0
46,19	,	99560	,	-28281	,	-27407	,	0.80402446	,	0
46,19	,	99576	,	-28295	,	-27418	,	0.40944564	,	0
46,19	,	99593	,	-28293	,	-27407	,	-0.28905284	,	0
46,19	,	99625	,	-28295	,	-27418	,	-1.4463234	,	0
46,19	,	99640	,	-28312	,	-27422	,	-3.0186365	,	0
46,19	,	99672	,	-28307	,	-27420	,	-4.945675	,	0
46,19	,	99688	,	-28319	,	-27423	,	-7.129042	,	0
46,19	,	99704	,	-28308	,	-27431	,	-9.336202	,	0
46,19	,	99737	,	-28324	,	-27429	,	-11.270098	,	0
46,19	,	99753	,	-28331	,	-27440	,	-12.786773	,	0
46,19	,	99769	,	-28331	,	-27437	,	-13.95476	,	0
46,19	,	99801	,	-28345	,	-27442	,	-14.873104	,	0
46,19	,	99816	,	-28344	,	-27450	,	-15.621877	,	0
46,19	,	99848	,	-28342	,	-27429	,	-16.206879	,	0
46,19	,	99864	,	-28347	,	-27447	,	-16.486004	,	0
46,19	,	99880	,	-28369	,	-27466	,	-16.428017	,	0
46,19	,	99912	,	-28382	,	-27455	,	-16.367144	,	0
46,19	,	99928	,	-28380	,	-27466	,	-16.734137	,	0
46,19	,	99944	,	-28389	,	-27466	,	-17.62607	,	0
46,19	,	99976	,	-28399	,	-27476	,	-18.860016	,	0
46,19	,	99992	,	-28390	,	-27463	,	-20.174088	,	0
46,19	,	100008	,	-28366	,	-27464	,	-21.056366	,	0
46,19	,	100040	,	-28349	,	-27434	,	-20.653305	,	0
46,19	,	100056	,	-28325	,	-27444	,	-18.124622	,	0
46,19	,	100088	,	-28302	,	-27420	,	-13.001844	,	2
46,19	,	100104	,	-28285	,	-27418	,	-5.312604	,	7
46,19	,	100120	,	-28272	,	-27413	,	4.380889	,	14
46,19	,	100152	,	-28272	,	-27409	,	15.023632	,	23
46,19	,	100168	,	-28253	,	-27403	,	25.322386	,	33
46,19	,	100184	,	-28260	,	-27406	,	34.126865	,	43
46,20	,	100216	,	-28259	,	-27405	,	40.55589	,	51
46,20	,	100232	,	-28261	,	-27397	,	44.004047	,	57
46,20	,	100264	,	-28277	,	-27397	,	44.220856	,	60
46,20	,	100280	,	-28265	,	-27413	,	41.339157	,	58
46,20	,	100296	,	-28263	,	-27417	,	35.988716	,	53
46,20	,	100328	,	-28253	,	-27384	,	29.264841	,	46
46,20	,	100344	,	-28252	,	-27389	,	22.360165	,	37
46,20	,	100360	,	-28245	,	-27396	,	16.21885	,	27
46,20	,	100392	,	-28251	,	-27394	,	11.369265	,	17
46,20	,	100408	,	-28245	,	-27389	,	7.919861	,	9
46,20	,	100440	,	-28249	,	-27391	,	5.709488	,	3
46,20	,	100456	,	-28250	,	-27391	,	4.437202	,	0
46,20	,	100472	,	-28253	,	-27387	,	3.7270737	,	0
46,20	,	100504	,	-28245	,	-27402	,	3.2763395	,	0
46,20	,	100520	,	-28259	,	-27406	,	2.9178007	,	0
46,20	,	100536	,	-28269	,	-27415	,	2.4268684	,	0
46,20	,	100568	,	-28256	,	-27380	,	1.5462809	,	0
46,20	,	100584	,	-28287	,	-27406	,	0.18144071	,	0
46,20	,	100600	,	-28287	,	-27423	,	-1.7634256	,	0
46,20	,	100632	,	-28290	,	-27422	,	-4.368543	,	0
46,20	,	100648	,	-28288	,	-27425	,	-7.3828096	,	0
46,20	,	100680	,	-28300	,	-27421	,	-10.343062	,	0
46,20	,	100696	,	-28309	,	-27429	,	-12.953446	,	0
46,20	,	100712	,	-28316	,	-27425	,	-15.177264	,	0
46,20	,	100744	,	-28307	,	-27420	,	-16.991783	,	0
46,20	,	100760	,	-28308	,	-27424	,	-18.171959	,	0
46,20	,	100776	,	-28320	,	-27455	,	-18.491566	,	0
46,20	,	100808	,	-28320	,	-27412	,	-18.029793	,	0
46,20	,	100824	,	-28340	,	-27435	,	-17.139881	,	0
46,20	,	100856	,	-28338	,	-27448	,	-16.260319	,	0
46,20	,	100872	,	-28353	,	-27445	,	-15.737807	,	0
46,20	,	100888	,	-28348	,	-27452	,	-15.704623	,	0
46,20	,	100920	,	-28355	,	-27454	,	-16.054497	,	0
46,20	,	100936	,	-28361	,	-27453	,	-16.550838	,	0
46,20	,	100952	,	-28359	,	-27456	,	-16.984497	,	0
46,20	,	100984	,	-28344	,	-27456	,	-17.094543	,	0
46,20	,	101000	,	-28323	,	-27438	,	-16.383318	,	0
46,20	,	101016	,	-28305	,	-27441	,	-14.196386	,	0
46,20	,	101048	,	-28302	,	-27408	,	-10.1184025	,	2
46,20	,	101064	,	-28268	,	-27405	,	-4.2107925	,	6
46,20	,	101096	,	-28251	,	-27399	,	3.23939	,	11
46,20	,	101112	,	-28255	,	-27393	,	11.774037	,	18
46,20	,	101128	,	-28257	,	-27398	,	20.449581	,	26
46,20	,	101160	,	-28250	,	-27391	,	28.016287	,	34
46,20	,	101176	,	-28245	,	-27391	,	33.523983	,	41
46,20	,	101192	,	-28244	,	-27388	,	36.579243	,	46
46,21	,	101224	,	-28246	,	-27388	,	37.189957	,	49
46,21	,	101240	,	-28240	,	-27399	,	35.615112	,	47
46,21	,	101271	,	-28249	,	-27409	,	32.305176	,	43
46,21	,	101288	,	-28230	,	-27388	,	27.84795	,	38
46,21	,	101304	,	-28244	,	-27385	,	22.913418	,	31
46,21	,	101336	,	-28234	,	-27389	,	18.074451	,	23
46,21	,	101352	,	-28235	,	-27385	,	13.704491	,	15
46,21	,	101368	,	-28234	,	-27385	,	10.040262	,	8
46,21	,	101400	,	-28236	,	-27381	,	7.161991	,	3
46,21	,	101415	,	-28242	,	-27384	,	4.9697943	,	0
46,21	,	101432	,	-28242	,	-27382	,	3.252668	,	0
46,21	,	101463	,	-28235	,	-27394	,	1.8534412	,	0
46,21	,	101480	,	-28242	,	-27395	,	0.76069665	,	0
46,21	,	101511	,	-28249	,	-27401	,	-0.06381631	,	0
46,21	,	101528	,	-28252	,	-27391	,	-0.80731416	,	0
46,21	,	101544	,	-28278	,	-27405	,	-1.7736163	,	0
46,21	,	101576	,	-28277	,	-27395	,	-3.3330328	,	0
46,21	,	101592	,	-28272	,	-27400	,	-5.611642	,	0
46,21	,	101608	,	-28285	,	-27408	,	-8.296101	,	0
46,21	,	101639	,	-28296	,	-27409	,	-11.021426	,	0
46,21	,	101655	,	-28290	,	-27405	,	-13.600273	,	0
46,21	,	101687	,	-28289	,	-27420	,	-15.773404	,	0
46,21	,	101703	,	-28302	,	-27421	,	-17.229347	,	0
46,21	,	101720	,	-28316	,	-27433	,	-17.967453	,	0
46,21	,	101752	,	-28327	,	-27431	,	-18.355629	,	0
46,21	,	101767	,	-28318	,	-27420	,	-18.738167	,	0
46,21	,	101784	,	-28321	,	-27429	,	-19.086678	,	0
46,21	,	101816	,	-28331	,	-27432	,	-19.166555	,	0
46,21	,	101831	,	-28342	,	-27436	,	-18.941504	,	0
46,21	,	101848	,	-28348	,	-27447	,	-18.624826	,	0
46,21	,	101879	,	-28361	,	-27451	,	-18.474062	,	0
46,21	,	101895	,	-28365	,	-27445	,	-18.666746	,	0
46,21	,	101928	,	-28376	,	-27453	,	-19.255013	,	0
46,21	,	101944	,	-28376	,	-27454	,	-20.145731	,	0
46,21	,	101959	,	-28371	,	-27442	,	-21.063442	,	0
46,21	,	101991	,	-28345	,	-27422	,	-21.452509	,	0
46,21	,	102007	,	-28320	,	-27420	,	-20.460201	,	0
46,21	,	102024	,	-28290	,	-27413	,	-17.17202	,	0
46,21	,	102055	,	-28291	,	-27406	,	-11.11177	,	3
46,21	,	102071	,	-28281	,	-27389	,	-2.6903687	,	9
46,21	,	102103	,	-28267	,	-27399	,	6.973857	,	17
46,21	,	102119	,	-28267	,	-27400	,	16.636295	,	26
46,21	,	102135	,	-28275	,	-27397	,	25.127346	,	35
46,21	,	102167	,	-28268	,	-27401	,	31.406609	,	43
46,21	,	102183	,	-28275	,	-27404	,	34.84571	,	49
46,21	,	102199	,	-28289	,	-27411	,	35.268303	,	52
46,22	,	102231	,	-28279	,	-27400	,	32.824318	,	52
46,22	,	102247	,	-28277	,	-27405	,	28.116796	,	49
46,22	,	102264	,	-28254	,	-27398	,	22.253521	,	43
46,22	,	102296	,	-28257	,	-27394	,	16.532333	,	35
46,22	,	102311	,	-28263	,	-27394	,	11.8717165	,	26
46,22	,	102343	,	-28262	,	-27396	,	8.493082	,	17
46,22	,	102359	,	-28260	,	-27371	,	6.2016926	,	9
46,22	,	102375	,	-28274	,	-27401	,	4.682303	,	3
46,22	,	102407	,	-28261	,	-27396	,	3.5777075	,	0
46,22	,	102423	,	-28268	,	-27404	,	2.6637552	,	0
46,22	,	102439	,	-28280	,	-27423	,	1.8159525	,	0
46,22	,	102471	,	-28278	,	-27382	,	0.8301958	,	0
46,22	,	102487	,	-28298	,	-27405	,	-0.5087789	,	0
46,22	,	102519	,	-28300	,	-27416	,	-2.3685489	,	0
46,22	,	102535	,	-28297	,	-27410	,	-4.7578716	,	0
46,22	,	102551	,	-28297	,	-27419	,	-7.352129	,	0
46,22	,	102583	,	-28304	,	-27412	,	-9.687389	,	0
46,22	,	102599	,	-28315	,	-27415	,	-11.523326	,	0
46,22	,	102615	,	-28302	,	-27416	,	-12.833607	,	0
46,22	,	102648	,	-28325	,	-27421	,	-13.613632	,	0
46,22	,	102663	,	-28314	,	-27425	,	-13.931559	,	0
46,22	,	102695	,	-28323	,	-27440	,	-13.904393	,	0
46,22	,	102711	,	-28326	,	-27419	,	-13.598449	,	0
46,22	,	102727	,	-28320	,	-27436	,	-13.0628395	,	0
46,22	,	102759	,	-28340	,	-27429	,	-12.364105	,	0
46,22	,	102775	,	-28342	,	-27429	,	-11.708356	,	0
46,22	,	102791	,	-28352	,	-27445	,	-11.404585	,	0
46,22	,	102823	,	-28370	,	-27443	,	-11.70391	,	0
46,22	,	102839	,	-28368	,	-27437	,	-12.755877	,	0
46,22	,	102855	,	-28342	,	-27441	,	-14.311016	,	0
46,22	,	102887	,	-28316	,	-27426	,	-15.42074	,	0
46,22	,	102903	,	-28300	,	-27414	,	-14.820314	,	0
46,22	,	102935	,	-28289	,	-27423	,	-11.699247	,	0
46,22	,	102951	,	-28282	,	-27397	,	-6.092907	,	3
46,22	,	102967	,	-28274	,	-27414	,	1.2641544	,	8
46,22	,	102999	,	-28273	,	-27408	,	9.289598	,	15
46,22	,	103015	,	-28270	,	-27407	,	16.855455	,	23
46,22	,	103031	,	-28267	,	-27395	,	23.028412	,	30
46,22	,	103063	,	-28253	,	-27398	,	27.292524	,	36
46,22	,	103079	,	-28266	,	-27403	,	29.553917	,	40
46,22	,	103111	,	-28278	,	-27409	,	29.799988	,	42
46,22	,	103127	,	-28261	,	-27408	,	28.041138	,	42
46,22	,	103143	,	-28257	,	-27405	,	24.70966	,	39
46,22	,	103175	,	-28262	,	-27413	,	20.593681	,	34
46,22	,	103191	,	-28264	,	-27383	,	16.322456	,	27
46,23	,	103207	,	-28253	,	-27388	,	12.276448	,	19
46,23	,	103239	,	-28261	,	-27394	,	8.770194	,	12
46,23	,	103255	,	-28266	,	-27394	,	5.9485664	,	6
46,23	,	103271	,	-28266	,	-27396	,	3.6968608	,	2
46,23	,	103303	,	-28274	,	-27401	,	1.8149257	,	0
46,23	,	103319	,	-28257	,	-27408	,	0.20961142	,	0
46,23	,	103351	,	-28272	,	-27398	,	-1.0519489	,	0
46,23	,	103367	,	-28273	,	-27411	,	-1.9477218	,	0
46,23	,	103383	,	-28286	,	-27411	,	-2.6753647	,	0
46,23	,	103415	,	-28287	,	-27419	,	-3.5211868	,	0
46,23	,	103431	,	-28284	,	-27393	,	-4.62273	,	0
46,23	,	103447	,	-28305	,	-27418	,	-5.943165	,	0
46,23	,	103478	,	-28292	,	-27411	,	-7.427224	,	0
46,23	,	103494	,	-28302	,	-27420	,	-8.944145	,	0
46,23	,	103527	,	-28304	,	-27431	,	-10.279126	,	0
46,23	,	103543	,	-28315	,	-27418	,	-11.346533	,	0
46,23	,	103559	,	-28319	,	-27428	,	-12.22382	,	0
46,23	,	103591	,	-28312	,	-27422	,	-12.96678	,	0
46,23	,	103607	,	-28330	,	-27436	,	-13.522015	,	0
46,23	,	103623	,	-28331	,	-27433	,	-13.905649	,	0
46,23	,	103654	,	-28337	,	-27460	,	-14.2460785	,	0
46,23	,	103670	,	-28336	,	-27432	,	-14.589077	,	0
46,23	,	103687	,	-28346	,	-27440	,	-14.875885	,	0
46,23	,	103719	,	-28354	,	-27439	,	-15.097412	,	0
46,23	,	103735	,	-28325	,	-27437	,	-15.189447	,	0
46,23	,	103767	,	-28304	,	-27419	,	-14.645657	,	0
46,23	,	103783	,	-28289	,	-27409	,	-12.625263	,	0
46,23	,	103799	,	-28268	,	-27397	,	-8.551592	,	2
46,23	,	103830	,	-28259	,	-27397	,	-2.4072843	,	6
46,23	,	103846	,	-28252	,	-27393	,	5.280675	,	12
46,23	,	103862	,	-28245	,	-27398	,	13.58099	,	19
46,23	,	103895	,	-28245	,	-27403	,	21.431076	,	27
46,23	,	103911	,	-28240	,	-27375	,	27.88235	,	34
46,23	,	103943	,	-28240	,	-27387	,	32.277912	,	40
46,23	,	103958	,	-28232	,	-27382	,	34.37034	,	44
46,23	,	103975	,	-28235	,	-27380	,	34.297874	,	46
46,23	,	104006	,	-28244	,	-27385	,	32.365032	,	44
46,23	,	104022	,	-28236	,	-27385	,	28.8947	,	40
46,23	,	104038	,	-28236	,	-27386	,	24.35131	,	34
46,23	,	104071	,	-28224	,	-27376	,	19.404175	,	27
46,23	,	104086	,	-28229	,	-27383	,	14.746579	,	19
46,23	,	104102	,	-28228	,	-27389	,	10.827902	,	12
46,23	,	104134	,	-28227	,	-27375	,	7.769844	,	6
46,23	,	104150	,	-28233	,	-27376	,	5.4994206	,	2
46,23	,	104182	,	-28226	,	-27372	,	3.8649988	,	0
46,23	,	104198	,	-28242	,	-27386	,	2.6662688	,	0
46,24	,	104215	,	-28250	,	-27368	,	1.5854657	,	0
46,24	,	104247	,	-28249	,	-27389	,	0.26520085	,	0
46,24	,	104263	,	-28233	,	-27377	,	-1.3303698	,	0
46,24	,	104278	,	-28249	,	-27379	,	-2.8701901	,	0
46,24	,	104310	,	-28257	,	-27391	,	-4.1459594	,	0
46,24	,	104326	,	-28255	,	-27392	,	-5.268133	,	0
46,24	,	104358	,	-28250	,	-27402	,	-6.2928724	,	0
46,24	,	104374	,	-28283	,	-27384	,	-7.192996	,	0
46,24	,	104390	,	-28272	,	-27402	,	-8.167125	,	0
46,24	,	104422	,	-28282	,	-27410	,	-9.41992	,	0
46,24	,	104438	,	-28288	,	-27412	,	-10.898104	,	0
46,24	,	104454	,	-28289	,	-27413	,	-12.45524	,	0
46,24	,	104486	,	-28294	,	-27406	,	-13.925755	,	0
46,24	,	104502	,	-28297	,	-27415	,	-15.129837	,	0
46,24	,	104518	,	-28314	,	-27413	,	-16.00964	,	0
46,24	,	104550	,	-28313	,	-27416	,	-16.681974	,	0
46,24	,	104566	,	-28314	,	-27420	,	-17.241781	,	0
46,24	,	104598	,	-28320	,	-27433	,	-17.618626	,	0
46,24	,	104614	,	-28334	,	-27406	,	-17.769573	,	0
46,24	,	104630	,	-28337	,	-27430	,	-17.828384	,	0
46,24	,	104662	,	-28354	,	-27429	,	-18.00597	,	0
46,24	,	104678	,	-28363	,	-27436	,	-18.511448	,	0
46,24	,	104694	,	-28370	,	-27437	,	-19.478653	,	0
46,24	,	104726	,	-28360	,	-27427	,	-20.773802	,	0
46,24	,	104742	,	-28326	,	-27427	,	-21.762333	,	0
46,24	,	104774	,	-28306	,	-27407	,	-21.32537	,	0
46,24	,	104790	,	-28297	,	-27403	,	-18.449223	,	0
46,24	,	104806	,	-28275	,	-27401	,	-12.839414	,	2
46,24	,	104838	,	-28269	,	-27411	,	-4.915922	,	7
46,24	,	104854	,	-28248	,	-27365	,	4.483059	,	14
46,24	,	104870	,	-28239	,	-27376	,	14.380259	,	23
46,24	,	104902	,	-28230	,	-27377	,	23.842247	,	32
46,24	,	104918	,	-28221	,	-27369	,	32.05087	,	41
46,24	,	104934	,	-28236	,	-27372	,	38.297512	,	49
46,24	,	104966	,	-28232	,	-27375	,	41.9422	,	55
46,24	,	104982	,	-28231	,	-27374	,	42.62931	,	58
46,24	,	105014	,	-28228	,	-27373	,	40.550545	,	56
46,24	,	105030	,	-28234	,	-27369	,	36.306084	,	51
46,24	,	105046	,	-28227	,	-27363	,	30.633343	,	44
46,24	,	105078	,	-28212	,	-27386	,	24.389196	,	35
46,24	,	105094	,	-28216	,	-27349	,	18.509968	,	26
46,24	,	105110	,	-28215	,	-27370	,	13.658686	,	17
46,24	,	105142	,	-28218	,	-27363	,	10.006964	,	9
46,24	,	105158	,	-28224	,	-27380	,	7.3665714	,	3
46,24	,	105190	,	-28227	,	-27371	,	5.381453	,	0
46,24	,	105206	,	-28233	,	-27379	,	3.6893215	,	0
46,25	,	105222	,	-28219	,	-27385	,	2.0942233	,	0
46,25	,	105254	,	-28248	,	-27380	,	0.5560217	,	0
46,25	,	105270	,	-28257	,	-27381	,	-1.1248801	,	0
46,25	,	105286	,	-28260	,	-27385	,	-3.299664	,	0
46,25	,	105318	,	-28242	,	-27405	,	-5.9470496	,	0
46,25	,	105334	,	-28250	,	-27369	,	-8.514107	,	0
46,25	,	105366	,	-28249	,	-27397	,	-10.401226	,	0
46,25	,	105382	,	-28256	,	-27399	,	-11.377824	,	0
46,25	,	105398	,	-28268	,	-27403	,	-11.601683	,	0
46,25	,	105430	,	-28276	,	-27412	,	-11.48833	,	0
46,25	,	105446	,	-28280	,	-27406	,	-11.47393	,	0
46,25	,	105462	,	-28287	,	-27415	,	-11.798255	,	0
46,25	,	105494	,	-28295	,	-27406	,	-12.519427	,	0
46,25	,	105510	,	-28302	,	-27430	,	-13.61335	,	0
46,25	,	105526	,	-28302	,	-27425	,	-14.964598	,	0
46,25	,	105558	,	-28300	,	-27438	,	-16.2973	,	0
46,25	,	105574	,	-28327	,	-27417	,	-17.354767	,	0
46,25	,	105606	,	-28333	,	-27426	,	-18.2308	,	0
46,25	,	105622	,	-28347	,	-27433	,	-19.259436	,	0
46,25	,	105638	,	-28347	,	-27440	,	-20.616816	,	0
46,25	,	105670	,	-28356	,	-27443	,	-22.188705	,	0
46,25	,	105686	,	-28356	,	-27453	,	-23.68492	,	0
46,25	,	105703	,	-28378	,	-27452	,	-24.869347	,	0
46,25	,	105734	,	-28370	,	-27452	,	-25.689693	,	0
46,25	,	105750	,	-28355	,	-27453	,	-26.002502	,	0
46,25	,	105781	,	-28334	,	-27431	,	-25.27187	,	0
46,25	,	105798	,	-28317	,	-27442	,	-22.77052	,	0
46,25	,	105814	,	-28288	,	-27401	,	-17.960602	,	2
46,25	,	105846	,	-28273	,	-27404	,	-10.683122	,	6
46,25	,	105862	,	-28283	,	-27400	,	-1.3994246	,	13
46,25	,	105878	,	-28267	,	-27414	,	8.717939	,	22
46,25	,	105910	,	-28265	,	-27393	,	18.298878	,	32
46,25	,	105926	,	-28250	,	-27402	,	26.347963	,	41
46,25	,	105942	,	-28260	,	-27396	,	32.297314	,	49
46,25	,	105973	,	-28250	,	-27400	,	35.837784	,	54
46,25	,	105990	,	-28269	,	-27405	,	36.84235	,	57
46,25	,	106021	,	-28260	,	-27405	,	35.364918	,	56
46,25	,	106037	,	-28261	,	-27416	,	31.748335	,	52
46,25	,	106053	,	-28263	,	-27386	,	26.651363	,	45
46,25	,	106086	,	-28266	,	-27400	,	20.805048	,	36
46,25	,	106102	,	-28259	,	-27401	,	14.856626	,	26
46,25	,	106134	,	-28251	,	-27403	,	9.43484	,	17
46,25	,	106150	,	-28268	,	-27389	,	5.035061	,	9
46,25	,	106165	,	-28260	,	-27390	,	1.7679935	,	4
46,25	,	106197	,	-28263	,	-27401	,	-0.5134835	,	1
46,26	,	106213	,	-28271	,	-27397	,	-1.9891741	,	0
46,26	,	106229	,	-28266	,	-27412	,	-2.8890069	,	0
46,26	,	106262	,	-28277	,	-27402	,	-3.4526331	,	0
46,26	,	106278	,	-28288	,	-27409	,	-3.946348	,	0
46,26	,	106294	,	-28286	,	-27410	,	-4.6692944	,	0
46,26	,	106326	,	-28304	,	-27411	,	-5.8032813	,	0
46,26	,	106341	,	-28308	,	-27421	,	-7.430788	,	0
46,26	,	106373	,	-28308	,	-27419	,	-9.524961	,	0
46,26	,	106389	,	-28314	,	-27425	,	-11.829056	,	0
46,26	,	106405	,	-28335	,	-27435	,	-14.069253	,	0
46,26	,	106438	,	-28326	,	-27427	,	-16.16201	,	0
46,26	,	106454	,	-28335	,	-27432	,	-18.001152	,	0
46,26	,	106469	,	-28327	,	-27428	,	-19.326965	,	0
46,26	,	106501	,	-28329	,	-27435	,	-19.854347	,	0
46,26	,	106517	,	-28352	,	-27433	,	-19.51252	,	0
46,26	,	106549	,	-28353	,	-27440	,	-18.642258	,	0
46,26	,	106565	,	-28357	,	-27445	,	-17.722042	,	0
46,26	,	106581	,	-28371	,	-27453	,	-17.035221	,	0
46,26	,	106613	,	-28366	,	-27467	,	-16.702623	,	0
46,26	,	106630	,	-28371	,	-27473	,	-16.667645	,	0
46,26	,	106646	,	-28376	,	-27461	,	-16.727873	,	0
46,26	,	106677	,	-28377	,	-27452	,	-16.716072	,	0
46,26	,	106693	,	-28360	,	-27456	,	-16.438053	,	0
46,26	,	106725	,	-28345	,	-27435	,	-15.4749155	,	0
46,26	,	106741	,	-28324	,	-27430	,	-13.246548	,	0
46,26	,	106757	,	-28323	,	-27432	,	-9.359854	,	2
46,26	,	106789	,	-28306	,	-27426	,	-3.9001737	,	5
46,26	,	106805	,	-28304	,	-27421	,	2.6256084	,	10
46,26	,	106821	,	-28305	,	-27421	,	9.453627	,	16
46,26	,	106853	,	-28305	,	-27424	,	15.674035	,	22
46,26	,	106869	,	-28301	,	-27418	,	20.490469	,	28
46,26	,	106885	,	-28312	,	-27427	,	23.41806	,	32
46,26	,	106917	,	-28305	,	-27423	,	24.268267	,	34
46,26	,	106933	,	-28310	,	-27418	,	23.165932	,	34
46,26	,	106965	,	-28301	,	-27433	,	20.553555	,	32
46,26	,	106981	,	-28304	,	-27416	,	17.057442	,	29
46,26	,	106997	,	-28302	,	-27422	,	13.281891	,	24
46,26	,	107029	,	-28306	,	-27425	,	9.656222	,	18
46,26	,	107045	,	-28307	,	-27422	,	6.420551	,	12
46,26	,	107061	,	-28314	,	-27420	,	3.6540022	,	6
46,26	,	107093	,	-28307	,	-27415	,	1.3381233	,	2
46,26	,	107109	,	-28311	,	-27422	,	-0.5195341	,	0
46,26	,	107141	,	-28316	,	-27420	,	-1.9087143	,	0
46,26	,	107157	,	-28311	,	-27435	,	-2.8938448	,	0
46,26	,	107173	,	-28310	,	-27428	,	-3.5167718	,	0
46,26	,	107205	,	-28324	,	-27444	,	-3.8201895	,	0
46,27	,	107221	,	-28331	,	-27412	,	-4.0368376	,	0
46,27	,	107237	,	-28341	,	-27441	,	-4.5359116	,	0
46,27	,	107269	,	-28347	,	-27441	,	-5.597247	,	0
46,27	,	107285	,	-28348	,	-27445	,	-7.267341	,	0
46,27	,	107301	,	-28355	,	-27444	,	-9.342607	,	0
46,27	,	107333	,	-28366	,	-27456	,	-11.547431	,	0
46,27	,	107349	,	-28371	,	-27452	,	-13.721617	,	0
46,27	,	107381	,	-28373	,	-27455	,	-15.760643	,	0
46,27	,	107397	,	-28384	,	-27463	,	-17.529434	,	0
46,27	,	107413	,	-28385	,	-27468	,	-18.926918	,	0
46,27	,	107445	,	-28391	,	-27485	,	-19.900368	,	0
46,27	,	107461	,	-28399	,	-27444	,	-20.431412	,	0
46,27	,	107477	,	-28417	,	-27472	,	-20.647488	,	0
46,27	,	107509	,	-28425	,	-27485	,	-20.861721	,	0
46,27	,	107525	,	-28423	,	-27484	,	-21.31754	,	0
46,27	,	107557	,	-28429	,	-27481	,	-21.939789	,	0
46,27	,	107573	,	-28397	,	-27471	,	-22.295137	,	0
46,27	,	107589	,	-28363	,	-27460	,	-21.498945	,	0
46,27	,	107621	,	-28355	,	-27440	,	-18.473999	,	0
46,27	,	107637	,	-28349	,	-27433	,	-12.769011	,	3
46,27	,	107653	,	-28331	,	-27435	,	-4.871175	,	8
46,27	,	107685	,	-28324	,	-27458	,	4.267086	,	15
46,27	,	107701	,	-28328	,	-27415	,	13.556775	,	24
46,27	,	107717	,	-28321	,	-27427	,	21.850515	,	33
46,27	,	107749	,	-28315	,	-27427	,	28.2415	,	41
46,27	,	107765	,	-28311	,	-27433	,	32.323494	,	47
46,27	,	107797	,	-28326	,	-27429	,	34.03311	,	51
46,27	,	107813	,	-28328	,	-27435	,	33.374218	,	52
46,27	,	107829	,	-28326	,	-27429	,	30.490654	,	49
46,27	,	107861	,	-28326	,	-27439	,	25.878548	,	44
46,27	,	107877	,	-28318	,	-27429	,	20.32388	,	37
46,27	,	107893	,	-28316	,	-27438	,	14.690154	,	28
46,27	,	107924	,	-28306	,	-27449	,	9.748578	,	19
46,27	,	107941	,	-28322	,	-27415	,	5.97536	,	11
46,27	,	107973	,	-28313	,	-27430	,	3.4027538	,	5
46,27	,	107989	,	-28323	,	-27425	,	1.7698736	,	1
46,27	,	108005	,	-28317	,	-27430	,	0.7705569	,	0
46,27	,	108037	,	-28332	,	-27434	,	0.10883367	,	0
46,27	,	108053	,	-28327	,	-27440	,	-0.49928766	,	0
46,27	,	108069	,	-28336	,	-27436	,	-1.2496507	,	0
46,27	,	108100	,	-28335	,	-27444	,	-2.2087233	,	0
46,27	,	108116	,	-28340	,	-27440	,	-3.3476782	,	0
46,27	,	108132	,	-28346	,	-27445	,	-4.60152	,	0
46,27	,	108165	,	-28359	,	-27467	,	-5.976463	,	0
46,27	,	108180	,	-28365	,	-27442	,	-7.582546	,	0
46,28	,	108213	,	-28366	,	-27454	,	-9.473421	,	0
46,28	,	108229	,	-28372	,	-27458	,	-11.513237	,	0
46,28	,	108245	,	-28384	,	-27460	,	-13.505624	,	0
46,28	,	108277	,	-28394	,	-27468	,	-15.391457	,	0
46,28	,	108293	,	-28394	,	-27465	,	-17.185688	,	0
46,28	,	108308	,	-28390	,	-27468	,	-18.748245	,	0
46,28	,	108340	,	-28405	,	-27468	,	-19.820004	,	0
46,28	,	108356	,	-28413	,	-27474	,	-20.336628	,	0
46,28	,	108389	,	-28410	,	-27476	,	-20.447895	,	0
46,28	,	108405	,	-28426	,	-27494	,	-20.29356	,	0
46,28	,	108421	,	-28432	,	-27485	,	-20.030895	,	0
46,28	,	108453	,	-28433	,	-27496	,	-19.834053	,	0
46,28	,	108468	,	-28401	,	-27479	,	-19.550613	,	0
46,28	,	108484	,	-28386	,	-27459	,	-18.482172	,	0
46,28	,	108516	,	-28372	,	-27456	,	-15.782626	,	1
46,28	,	108533	,	-28354	,	-27447	,	-11.031354	,	3
46,28	,	108549	,	-28350	,	-27441	,	-4.3909454	,	7
46,28	,	108580	,	-28335	,	-27434	,	3.5081992	,	13
46,28	,	108596	,	-28328	,	-27432	,	11.810572	,	20
46,28	,	108628	,	-28315	,	-27439	,	19.703386	,	28
46,28	,	108644	,	-28312	,	-27439	,	26.53689	,	35
46,28	,	108660	,	-28305	,	-27433	,	31.837719	,	41
46,28	,	108692	,	-28326	,	-27438	,	35.20545	,	46
46,28	,	108709	,	-28322	,	-27430	,	36.224735	,	48
46,28	,	108725	,	-28318	,	-27432	,	34.737625	,	47
46,28	,	108756	,	-28320	,	-27418	,	31.124807	,	43
46,28	,	108772	,	-28306	,	-27422	,	26.16651	,	37
46,28	,	108804	,	-28313	,	-27421	,	20.758783	,	30
46,28	,	108820	,	-28314	,	-27422	,	15.598025	,	22
46,28	,	108836	,	-28304	,	-27423	,	11.072163	,	15
46,28	,	108868	,	-28298	,	-27430	,	7.4868374	,	9
46,28	,	108884	,	-28301	,	-27419	,	5.080343	,	4
46,28	,	108901	,	-28301	,	-27428	,	3.810192	,	1
46,28	,	108932	,	-28313	,	-27424	,	3.3232849	,	0
46,28	,	108948	,	-28320	,	-27438	,	3.0738268	,	0
46,28	,	108964	,	-28340	,	-27432	,	2.4434125	,	0
46,28	,	108996	,	-28331	,	-27439	,	0.9635471	,	0
46,28	,	109012	,	-28326	,	-27442	,	-1.3328595	,	0
46,28	,	109045	,	-28333	,	-27442	,	-3.9297912	,	0
46,28	,	109060	,	-28344	,	-27444	,	-6.3561587	,	0
46,28	,	109076	,	-28343	,	-27453	,	-8.462886	,	0
46,28	,	109108	,	-28357	,	-27452	,	-10.263103	,	0
46,28	,	109124	,	-28360	,	-27442	,	-11.830983	,	0
46,28	,	109140	,	-28373	,	-27459	,	-13.288448	,	0
46,28	,	109172	,	-28377	,	-27463	,	-14.74791	,	0
46,28	,	109188	,	-28376	,	-27465	,	-16.210587	,	0
46,29	,	109220	,	-28380	,	-27457	,	-17.497192	,	0
46,29	,	109236	,	-28399	,	-27457	,	-18.445002	,	0
46,29	,	109252	,	-28396	,	-27465	,	-19.111847	,	0
46,29	,	109284	,	-28413	,	-27467	,	-19.650597	,	0
46,29	,	109300	,	-28410	,	-27472	,	-20.159351	,	0
46,29	,	109316	,	-28421	,	-27480	,	-20.646122	,	0
46,29	,	109348	,	-28420	,	-27491	,	-21.033527	,	0
46,29	,	109364	,	-28419	,	-27464	,	-21.173515	,	0
46,29	,	109380	,	-28417	,	-27488	,	-20.840618	,	0
46,29	,	109412	,	-28392	,	-27459	,	-19.711414	,	0
46,29	,	109428	,	-28362	,	-27451	,	-17.247845	,	1
46,29	,	109460	,	-28346	,	-27444	,	-12.797706	,	3
46,29	,	109476	,	-28342	,	-27436	,	-6.138857	,	7
46,29	,	109492	,	-28323	,	-27432	,	2.2208824	,	13
46,29	,	109524	,	-28319	,	-27429	,	11.35253	,	21
46,29	,	109540	,	-28307	,	-27423	,	20.26314	,	30
46,29	,	109556	,	-28308	,	-27428	,	28.041046	,	38
46,29	,	109588	,	-28309	,	-27427	,	33.924164	,	45
46,29	,	109604	,	-28311	,	-27404	,	37.358692	,	50
46,29	,	109636	,	-28299	,	-27418	,	38.16711	,	52
46,29	,	109652	,	-28303	,	-27425	,	36.6558	,	50
46,29	,	109668	,	-28307	,	-27415	,	33.37647	,	46
46,29	,	109700	,	-28310	,	-27416	,	28.830698	,	40
46,29	,	109716	,	-28306	,	-27410	,	23.48733	,	32
46,29	,	109732	,	-28295	,	-27407	,	17.941402	,	23
46,29	,	109764	,	-28304	,	-27407	,	12.842217	,	15
46,29	,	109780	,	-28284	,	-27411	,	8.679411	,	8
46,29	,	109812	,	-28292	,	-27417	,	5.7526293	,	3
46,29	,	109828	,	-28292	,	-27413	,	4.1044836	,	0
46,29	,	109844	,	-28283	,	-27396	,	3.487948	,	0
46,29	,	109876	,	-28293	,	-27407	,	3.5715723	,	0
46,29	,	109892	,	-28303	,	-27410	,	3.9416919	,	0
46,29	,	109908	,	-28304	,	-27424	,	4.0722976	,	0
46,29	,	109940	,	-28314	,	-27422	,	3.559156	,	0
46,29	,	109956	,	-28313	,	-27428	,	2.2577667	,	0
46,29	,	109972	,	-28319	,	-27427	,	0.26335645	,	0
46,29	,	110004	,	-28343	,	-27425	,	-2.2703104	,	0
46,29	,	110020	,	-28348	,	-27435	,	-5.3538723	,	0
46,29	,	110052	,	-28346	,	-27431	,	-8.952144	,	0
46,29	,	110068	,	-28350	,	-27460	,	-12.681562	,	0
46,29	,	110084	,	-28343	,	-27418	,	-15.943955	,	0
46,29	,	110116	,	-28362	,	-27440	,	-18.267088	,	0
46,29	,	110132	,	-28361	,	-27442	,	-19.553385	,	0
46,29	,	110148	,	-28363	,	-27457	,	-19.970911	,	0
46,29	,	110180	,	-28368	,	-27456	,	-19.68726	,	0
46,29	,	110196	,	-28378	,	-27467	,	-18.894144	,	0
46,30	,	110228	,	-28382	,	-27456	,	-17.88419	,	0
46,30	,	110244	,	-28377	,	-27463	,	-16.885887	,	1
46,30	,	110260	,	-28390	,	-27462	,	-15.952073	,	1
46,30	,	110292	,	-28410	,	-27464	,	-15.203251	,	1
46,30	,	110308	,	-28407	,	-27484	,	-14.938074	,	1
46,30	,	110324	,	-28404	,	-27455	,	-15.243227	,	1
46,30	,	110356	,	-28380	,	-27460	,	-15.672731	,	1
46,30	,	110372	,	-28352	,	-27438	,	-15.30571	,	1
46,30	,	110388	,	-28322	,	-27427	,	-13.038094	,	1
46,30	,	110420	,	-28310	,	-27418	,	-8.094406	,	3
46,30	,	110436	,	-28295	,	-27421	,	-0.49007845	,	6
46,30	,	110467	,	-28294	,	-27419	,	8.932651	,	13
46,30	,	110484	,	-28291	,	-27413	,	18.816717	,	22
46,30	,	110500	,	-28290	,	-27408	,	27.71008	,	31
46,30	,	110532	,	-28277	,	-27410	,	34.506123	,	39
46,30	,	110548	,	-28264	,	-27424	,	38.763306	,	45
46,30	,	110564	,	-28264	,	-27393	,	40.641495	,	49
46,30	,	110596	,	-28274	,	-27410	,	40.44857	,	50
46,30	,	110612	,	-28287	,	-27397	,	38.28475	,	48
46,30	,	110644	,	-28278	,	-27406	,	34.205364	,	44
46,30	,	110660	,	-28269	,	-27401	,	28.65041	,	37
46,30	,	110676	,	-28273	,	-27394	,	22.464333	,	28
46,30	,	110708	,	-28257	,	-27402	,	16.525686	,	19
46,30	,	110724	,	-28267	,	-27396	,	11.507781	,	11
46,30	,	110739	,	-28263	,	-27395	,	7.73149	,	5
46,30	,	110771	,	-28265	,	-27401	,	5.148039	,	1
46,30	,	110787	,	-28268	,	-27405	,	3.5171065	,	0
46,30	,	110804	,	-28264	,	-27393	,	2.549983	,	0
46,30	,	110836	,	-28283	,	-27395	,	1.9324975	,	0
46,30	,	110852	,	-28284	,	-27400	,	1.268283	,	0
46,30	,	110883	,	-28291	,	-27409	,	0.19568229	,	0
46,30	,	110899	,	-28291	,	-27416	,	-1.3980191	,	0
46,30	,	110915	,	-28286	,	-27410	,	-3.334442	,	0
46,30	,	110947	,	-28293	,	-27419	,	-5.2520084	,	0
46,30	,	110963	,	-28310	,	-27418	,	-6.9218225	,	0
46,30	,	110979	,	-28314	,	-27425	,	-8.460583	,	0
46,30	,	111012	,	-28317	,	-27432	,	-10.074083	,	0
46,30	,	111028	,	-28326	,	-27427	,	-11.789315	,	0
46,30	,	111059	,	-28316	,	-27419	,	-13.453709	,	0
46,30	,	111075	,	-28332	,	-27436	,	-14.813429	,	0
46,30	,	111091	,	-28338	,	-27432	,	-15.743439	,	0
46,30	,	111123	,	-28348	,	-27437	,	-16.379375	,	0
46,30	,	111139	,	-28349	,	-27452	,	-16.913986	,	0
46,30	,	111155	,	-28357	,	-27448	,	-17.421278	,	0
46,30	,	111187	,	-28367	,	-27457	,	-17.917051	,	0
46,30	,	111204	,	-28372	,	-27456	,	-18.448843	,	0
46,31	,	111219	,	-28387	,	-27466	,	-19.084116	,	0
46,31	,	111251	,	-28388	,	-27470	,	-19.878273	,	0
46,31	,	111267	,	-28391	,	-27470	,	-20.779154	,	0
46,31	,	111299	,	-28408	,	-27470	,	-21.638065	,	0
46,31	,	111315	,	-28353	,	-27447	,	-22.129097	,	0
46,31	,	111331	,	-28335	,	-27447	,	-21.35086	,	0
46,31	,	111363	,	-28304	,	-27443	,	-18.09063	,	0
46,31	,	111379	,	-28312	,	-27427	,	-11.797428	,	3
46,31	,	111395	,	-28305	,	-27434	,	-3.0846186	,	9
46,31	,	111427	,	-28299	,	-27421	,	6.64126	,	17
46,31	,	111443	,	-28292	,	-27417	,	15.939686	,	26
46,31	,	111475	,	-28290	,	-27420	,	23.754549	,	35
46,31	,	111491	,	-28282	,	-27419	,	29.456747	,	42
46,31	,	111508	,	-28273	,	-27414	,	32.86329	,	47
46,31	,	111539	,	-28285	,	-27418	,	34.109913	,	50
46,31	,	111555	,	-28291	,	-27420	,	33.33492	,	51
46,31	,	111571	,	-28292	,	-27421	,	30.63462	,	48
46,31	,	111603	,	-28282	,	-27425	,	26.36038	,	42
46,31	,	111619	,	-28295	,	-27417	,	21.160183	,	34
46,31	,	111651	,	-28283	,	-27417	,	15.69285	,	25
46,31	,	111667	,	-28297	,	-27416	,	10.470203	,	16
46,31	,	111683	,	-28276	,	-27412	,	5.896096	,	9
46,31	,	111715	,	-28289	,	-27413	,	2.3166018	,	4
46,31	,	111731	,	-28305	,	-27428	,	-0.1933217	,	1
46,31	,	111747	,	-28286	,	-27403	,	-1.9184301	,	0
46,31	,	111779	,	-28310	,	-27416	,	-3.1503448	,	0
46,31	,	111795	,	-28290	,	-27427	,	-4.0482926	,	0
46,31	,	111811	,	-28309	,	-27425	,	-4.6984987	,	0
46,31	,	111843	,	-28307	,	-27427	,	-5.180977	,	0
46,31	,	111859	,	-28315	,	-27440	,	-5.6492877	,	0
46,31	,	111891	,	-28329	,	-27437	,	-6.2898006	,	0
46,31	,	111907	,	-28333	,	-27435	,	-7.305722	,	0
46,31	,	111923	,	-28333	,	-27443	,	-8.781259	,	0
46,31	,	111955	,	-28344	,	-27447	,	-10.569851	,	0
46,31	,	111971	,	-28331	,	-27467	,	-12.382387	,	0
46,31	,	111987	,	-28364	,	-27432	,	-13.953986	,	0
46,31	,	112019	,	-28363	,	-27460	,	-15.3062	,	0
46,31	,	112035	,	-28361	,	-27455	,	-16.603168	,	0
46,31	,	112067	,	-28386	,	-27458	,	-17.85083	,	0
46,31	,	112083	,	-28379	,	-27465	,	-19.04584	,	0
46,31	,	112099	,	-28384	,	-27461	,	-20.15521	,	0
46,31	,	112131	,	-28391	,	-27467	,	-20.999271	,	0
46,31	,	112147	,	-28394	,	-27468	,	-21.442211	,	0
46,31	,	112163	,	-28373	,	-27455	,	-21.34158	,	0
46,31	,	112195	,	-28346	,	-27451	,	-20.22645	,	0
46,32	,	112211	,	-28329	,	-27455	,	-17.35277	,	1
46,32	,	112227	,	-28311	,	-27400	,	-12.206092	,	3
46,32	,	112259	,	-28309	,	-27427	,	-4.9071665	,	8
46,32	,	112275	,	-28285	,	-27428	,	3.837263	,	15
46,32	,	112307	,	-28292	,	-27419	,	13.055259	,	23
46,32	,	112323	,	-28290	,	-27421	,	21.655243	,	32
46,32	,	112339	,	-28285	,	-27417	,	28.572594	,	40
46,32	,	112371	,	-28294	,	-27421	,	33.0714	,	46
46,32	,	112387	,	-28285	,	-27422	,	34.852703	,	50
46,32	,	112403	,	-28287	,	-27434	,	34.064808	,	50
46,32	,	112435	,	-28288	,	-27421	,	31.212275	,	48
46,32	,	112451	,	-28291	,	-27442	,	26.907131	,	43
46,32	,	112483	,	-28279	,	-27400	,	21.799541	,	36
46,32	,	112499	,	-28289	,	-27419	,	16.575071	,	28
46,32	,	112515	,	-28285	,	-27419	,	11.76006	,	19
46,32	,	112547	,	-28278	,	-27415	,	7.663081	,	11
46,32	,	112563	,	-28276	,	-27419	,	4.5260334	,	5
46,32	,	112579	,	-28290	,	-27420	,	2.4318285	,	1
46,32	,	112610	,	-28278	,	-27418	,	1.1781535	,	0
46,32	,	112626	,	-28287	,	-27425	,	0.48984098	,	0
46,32	,	112643	,	-28300	,	-27430	,	0.085107684	,	0
46,32	,	112675	,	-28301	,	-27432	,	-0.43192655	,	0
46,32	,	112691	,	-28309	,	-27445	,	-1.3883685	,	0
46,32	,	112723	,	-28311	,	-27416	,	-2.8650763	,	0
46,32	,	112739	,	-28323	,	-27434	,	-4.7835484	,	0
46,32	,	112755	,	-28313	,	-27439	,	-6.9684153	,	0
46,32	,	112786	,	-28328	,	-27449	,	-9.1401205	,	0
46,32	,	112803	,	-28332	,	-27452	,	-11.073496	,	0
46,32	,	112819	,	-28347	,	-27447	,	-12.761074	,	0
46,32	,	112851	,	-28345	,	-27454	,	-14.308323	,	0
46,32	,	112867	,	-28344	,	-27454	,	-15.692724	,	0
46,32	,	112898	,	-28348	,	-27457	,	-16.70447	,	0
46,32	,	112915	,	-28345	,	-27456	,	-17.125715	,	0
46,32	,	112930	,	-28372	,	-27479	,	-16.96454	,	0
46,32	,	112962	,	-28365	,	-27453	,	-16.535503	,	0
46,32	,	112978	,	-28367	,	-27462	,	-16.140789	,	0
46,32	,	112995	,	-28343	,	-27450	,	-15.663721	,	0
46,32	,	113027	,	-28319	,	-27439	,	-14.499931	,	0
46,32	,	113043	,	-28281	,	-27436	,	-11.732565	,	1
46,32	,	113058	,	-28273	,	-27425	,	-6.5774837	,	3
46,32	,	113090	,	-28264	,	-27418	,	1.0118632	,	8
46,32	,	113106	,	-28261	,	-27418	,	10.168726	,	15
46,32	,	113138	,	-28263	,	-27416	,	19.503277	,	24
46,32	,	113155	,	-28250	,	-27414	,	27.649025	,	33
46,32	,	113170	,	-28252	,	-27434	,	33.684128	,	41
46,32	,	113202	,	-28254	,	-27386	,	37.174694	,	47
46,33	,	113219	,	-28255	,	-27405	,	37.995613	,	50
46,33	,	113235	,	-28254	,	-27401	,	36.313774	,	49
46,33	,	113267	,	-28249	,	-27408	,	32.626728	,	47
46,33	,	113282	,	-28246	,	-27408	,	27.683128	,	42
46,33	,	113314	,	-28235	,	-27406	,	22.338661	,	35
46,33	,	113330	,	-28250	,	-27402	,	17.32127	,	26
46,33	,	113346	,	-28243	,	-27400	,	12.9846735	,	17
46,33	,	113378	,	-28245	,	-27400	,	9.384228	,	9
46,33	,	113394	,	-28238	,	-27400	,	6.5353203	,	3
46,33	,	113411	,	-28247	,	-27415	,	4.4416885	,	0
46,33	,	113442	,	-28237	,	-27399	,	3.0201402	,	0
46,33	,	113458	,	-28245	,	-27407	,	2.140726	,	0
46,33	,	113474	,	-28244	,	-27419	,	1.649416	,	0
46,33	,	113506	,	-28251	,	-27416	,	1.337111	,	0
46,33	,	113522	,	-28253	,	-27420	,	0.97080123	,	0
46,33	,	113554	,	-28262	,	-27423	,	0.34091967	,	0
46,33	,	113570	,	-28273	,	-27423	,	-0.74174285	,	0
46,33	,	113586	,	-28275	,	-27426	,	-2.4097605	,	0
46,33	,	113618	,	-28280	,	-27422	,	-4.618552	,	0
46,33	,	113634	,	-28287	,	-27434	,	-7.1470594	,	0
46,33	,	113650	,	-28300	,	-27450	,	-9.785864	,	0
46,33	,	113682	,	-28305	,	-27443	,	-12.445345	,	0
46,33	,	113698	,	-28306	,	-27433	,	-15.031046	,	0
46,33	,	113730	,	-28321	,	-27434	,	-17.371471	,	0
46,33	,	113746	,	-28317	,	-27442	,	-19.321976	,	0
46,33	,	113762	,	-28319	,	-27450	,	-20.729662	,	0
46,33	,	113794	,	-28322	,	-27452	,	-21.39595	,	0
46,33	,	113810	,	-28336	,	-27464	,	-21.28363	,	0
46,33	,	113826	,	-28325	,	-27463	,	-20.566847	,	0
46,33	,	113858	,	-28341	,	-27463	,	-19.430414	,	0
46,33	,	113874	,	-28359	,	-27461	,	-18.147186	,	1
46,33	,	113890	,	-28330	,	-27448	,	-17.037457	,	2
46,33	,	113922	,	-28296	,	-27437	,	-15.813523	,	3
46,33	,	113938	,	-28269	,	-27414	,	-13.401848	,	4
46,33	,	113970	,	-28259	,	-27411	,	-8.784466	,	6
46,33	,	113986	,	-28247	,	-27405	,	-1.7896934	,	10
46,33	,	114002	,	-28242	,	-27401	,	6.8735614	,	16
46,33	,	114034	,	-28244	,	-27400	,	15.990152	,	24
46,33	,	114050	,	-28232	,	-27403	,	24.262701	,	33
46,33	,	114066	,	-28231	,	-27397	,	30.730186	,	40
46,33	,	114098	,	-28224	,	-27400	,	34.931072	,	45
46,33	,	114114	,	-28235	,	-27407	,	36.740326	,	48
46,33	,	114146	,	-28237	,	-27387	,	36.16571	,	48
46,33	,	114162	,	-28232	,	-27408	,	33.38598	,	46
46,33	,	114178	,	-28234	,	-27396	,	28.901327	,	42
46,34	,	114210	,	-28237	,	-27397	,	23.409147	,	36
46,34	,	114226	,	-28224	,	-27397	,	17.622086	,	28
46,34	,	114242	,	-28225	,	-27391	,	12.251517	,	19
46,34	,	114274	,	-28218	,	-27396	,	7.8884115	,	11
46,34	,	114290	,	-28230	,	-27396	,	4.7936735	,	5
46,34	,	114322	,	-28234	,	-27408	,	2.8019247	,	1
46,34	,	114338	,	-28226	,	-27395	,	1.5224457	,	0
46,34	,	114354	,	-28234	,	-27413	,	0.6679318	,	0
46,34	,	114386	,	-28242	,	-27385	,	0.03083098	,	0
46,34	,	114402	,	-28247	,	-27427	,	-0.66762125	,	0
46,34	,	114418	,	-28245	,	-27411	,	-1.6443737	,	0
46,34	,	114450	,	-28259	,	-27420	,	-2.942957	,	0
46,34	,	114466	,	-28261	,	-27424	,	-4.552616	,	0
46,34	,	114482	,	-28271	,	-27419	,	-6.4606915	,	0
46,34	,	114514	,	-28277	,	-27425	,	-8.6068735	,	0
46,34	,	114530	,	-28275	,	-27428	,	-10.852357	,	0
46,34	,	114562	,	-28295	,	-27434	,	-13.015318	,	0
46,34	,	114578	,	-28278	,	-27432	,	-14.937685	,	0
46,34	,	114593	,	-28293	,	-27439	,	-16.415838	,	0
46,34	,	114626	,	-28289	,	-27419	,	-17.2546	,	0
46,34	,	114642	,	-28300	,	-27436	,	-17.435812	,	0
46,34	,	114658	,	-28315	,	-27444	,	-17.163475	,	0
46,34	,	114690	,	-28317	,	-27448	,	-16.810604	,	0
46,34	,	114706	,	-28326	,	-27456	,	-16.689804	,	0
46,34	,	114737	,	-28327	,	-27458	,	-16.88654	,	0
46,34	,	114754	,	-28344	,	-27446	,	-17.362034	,	0
46,34	,	114769	,	-28350	,	-27470	,	-18.115631	,	0
46,34	,	114802	,	-28355	,	-27464	,	-19.153769	,	0
46,34	,	114818	,	-28345	,	-27450	,	-20.278938	,	0
46,34	,	114834	,	-28320	,	-27449	,	-20.915012	,	0
46,34	,	114866	,	-28286	,	-27420	,	-20.09245	,	0
46,34	,	114882	,	-28267	,	-27422	,	-16.77832	,	0
46,34	,	114898	,	-28260	,	-27422	,	-10.524618	,	3
46,34	,	114930	,	-28259	,	-27414	,	-1.8835945	,	9
46,34	,	114945	,	-28254	,	-27415	,	7.827275	,	17
46,34	,	114978	,	-28252	,	-27411	,	17.128418	,	26
46,34	,	114994	,	-28226	,	-27409	,	24.937939	,	35
46,34	,	115010	,	-28228	,	-27412	,	30.820715	,	42
46,34	,	115042	,	-28228	,	-27420	,	34.700928	,	47
46,34	,	115058	,	-28221	,	-27417	,	36.542683	,	50
46,34	,	115074	,	-28229	,	-27433	,	36.40632	,	51
46,34	,	115106	,	-28211	,	-27380	,	34.548523	,	48
46,34	,	115121	,	-28219	,	-27397	,	31.436504	,	42
46,34	,	115154	,	-28215	,	-27391	,	27.59003	,	34
46,34	,	115170	,	-28202	,	-27385	,	23.469921	,	25
46,34	,	115186	,	-28193	,	-27388	,	19.611853	,	16
46,35	,	115217	,	-28200	,	-27391	,	16.494371	,	9
46,35	,	115234	,	-28203	,	-27392	,	14.193288	,	4
46,35	,	115249	,	-28197	,	-27387	,	12.45113	,	1
46,35	,	115281	,	-28203	,	-27397	,	11.00721	,	0
46,35	,	115297	,	-28196	,	-27391	,	9.7024765	,	0
46,35	,	115314	,	-28207	,	-27413	,	8.424742	,	0
46,35	,	115346	,	-28220	,	-27392	,	6.9881573	,	0
46,35	,	115362	,	-28209	,	-27404	,	5.1656055	,	0
46,35	,	115393	,	-28224	,	-27394	,	2.9362364	,	0
46,35	,	115409	,	-28225	,	-27410	,	0.43851018	,	0
46,35	,	115425	,	-28222	,	-27410	,	-2.1663609	,	0
46,35	,	115457	,	-28233	,	-27406	,	-4.651988	,	0
46,35	,	115473	,	-28237	,	-27411	,	-6.8535867	,	0
46,35	,	115490	,	-28238	,	-27408	,	-8.74221	,	0
46,35	,	115521	,	-28234	,	-27406	,	-10.2508335	,	0
46,35	,	115538	,	-28241	,	-27419	,	-11.230716	,	0
46,35	,	115569	,	-28262	,	-27437	,	-11.713646	,	0
46,35	,	115585	,	-28257	,	-27417	,	-12.02811	,	0
46,35	,	115601	,	-28276	,	-27433	,	-12.518644	,	0
46,35	,	115634	,	-28275	,	-27427	,	-13.363228	,	0
46,35	,	115650	,	-28287	,	-27433	,	-14.587214	,	0
46,35	,	115666	,	-28286	,	-27426	,	-16.059196	,	0
46,35	,	115697	,	-28292	,	-27424	,	-17.530914	,	0
46,35	,	115713	,	-28288	,	-27421	,	-18.701427	,	0
46,35	,	115729	,	-28271	,	-27421	,	-19.190804	,	0
46,35	,	115761	,	-28277	,	-27434	,	-18.577667	,	0
46,35	,	115778	,	-28265	,	-27454	,	-16.657162	,	0
46,35	,	115809	,	-28258	,	-27451	,	-13.507718	,	1
46,35	,	115825	,	-28255	,	-27450	,	-9.350297	,	4
46,35	,	115841	,	-28235	,	-27442	,	-4.4792943	,	8
46,35	,	115873	,	-28242	,	-27441	,	0.7915373	,	12
46,35	,	115889	,	-28225	,	-27439	,	6.090926	,	17
46,35	,	115905	,	-28233	,	-27446	,	10.981283	,	22
46,35	,	115937	,	-28224	,	-27434	,	15.040359	,	26
46,35	,	115954	,	-28239	,	-27449	,	17.889364	,	30
46,35	,	115985	,	-28236	,	-27447	,	19.212406	,	32
46,35	,	116001	,	-28232	,	-27442	,	18.905453	,	32
46,35	,	116017	,	-28229	,	-27451	,	17.24368	,	29
46,35	,	116049	,	-28223	,	-27441	,	14.782636	,	25
46,35	,	116065	,	-28234	,	-27448	,	12.062632	,	21
46,35	,	116081	,	-28221	,	-27454	,	9.43002	,	16
46,35	,	116113	,	-28230	,	-27448	,	7.0976906	,	11
46,35	,	116129	,	-28236	,	-27455	,	5.1372557	,	7
46,35	,	116145	,	-28217	,	-27444	,	3.5050335	,	3
46,35	,	116177	,	-28226	,	-27456	,	2.2684476	,	1
46,35	,	116193	,	-28235	,	-27460	,	1.46767	,	0
46,36	,	116225	,	-28244	,	-27464	,	0.84030986	,	0
46,36	,	116241	,	-28246	,	-27463	,	0.0030796528	,	0
46,36	,	116257	,	-28254	,	-27470	,	-1.2686808	,	0
46,36	,	116289	,	-28260	,	-27457	,	-3.0157506	,	0
46,36	,	116305	,	-28248	,	-27472	,	-5.085487	,	0
46,36	,	116321	,	-28288	,	-27474	,	-7.2520127	,	0
46,36	,	116353	,	-28294	,	-27477	,	-9.614679	,	0
46,36	,	116369	,	-28290	,	-27482	,	-12.427488	,	0
46,36	,	116401	,	-28298	,	-27493	,	-15.522686	,	0
46,36	,	116417	,	-28302	,	-27493	,	-18.428907	,	0
46,36	,	116433	,	-28294	,	-27483	,	-20.709827	,	0
46,36	,	116465	,	-28306	,	-27491	,	-22.01592	,	0
46,36	,	116481	,	-28310	,	-27494	,	-22.242737	,	0
46,36	,	116497	,	-28305	,	-27493	,	-21.55503	,	0
46,36	,	116529	,	-28324	,	-27492	,	-20.207485	,	0
46,36	,	116545	,	-28334	,	-27508	,	-18.60878	,	1
46,36	,	116561	,	-28336	,	-27507	,	-17.279806	,	2
46,36	,	116593	,	-28353	,	-27497	,	-16.572197	,	3
46,36	,	116609	,	-28343	,	-27489	,	-16.560234	,	3
46,36	,	116641	,	-28324	,	-27481	,	-16.895508	,	3
46,36	,	116657	,	-28309	,	-27486	,	-16.748444	,	3
46,36	,	116673	,	-28293	,	-27466	,	-15.21196	,	3
46,36	,	116705	,	-28279	,	-27475	,	-11.74493	,	4
46,36	,	116721	,	-28279	,	-27471	,	-6.3685765	,	7
46,36	,	116737	,	-28274	,	-27478	,	0.30180168	,	11
46,36	,	116769	,	-28254	,	-27452	,	7.377601	,	16
46,36	,	116785	,	-28262	,	-27471	,	14.104551	,	22
46,36	,	116817	,	-28257	,	-27473	,	19.850765	,	28
46,36	,	116833	,	-28271	,	-27470	,	23.992504	,	33
46,36	,	116849	,	-28281	,	-27476	,	25.968111	,	37
46,36	,	116881	,	-28269	,	-27476	,	25.496622	,	38
46,36	,	116897	,	-28259	,	-27473	,	22.928848	,	37
46,36	,	116913	,	-28270	,	-27463	,	19.122894	,	34
46,36	,	116945	,	-28261	,	-27473	,	14.887265	,	29
46,36	,	116961	,	-28268	,	-27474	,	10.77226	,	23
46,36	,	116993	,	-28261	,	-27482	,	7.14612	,	16
46,36	,	117009	,	-28273	,	-27456	,	4.187994	,	10
46,36	,	117025	,	-28288	,	-27479	,	1.787209	,	5
46,36	,	117057	,	-28270	,	-27480	,	-0.33556557	,	1
46,36	,	117073	,	-28280	,	-27475	,	-2.243172	,	0
46,36	,	117089	,	-28278	,	-27479	,	-3.7886236	,	0
46,36	,	117121	,	-28297	,	-27487	,	-4.9714193	,	0
46,36	,	117137	,	-28299	,	-27497	,	-6.0359297	,	0
46,36	,	117153	,	-28306	,	-27499	,	-7.253756	,	0
46,36	,	117185	,	-28316	,	-27512	,	-8.745684	,	0
46,36	,	117201	,	-28321	,	-27502	,	-10.528691	,	0
46,37	,	117233	,	-28320	,	-27527	,	-12.5046215	,	0
46,37	,	117248	,	-28328	,	-27494	,	-14.417858	,	0
46,37	,	117264	,	-28337	,	-27519	,	-16.039688	,	0
46,37	,	117297	,	-28345	,	-27524	,	-17.334688	,	0
46,37	,	117313	,	-28355	,	-27526	,	-18.405855	,	0
46,37	,	117329	,	-28356	,	-27520	,	-19.358152	,	0
46,37	,	117361	,	-28358	,	-27520	,	-20.168667	,	0
46,37	,	117377	,	-28365	,	-27532	,	-20.692917	,	0
46,37	,	117408	,	-28373	,	-27540	,	-20.847103	,	0
46,37	,	117424	,	-28383	,	-27540	,	-20.724316	,	0
46,37	,	117440	,	-28385	,	-27538	,	-20.508419	,	0
46,37	,	117473	,	-28398	,	-27562	,	-20.344204	,	0
46,37	,	117489	,	-28396	,	-27533	,	-20.2962	,	0
46,37	,	117505	,	-28366	,	-27534	,	-20.145409	,	0
46,37	,	117537	,	-28348	,	-27521	,	-19.160328	,	0
46,37	,	117553	,	-28343	,	-27516	,	-16.499565	,	0
46,37	,	117569	,	-28348	,	-27526	,	-11.956968	,	2
46,37	,	117600	,	-28342	,	-27526	,	-6.123619	,	6
46,37	,	117616	,	-28333	,	-27520	,	0.11211777	,	11
46,37	,	117649	,	-28344	,	-27526	,	5.9665527	,	17
46,37	,	117665	,	-28351	,	-27517	,	10.713825	,	22
46,37	,	117681	,	-28339	,	-27528	,	13.781029	,	26
46,37	,	117713	,	-28345	,	-27556	,	15.051866	,	29
46,37	,	117729	,	-28362	,	-27523	,	14.694088	,	30
46,37	,	117745	,	-28358	,	-27536	,	12.841428	,	30
46,37	,	117776	,	-28362	,	-27541	,	9.748187	,	28
46,37	,	117792	,	-28370	,	-27550	,	5.883353	,	24
46,37	,	117824	,	-28363	,	-27536	,	1.7531581	,	19
46,37	,	117841	,	-28366	,	-27551	,	-2.1339645	,	13
46,37	,	117857	,	-28367	,	-27550	,	-5.3265057	,	8
46,37	,	117888	,	-28378	,	-27543	,	-7.6263704	,	4
46,37	,	117904	,	-28360	,	-27542	,	-9.051757	,	1
46,37	,	117920	,	-28362	,	-27550	,	-9.571704	,	0
46,37	,	117952	,	-28376	,	-27565	,	-9.187214	,	0
46,37	,	117969	,	-28385	,	-27547	,	-8.261745	,	0
46,37	,	117985	,	-28398	,	-27558	,	-7.436958	,	0
46,37	,	118016	,	-28402	,	-27563	,	-7.265241	,	0
46,37	,	118032	,	-28402	,	-27565	,	-7.9513216	,	0
46,37	,	118064	,	-28422	,	-27574	,	-9.387325	,	0
46,37	,	118080	,	-28430	,	-27580	,	-11.44253	,	0
46,37	,	118096	,	-28433	,	-27587	,	-14.008642	,	0
46,37	,	118128	,	-28429	,	-27588	,	-16.764473	,	0
46,37	,	118144	,	-28452	,	-27586	,	-19.264	,	0
46,37	,	118176	,	-28460	,	-27595	,	-21.330353	,	0
46,37	,	118193	,	-28458	,	-27611	,	-23.03204	,	0
46,38	,	118208	,	-28453	,	-27589	,	-24.268993	,	0
46,38	,	118240	,	-28468	,	-27612	,	-24.769285	,	0
46,38	,	118256	,	-28478	,	-27607	,	-24.500011	,	0
46,38	,	118272	,	-28482	,	-27610	,	-23.756268	,	0
46,38	,	118304	,	-28511	,	-27624	,	-22.967514	,	0
46,38	,	118320	,	-28497	,	-27622	,	-22.534245	,	0
46,38	,	118337	,	-28497	,	-27619	,	-22.486519	,	0
46,38	,	118368	,	-28475	,	-27604	,	-22.303555	,	0
46,38	,	118384	,	-28450	,	-27588	,	-21.12769	,	0
46,38	,	118417	,	-28438	,	-27598	,	-18.10379	,	1
46,38	,	118432	,	-28429	,	-27615	,	-12.844817	,	4
46,38	,	118448	,	-28416	,	-27591	,	-5.6569223	,	9
46,38	,	118480	,	-28422	,	-27582	,	2.6332903	,	16
46,38	,	118496	,	-28437	,	-27587	,	10.804956	,	24
46,38	,	118512	,	-28422	,	-27591	,	17.540182	,	32
46,38	,	118544	,	-28447	,	-27595	,	21.927608	,	38
46,38	,	118560	,	-28437	,	-27587	,	23.572596	,	42
46,38	,	118592	,	-28444	,	-27590	,	22.56021	,	43
46,38	,	118608	,	-28457	,	-27603	,	19.370018	,	42
46,38	,	118624	,	-28451	,	-27601	,	14.612473	,	39
46,38	,	118656	,	-28451	,	-27602	,	9.026971	,	34
46,38	,	118672	,	-28453	,	-27600	,	3.4638195	,	27
46,38	,	118688	,	-28471	,	-27615	,	-1.4763112	,	19
46,38	,	118720	,	-28470	,	-27604	,	-5.6365695	,	11
46,38	,	118736	,	-28461	,	-27599	,	-8.992245	,	5
46,38	,	118768	,	-28469	,	-27602	,	-11.364134	,	1
46,38	,	118784	,	-28474	,	-27612	,	-12.650463	,	0
46,38	,	118800	,	-28474	,	-27618	,	-13.021209	,	0
46,38	,	118832	,	-28462	,	-27606	,	-12.668572	,	0
46,38	,	118848	,	-28477	,	-27616	,	-11.674416	,	0
46,38	,	118864	,	-28487	,	-27635	,	-10.287752	,	0
46,38	,	118896	,	-28488	,	-27613	,	-8.995919	,	1
46,38	,	118912	,	-28487	,	-27614	,	-8.154837	,	2
46,38	,	118928	,	-28503	,	-27617	,	-7.84922	,	2
46,38	,	118960	,	-28516	,	-27624	,	-8.1626625	,	2
46,38	,	118976	,	-28508	,	-27631	,	-9.191248	,	2
46,38	,	119008	,	-28522	,	-27628	,	-10.784215	,	2
46,38	,	119024	,	-28529	,	-27633	,	-12.656528	,	2
46,38	,	119040	,	-28527	,	-27638	,	-14.58572	,	2
46,38	,	119072	,	-28541	,	-27645	,	-16.356148	,	2
46,38	,	119088	,	-28543	,	-27634	,	-17.818459	,	1
46,38	,	119104	,	-28539	,	-27659	,	-18.882965	,	0
46,38	,	119136	,	-28546	,	-27751	,	-19.3964	,	0
46,38	,	119152	,	-28534	,	-27758	,	-19.199284	,	0
46,38	,	119184	,	-28509	,	-27745	,	-18.04626	,	0
46,38	,	119200	,	-28499	,	-27732	,	-15.4952	,	1
46,39	,	119216	,	-28487	,	-27735	,	-11.224923	,	3
46,39	,	119248	,	-28486	,	-27728	,	-5.399293	,	7
46,39	,	119264	,	-28484	,	-27733	,	1.3174033	,	12
46,39	,	119280	,	-28479	,	-27743	,	8.012476	,	18
46,39	,	119312	,	-28490	,	-27730	,	13.802196	,	24
46,39	,	119328	,	-28472	,	-27731	,	18.035145	,	29
46,39	,	119344	,	-28485	,	-27746	,	20.458546	,	33
46,39	,	119376	,	-28490	,	-27732	,	21.077713	,	35
46,39	,	119392	,	-28499	,	-27746	,	19.915829	,	34
46,39	,	119424	,	-28501	,	-27738	,	17.09565	,	32
46,39	,	119440	,	-28504	,	-27746	,	12.975651	,	28
46,39	,	119456	,	-28513	,	-27748	,	8.075894	,	23
46,39	,	119488	,	-28498	,	-27738	,	2.9816313	,	17
46,39	,	119504	,	-28500	,	-27740	,	-1.632935	,	11
46,39	,	119520	,	-28490	,	-27741	,	-5.115163	,	6
46,39	,	119551	,	-28506	,	-27741	,	-7.126242	,	2
46,39	,	119568	,	-28514	,	-27749	,	-7.8537903	,	0
46,39	,	119600	,	-28521	,	-27762	,	-7.8941116	,	0
46,39	,	119616	,	-28523	,	-27731	,	-7.835161	,	0
46,39	,	119632	,	-28528	,	-27752	,	-7.9917097	,	0
46,39	,	119664	,	-28526	,	-27741	,	-8.418582	,	0
46,39	,	119680	,	-28527	,	-27752	,	-8.981016	,	0
46,39	,	119696	,	-28555	,	-27766	,	-9.585303	,	0
46,39	,	119727	,	-28555	,	-27755	,	-10.423456	,	0
46,39	,	119743	,	-28551	,	-27749	,	-11.682602	,	0
46,39	,	119760	,	-28563	,	-27783	,	-13.203861	,	0
46,39	,	119792	,	-28561	,	-27773	,	-14.69279	,	0
46,39	,	119808	,	-28561	,	-27771	,	-15.893547	,	0
46,39	,	119840	,	-28572	,	-27802	,	-16.602623	,	0
46,39	,	119856	,	-28575	,	-27766	,	-16.805067	,	0
46,39	,	119871	,	-28601	,	-27793	,	-16.74968	,	0
46,39	,	119903	,	-28587	,	-27786	,	-16.796442	,	0
46,39	,	119919	,	-28590	,	-27808	,	-17.036446	,	0
46,39	,	119936	,	-28598	,	-27796	,	-17.23571	,	0
46,39	,	119968	,	-28574	,	-27795	,	-17.092031	,	0
46,39	,	119984	,	-28557	,	-27782	,	-16.135048	,	0
46,39	,	120015	,	-28525	,	-27768	,	-13.645111	,	0
46,39	,	120031	,	-28518	,	-27762	,	-9.021464	,	2
46,39	,	120047	,	-28500	,	-27760	,	-2.2229667	,	6
46,39	,	120079	,	-28505	,	-27776	,	6.1004977	,	12
46,39	,	120096	,	-28499	,	-27748	,	14.800495	,	20
46,39	,	120112	,	-28475	,	-27754	,	22.731764	,	28
46,39	,	120144	,	-28496	,	-27758	,	29.140913	,	35
46,39	,	120160	,	-28481	,	-27760	,	33.50597	,	41
46,39	,	120175	,	-28481	,	-27746	,	35.523163	,	45
46,39	,	120208	,	-28478	,	-27756	,	35.31447	,	47
46,40	,	120223	,	-28474	,	-27751	,	33.303547	,	45
46,40	,	120255	,	-28486	,	-27751	,	29.974873	,	41
46,40	,	120271	,	-28477	,	-27744	,	25.743176	,	35
46,40	,	120288	,	-28465	,	-27745	,	21.083603	,	27
46,40	,	120320	,	-28478	,	-27763	,	16.576632	,	19
46,40	,	120336	,	-28472	,	-27736	,	12.595466	,	12
46,40	,	120352	,	-28472	,	-27730	,	9.247711	,	6
46,40	,	120384	,	-28467	,	-27744	,	6.591635	,	2
46,40	,	120400	,	-28468	,	-27733	,	4.673815	,	0
46,40	,	120431	,	-28474	,	-27737	,	3.4270053	,	0
46,40	,	120447	,	-28469	,	-27748	,	2.6463788	,	0
46,40	,	120463	,	-28486	,	-27733	,	2.0618718	,	0
46,40	,	120495	,	-28471	,	-27746	,	1.4293848	,	0
46,40	,	120511	,	-28480	,	-27746	,	0.6766864	,	0
46,40	,	120527	,	-28481	,	-27738	,	-0.12788492	,	0
46,40	,	120560	,	-28481	,	-27756	,	-0.9451049	,	0
46,40	,	120575	,	-28496	,	-27742	,	-1.8050712	,	0
46,40	,	120591	,	-28498	,	-27750	,	-2.8386972	,	0
46,40	,	120623	,	-28500	,	-27750	,	-4.170018	,	0
46,40	,	120639	,	-28503	,	-27757	,	-5.7342854	,	0
46,40	,	120671	,	-28517	,	-27753	,	-7.390457	,	0
46,40	,	120687	,	-28506	,	-27757	,	-9.039988	,	0
46,40	,	120703	,	-28518	,	-27759	,	-10.527943	,	0
46,40	,	120735	,	-28513	,	-27758	,	-11.668539	,	0
46,40	,	120751	,	-28528	,	-27763	,	-12.389127	,	0
46,40	,	120767	,	-28530	,	-27753	,	-12.785289	,	0
46,40	,	120799	,	-28487	,	-27738	,	-12.814592	,	0
46,40	,	120815	,	-28465	,	-27722	,	-11.811958	,	0
46,40	,	120847	,	-28455	,	-27711	,	-8.846289	,	1
46,40	,	120863	,	-28443	,	-27713	,	-3.598484	,	3
46,40	,	120879	,	-28424	,	-27696	,	3.504232	,	8
46,40	,	120911	,	-28407	,	-27701	,	11.743433	,	15
46,40	,	120927	,	-28417	,	-27701	,	20.282993	,	23
46,40	,	120943	,	-28402	,	-27695	,	28.105324	,	31
46,40	,	120975	,	-28407	,	-27686	,	34.25089	,	38
46,40	,	120991	,	-28408	,	-27691	,	38.07576	,	44
46,40	,	121023	,	-28396	,	-27700	,	39.32773	,	47
46,40	,	121039	,	-28425	,	-27688	,	38.112446	,	47
46,40	,	121055	,	-28409	,	-27696	,	34.67507	,	45
46,40	,	121087	,	-28398	,	-27682	,	29.533356	,	40
46,40	,	121103	,	-28387	,	-27688	,	23.703062	,	33
46,40	,	121119	,	-28385	,	-27666	,	18.301508	,	25
46,40	,	121151	,	-28389	,	-27683	,	14.008537	,	17
46,40	,	121167	,	-28397	,	-27672	,	10.896085	,	10
46,40	,	121183	,	-28396	,	-27672	,	8.63158	,	4
46,41	,	121215	,	-28384	,	-27673	,	6.9020333	,	1
46,41	,	121231	,	-28393	,	-27675	,	5.620095	,	0
46,41	,	121263	,	-28402	,	-27677	,	4.679313	,	0
46,41	,	121279	,	-28387	,	-27670	,	3.8525093	,	0
46,41	,	121295	,	-28405	,	-27673	,	3.0097754	,	0
46,41	,	121327	,	-28403	,	-27685	,	2.0678706	,	0
46,41	,	121343	,	-28410	,	-27695	,	0.8988763	,	0
46,41	,	121359	,	-28413	,	-27689	,	-0.55346847	,	0
46,41	,	121391	,	-28421	,	-27687	,	-2.271162	,	0
46,41	,	121407	,	-28406	,	-27682	,	-4.1274858	,	0
46,41	,	121439	,	-28418	,	-27691	,	-5.8249755	,	0
46,41	,	121455	,	-28426	,	-27690	,	-7.145847	,	0
46,41	,	121471	,	-28427	,	-27693	,	-8.148084	,	0
46,41	,	121503	,	-28426	,	-27709	,	-8.940372	,	0
46,41	,	121519	,	-28434	,	-27682	,	-9.519738	,	0
46,41	,	121535	,	-28435	,	-27700	,	-9.886639	,	0
46,41	,	121567	,	-28436	,	-27695	,	-10.074932	,	0
46,41	,	121583	,	-28417	,	-27682	,	-9.986807	,	0
46,41	,	121599	,	-28394	,	-27672	,	-9.209417	,	0
46,41	,	121631	,	-28392	,	-27660	,	-7.1742735	,	0
46,41	,	121647	,	-28371	,	-27660	,	-3.5986328	,	2
46,41	,	121679	,	-28348	,	-27657	,	1.4662404	,	5
46,41	,	121695	,	-28347	,	-27650	,	7.7874136	,	10
46,41	,	121711	,	-28334	,	-27646	,	14.827915	,	16
46,41	,	121743	,	-28348	,	-27647	,	21.709818	,	23
46,41	,	121759	,	-28320	,	-27629	,	27.508156	,	29
46,41	,	121775	,	-28325	,	-27652	,	31.67369	,	34
46,41	,	121807	,	-28333	,	-27641	,	34.007553	,	38
46,41	,	121823	,	-28328	,	-27637	,	34.35859	,	40
46,41	,	121855	,	-28330	,	-27639	,	32.74188	,	38
46,41	,	121871	,	-28316	,	-27634	,	29.547113	,	35
46,41	,	121887	,	-28312	,	-27637	,	25.486551	,	30
46,41	,	121919	,	-28310	,	-27627	,	21.337261	,	24
46,41	,	121935	,	-28301	,	-27634	,	17.666004	,	17
46,41	,	121951	,	-28307	,	-27622	,	14.757763	,	11
46,41	,	121983	,	-28307	,	-27653	,	12.594911	,	6
46,41	,	121999	,	-28308	,	-27615	,	10.931264	,	2
46,41	,	122015	,	-28303	,	-27633	,	9.529196	,	0
46,41	,	122047	,	-28311	,	-27631	,	8.259367	,	0
46,41	,	122063	,	-28312	,	-27634	,	7.004531	,	0
46,41	,	122094	,	-28322	,	-27642	,	5.602064	,	0
46,41	,	122110	,	-28322	,	-27630	,	3.9030075	,	0
46,41	,	122127	,	-28334	,	-27640	,	1.8361139	,	0
46,41	,	122158	,	-28334	,	-27637	,	-0.58735585	,	0
46,41	,	122175	,	-28337	,	-27643	,	-3.2389817	,	0
46,41	,	122191	,	-28338	,	-27634	,	-5.855048	,	0
46,42	,	122223	,	-28342	,	-27667	,	-8.152154	,	0
46,42	,	122239	,	-28334	,	-27621	,	-9.900668	,	0
46,42	,	122270	,	-28340	,	-27645	,	-10.911167	,	0
46,42	,	122286	,	-28363	,	-27648	,	-11.223637	,	0
46,42	,	122303	,	-28351	,	-27657	,	-11.198512	,	0
46,42	,	122334	,	-28362	,	-27658	,	-11.147875	,	0
46,42	,	122350	,	-28367	,	-27663	,	-11.172693	,	0
46,42	,	122367	,	-28375	,	-27668	,	-11.367109	,	0
46,42	,	122399	,	-28350	,	-27655	,	-11.693663	,	0
46,42	,	122415	,	-28352	,	-27643	,	-11.741289	,	0
46,42	,	122430	,	-28321	,	-27605	,	-10.88364	,	0
46,42	,	122462	,	-28302	,	-27647	,	-8.497522	,	0
46,42	,	122478	,	-28299	,	-27597	,	-4.200093	,	2
46,42	,	122510	,	-28286	,	-27621	,	1.8052106	,	6
46,42	,	122526	,	-28271	,	-27612	,	8.844657	,	12
46,42	,	122543	,	-28268	,	-27602	,	16.157785	,	19
46,42	,	122575	,	-28258	,	-27608	,	23.004156	,	26
46,42	,	122591	,	-28248	,	-27597	,	28.75627	,	32
46,42	,	122607	,	-28254	,	-27600	,	32.99317	,	37
46,42	,	122638	,	-28254	,	-27595	,	35.391266	,	41
46,42	,	122654	,	-28260	,	-27604	,	35.700535	,	43
46,42	,	122686	,	-28235	,	-27598	,	34.006752	,	41
46,42	,	122703	,	-28233	,	-27617	,	30.937107	,	37
46,42	,	122718	,	-28245	,	-27578	,	27.277685	,	31
46,42	,	122750	,	-28231	,	-27592	,	23.476341	,	24
46,42	,	122766	,	-28238	,	-27606	,	19.754932	,	17
46,42	,	122783	,	-28222	,	-27592	,	16.344269	,	11
46,42	,	122815	,	-28230	,	-27593	,	13.468946	,	6
46,42	,	122831	,	-28215	,	-27592	,	11.280337	,	2
46,42	,	122847	,	-28228	,	-27592	,	9.794351	,	0
46,42	,	122878	,	-28235	,	-27595	,	8.785591	,	0
46,42	,	122894	,	-28234	,	-27597	,	7.834443	,	0
46,42	,	122926	,	-28233	,	-27603	,	6.650462	,	0
46,42	,	122942	,	-28250	,	-27612	,	5.14568	,	0
46,42	,	122958	,	-28256	,	-27606	,	3.1937912	,	0
46,42	,	122990	,	-28264	,	-27610	,	0.64248824	,	0
46,42	,	123006	,	-28265	,	-27608	,	-2.47029	,	0
46,42	,	123022	,	-28267	,	-27615	,	-5.8548136	,	0
46,42	,	123054	,	-28280	,	-27615	,	-9.141021	,	0
46,42	,	123070	,	-28282	,	-27624	,	-12.095753	,	0
46,42	,	123102	,	-28282	,	-27612	,	-14.5808735	,	0
46,42	,	123118	,	-28276	,	-27628	,	-16.374083	,	0
46,42	,	123134	,	-28290	,	-27625	,	-17.25172	,	0
46,42	,	123166	,	-28281	,	-27627	,	-17.197182	,	0
46,42	,	123182	,	-28285	,	-27639	,	-16.339138	,	0
46,42	,	123198	,	-28302	,	-27638	,	-14.906647	,	0
46,43	,	123230	,	-28305	,	-27645	,	-13.345522	,	1
46,43	,	123246	,	-28320	,	-27648	,	-12.181042	,	2
46,43	,	123278	,	-28335	,	-27655	,	-11.837667	,	3
46,43	,	123294	,	-28326	,	-27642	,	-12.511963	,	3
46,43	,	123310	,	-28300	,	-27632	,	-13.809868	,	3
46,43	,	123342	,	-28279	,	-27617	,	-14.64125	,	3
46,43	,	123358	,	-28252	,	-27610	,	-13.722174	,	3
46,43	,	123374	,	-28245	,	-27605	,	-10.214731	,	3
46,43	,	123406	,	-28234	,	-27613	,	-4.111237	,	6
46,43	,	123422	,	-28219	,	-27586	,	3.8642664	,	11
46,43	,	123438	,	-28219	,	-27588	,	12.660102	,	17
46,43	,	123470	,	-28196	,	-27585	,	21.221104	,	24
46,43	,	123486	,	-28197	,	-27585	,	28.726837	,	32
46,43	,	123518	,	-28195	,	-27587	,	34.587734	,	39
46,43	,	123534	,	-28196	,	-27579	,	38.32038	,	44
46,43	,	123550	,	-28210	,	-27582	,	39.581467	,	47
46,43	,	123582	,	-28180	,	-27582	,	38.360577	,	48
46,43	,	123598	,	-28188	,	-27582	,	35.20768	,	45
46,43	,	123614	,	-28184	,	-27590	,	30.96208	,	39
46,43	,	123646	,	-28193	,	-27586	,	26.23746	,	32
46,43	,	123662	,	-28177	,	-27569	,	21.424963	,	24
46,43	,	123694	,	-28190	,	-27569	,	16.882076	,	16
46,43	,	123710	,	-28178	,	-27569	,	12.876453	,	9
46,43	,	123726	,	-28187	,	-27576	,	9.53654	,	4
46,43	,	123758	,	-28200	,	-27568	,	6.799742	,	1
46,43	,	123774	,	-28201	,	-27582	,	4.365663	,	0
46,43	,	123790	,	-28201	,	-27581	,	1.9644723	,	0
46,43	,	123822	,	-28192	,	-27584	,	-0.35917187	,	0
46,43	,	123838	,	-28205	,	-27579	,	-2.3673317	,	0
46,43	,	123854	,	-28201	,	-27581	,	-3.9240212	,	0
46,43	,	123886	,	-28208	,	-27608	,	-5.0543585	,	0
46,43	,	123902	,	-28214	,	-27584	,	-5.866482	,	0
46,43	,	123934	,	-28203	,	-27594	,	-6.4654155	,	0
46,43	,	123950	,	-28221	,	-27605	,	-6.873899	,	0
46,43	,	123966	,	-28235	,	-27607	,	-7.2361765	,	0
46,43	,	123998	,	-28230	,	-27603	,	-7.8708572	,	0
46,43	,	124014	,	-28239	,	-27599	,	-8.911942	,	0
46,43	,	124030	,	-28247	,	-27611	,	-10.262088	,	0
46,43	,	124062	,	-28253	,	-27618	,	-11.820712	,	0
46,43	,	124078	,	-28257	,	-27621	,	-13.4917145	,	0
46,43	,	124110	,	-28266	,	-27618	,	-15.141745	,	0
46,43	,	124126	,	-28267	,	-27636	,	-16.639729	,	0
46,43	,	124142	,	-28268	,	-27623	,	-17.837362	,	0
46,43	,	124174	,	-28286	,	-27630	,	-18.626705	,	0
46,43	,	124190	,	-28294	,	-27633	,	-19.119791	,	0
46,43	,	124206	,	-28301	,	-27650	,	-19.57993	,	0
46,44	,	124238	,	-28300	,	-27638	,	-20.128582	,	0
46,44	,	124254	,	-28278	,	-27637	,	-20.518034	,	0
46,44	,	124270	,	-28257	,	-27623	,	-20.054466	,	0
46,44	,	124302	,	-28257	,	-27612	,	-17.955093	,	0
46,44	,	124318	,	-28229	,	-27612	,	-13.868785	,	2
46,44	,	124349	,	-28213	,	-27595	,	-7.852933	,	6
46,44	,	124366	,	-28213	,	-27612	,	-0.24932289	,	12
46,44	,	124382	,	-28194	,	-27581	,	8.217537	,	19
46,44	,	124414	,	-28177	,	-27595	,	16.71226	,	27
46,44	,	124430	,	-28185	,	-27588	,	24.548014	,	35
46,44	,	124446	,	-28202	,	-27590	,	30.91384	,	42
46,44	,	124477	,	-28191	,	-27583	,	34.876648	,	48
46,44	,	124494	,	-28192	,	-27591	,	35.961716	,	51
46,44	,	124526	,	-28204	,	-27591	,	34.332256	,	50
46,44	,	124542	,	-28208	,	-27588	,	30.411085	,	46
46,44	,	124558	,	-28175	,	-27587	,	24.892473	,	40
46,44	,	124590	,	-28187	,	-27584	,	18.91262	,	33
46,44	,	124605	,	-28194	,	-27590	,	13.48046	,	25
46,44	,	124621	,	-28180	,	-27571	,	9.010999	,	17
46,44	,	124654	,	-28180	,	-27581	,	5.6655474	,	10
46,44	,	124670	,	-28194	,	-27588	,	3.4768295	,	4
46,44	,	124686	,	-28196	,	-27585	,	2.1303968	,	1
46,44	,	124718	,	-28213	,	-27598	,	1.0726786	,	0
46,44	,	124734	,	-28207	,	-27595	,	-0.19149578	,	0
46,44	,	124765	,	-28218	,	-27596	,	-1.8757722	,	0
46,44	,	124781	,	-28207	,	-27598	,	-3.8641965	,	0
46,44	,	124797	,	-28229	,	-27606	,	-5.8960996	,	0
46,44	,	124830	,	-28228	,	-27601	,	-7.840663	,	0
46,44	,	124846	,	-28222	,	-27620	,	-9.64907	,	0
46,44	,	124862	,	-28227	,	-27607	,	-11.116875	,	0
46,44	,	124893	,	-28244	,	-27613	,	-12.087434	,	0
46,44	,	124909	,	-28249	,	-27610	,	-12.735115	,	0
46,44	,	124941	,	-28259	,	-27616	,	-13.385144	,	0
46,44	,	124957	,	-28260	,	-27618	,	-14.231701	,	0
46,44	,	124973	,	-28280	,	-27628	,	-15.327136	,	0
46,44	,	125006	,	-28280	,	-27620	,	-16.69509	,	0
46,44	,	125021	,	-28279	,	-27626	,	-18.240343	,	0
46,44	,	125037	,	-28288	,	-27631	,	-19.670937	,	0
46,44	,	125069	,	-28292	,	-27639	,	-20.715946	,	0
46,44	,	125085	,	-28299	,	-27637	,	-21.282871	,	0
46,44	,	125117	,	-28305	,	-27651	,	-21.4122	,	0
46,44	,	125133	,	-28326	,	-27650	,	-21.287838	,	0
46,44	,	125150	,	-28323	,	-27652	,	-21.208042	,	0
46,44	,	125181	,	-28314	,	-27651	,	-21.25929	,	0
46,44	,	125197	,	-28291	,	-27626	,	-21.00342	,	0
46,45	,	125214	,	-28268	,	-27632	,	-19.593801	,	0
46,45	,	125245	,	-28254	,	-27622	,	-16.217926	,	1
46,45	,	125261	,	-28249	,	-27619	,	-10.600802	,	4
46,45	,	125278	,	-28240	,	-27615	,	-3.2065773	,	9
46,45	,	125309	,	-28236	,	-27620	,	5.0221753	,	16
46,45	,	125325	,	-28236	,	-27607	,	13.023172	,	24
46,45	,	125358	,	-28221	,	-27608	,	19.88845	,	32
46,45	,	125373	,	-28236	,	-27609	,	25.016483	,	38
46,45	,	125389	,	-28221	,	-27618	,	28.072361	,	43
46,45	,	125421	,	-28238	,	-27613	,	28.965427	,	46
46,45	,	125437	,	-28239	,	-27615	,	27.784231	,	45
46,45	,	125453	,	-28240	,	-27607	,	24.746304	,	42
46,45	,	125485	,	-28230	,	-27611	,	20.36024	,	37
46,45	,	125501	,	-28234	,	-27609	,	15.402324	,	30
46,45	,	125533	,	-28209	,	-27608	,	10.704738	,	22
46,45	,	125549	,	-28222	,	-27619	,	6.998189	,	14
46,45	,	125565	,	-28213	,	-27594	,	4.6491303	,	8
46,45	,	125597	,	-28217	,	-27608	,	3.5647178	,	3
46,45	,	125613	,	-28231	,	-27613	,	3.3372905	,	0
46,45	,	125629	,	-28236	,	-27621	,	3.3395548	,	0
46,45	,	125661	,	-28251	,	-27622	,	2.9162722	,	0
46,45	,	125677	,	-28240	,	-27627	,	1.686663	,	0
46,45	,	125693	,	-28257	,	-27626	,	-0.31706643	,	0
46,45	,	125725	,	-28262	,	-27635	,	-2.869296	,	0
46,45	,	125741	,	-28261	,	-27649	,	-5.748743	,	0
46,45	,	125773	,	-28256	,	-27641	,	-8.597798	,	0
46,45	,	125789	,	-28269	,	-27658	,	-10.970205	,	0
46,45	,	125805	,	-28275	,	-27620	,	-12.671622	,	0
46,45	,	125837	,	-28283	,	-27656	,	-13.833898	,	0
46,45	,	125853	,	-28302	,	-27649	,	-14.748961	,	0
46,45	,	125869	,	-28310	,	-27657	,	-15.782603	,	0
46,45	,	125901	,	-28306	,	-27661	,	-17.159472	,	0
46,45	,	125917	,	-28319	,	-27658	,	-18.756897	,	0
46,45	,	125949	,	-28329	,	-27663	,	-20.33599	,	0
46,45	,	125965	,	-28327	,	-27678	,	-21.755978	,	0
46,45	,	125981	,	-28325	,	-27676	,	-22.81604	,	0
46,45	,	126013	,	-28340	,	-27685	,	-23.270813	,	0
46,45	,	126029	,	-28345	,	-27713	,	-23.111084	,	0
46,45	,	126045	,	-28351	,	-27666	,	-22.55874	,	0
46,45	,	126077	,	-28358	,	-27695	,	-21.843233	,	0
46,45	,	126093	,	-28359	,	-27700	,	-21.104504	,	0
46,45	,	126109	,	-28375	,	-27691	,	-20.426441	,	0
46,45	,	126141	,	-28363	,	-27693	,	-19.85297	,	0
46,45	,	126157	,	-28349	,	-27675	,	-19.178104	,	0
46,45	,	126189	,	-28327	,	-27674	,	-17.800898	,	0
46,45	,	126205	,	-28308	,	-27666	,	-14.983822	,	1
46,46	,	126221	,	-28314	,	-27660	,	-10.342906	,	3
46,46	,	126253	,	-28298	,	-27659	,	-4.1690464	,	7
46,46	,	126269	,	-28297	,	-27677	,	2.7858858	,	13
46,46	,	126285	,	-28286	,	-27653	,	9.716651	,	19
46,46	,	126317	,	-28291	,	-27655	,	15.910742	,	25
46,46	,	126333	,	-28280	,	-27652	,	20.798363	,	31
46,46	,	126365	,	-28274	,	-27649	,	24.095774	,	35
46,46	,	126381	,	-28279	,	-27647	,	25.816257	,	38
46,46	,	126397	,	-28296	,	-27655	,	25.969915	,	38
46,46	,	126429	,	-28295	,	-27653	,	24.428177	,	36
46,46	,	126445	,	-28275	,	-27654	,	21.328432	,	32
46,46	,	126461	,	-28291	,	-27651	,	17.303867	,	26
46,46	,	126493	,	-28283	,	-27657	,	13.047286	,	20
46,46	,	126509	,	-28291	,	-27668	,	8.991788	,	14
46,46	,	126525	,	-28294	,	-27643	,	5.3667717	,	8
46,46	,	126557	,	-28281	,	-27648	,	2.3072405	,	4
46,46	,	126573	,	-28285	,	-27656	,	-0.00962162	,	1
46,46	,	126605	,	-28292	,	-27662	,	-1.4849277	,	0
46,46	,	126621	,	-28289	,	-27652	,	-2.2626557	,	0
46,46	,	126637	,	-28296	,	-27671	,	-2.5878801	,	0
46,46	,	126669	,	-28302	,	-27662	,	-2.721152	,	0
46,46	,	126685	,	-28314	,	-27668	,	-2.985713	,	0
46,46	,	126700	,	-28321	,	-27673	,	-3.7092254	,	0
46,46	,	126733	,	-28311	,	-27677	,	-5.0060368	,	0
46,46	,	126749	,	-28317	,	-27681	,	-6.625009	,	0
46,46	,	126781	,	-28333	,	-27670	,	-8.238859	,	0
46,46	,	126797	,	-28344	,	-27681	,	-9.833716	,	0
46,46	,	126813	,	-28336	,	-27679	,	-11.536203	,	0
46,46	,	126845	,	-28352	,	-27683	,	-13.274727	,	0
46,46	,	126861	,	-28351	,	-27691	,	-14.881102	,	0
46,46	,	126876	,	-28354	,	-27692	,	-16.224442	,	0
46,46	,	126909	,	-28366	,	-27700	,	-17.197601	,	0
46,46	,	126925	,	-28367	,	-27701	,	-17.80353	,	0
46,46	,	126957	,	-28383	,	-27707	,	-18.17286	,	0
46,46	,	126973	,	-28391	,	-27697	,	-18.519564	,	0
46,46	,	126989	,	-28391	,	-27710	,	-19.024853	,	0
46,46	,	127021	,	-28395	,	-27726	,	-19.645107	,	0
46,46	,	127036	,	-28410	,	-27717	,	-20.220613	,	0
46,46	,	127052	,	-28426	,	-27724	,	-20.781876	,	0
46,46	,	127085	,	-28422	,	-27722	,	-21.495516	,	0
46,46	,	127101	,	-28441	,	-27732	,	-22.395287	,	0
46,46	,	127117	,	-28424	,	-27735	,	-23.318964	,	0
46,46	,	127149	,	-28448	,	-27735	,	-23.989368	,	0
46,46	,	127164	,	-28424	,	-27718	,	-24.13416	,	0
46,46	,	127196	,	-28401	,	-27708	,	-23.341612	,	0
46,47	,	127213	,	-28385	,	-27712	,	-20.922443	,	0
46,47	,	127228	,	-28368	,	-27682	,	-16.327505	,	2
46,47	,	127260	,	-28373	,	-27690	,	-9.632613	,	6
46,47	,	127277	,	-28357	,	-27685	,	-1.5769911	,	12
46,47	,	127293	,	-28340	,	-27686	,	6.8898635	,	20
46,47	,	127325	,	-28344	,	-27687	,	14.997855	,	28
46,47	,	127340	,	-28340	,	-27690	,	22.043013	,	36
46,47	,	127372	,	-28342	,	-27693	,	27.34297	,	43
46,47	,	127389	,	-28348	,	-27687	,	30.40916	,	48
46,47	,	127404	,	-28357	,	-27694	,	30.983807	,	51
46,47	,	127436	,	-28349	,	-27692	,	29.111229	,	49
46,47	,	127453	,	-28348	,	-27700	,	25.290625	,	45
46,47	,	127468	,	-28349	,	-27673	,	20.342186	,	39
46,47	,	127500	,	-28341	,	-27687	,	15.094287	,	31
46,47	,	127516	,	-28338	,	-27691	,	10.264537	,	23
46,47	,	127533	,	-28348	,	-27689	,	6.3443727	,	15
46,47	,	127564	,	-28349	,	-27690	,	3.4252949	,	8
46,47	,	127580	,	-28349	,	-27696	,	1.3186827	,	3
46,47	,	127612	,	-28353	,	-27693	,	-0.18785	,	0
46,47	,	127628	,	-28358	,	-27684	,	-1.2924497	,	0
46,47	,	127644	,	-28357	,	-27699	,	-2.194462	,	0
46,47	,	127676	,	-28369	,	-27702	,	-3.0518703	,	0
46,47	,	127693	,	-28369	,	-27711	,	-3.999914	,	0
46,47	,	127708	,	-28379	,	-27678	,	-5.1449676	,	0
46,47	,	127740	,	-28387	,	-27703	,	-6.548833	,	0
46,47	,	127756	,	-28393	,	-27712	,	-8.249967	,	0
46,47	,	127788	,	-28393	,	-27713	,	-10.191069	,	0
46,47	,	127804	,	-28406	,	-27718	,	-12.1953	,	0
46,47	,	127820	,	-28418	,	-27726	,	-14.149709	,	0
46,47	,	127852	,	-28428	,	-27729	,	-16.112312	,	0
46,47	,	127868	,	-28411	,	-27727	,	-18.047922	,	0
46,47	,	127884	,	-28418	,	-27725	,	-19.57147	,	0
46,47	,	127916	,	-28428	,	-27722	,	-20.271389	,	0
46,47	,	127932	,	-28432	,	-27748	,	-20.133064	,	0
46,47	,	127948	,	-28438	,	-27715	,	-19.430159	,	0
46,47	,	127980	,	-28457	,	-27749	,	-18.529575	,	0
46,47	,	127996	,	-28455	,	-27747	,	-17.82988	,	0
46,47	,	128028	,	-28471	,	-27752	,	-17.59431	,	0
46,47	,	128044	,	-28482	,	-27750	,	-17.929157	,	0
46,47	,	128060	,	-28492	,	-27749	,	-18.89228	,	0
46,47	,	128092	,	-28493	,	-27760	,	-20.408663	,	0
46,47	,	128108	,	-28479	,	-27746	,	-22.080257	,	0
46,47	,	128124	,	-28453	,	-27730	,	-23.080166	,	0
46,47	,	128156	,	-28435	,	-27727	,	-22.340889	,	0
46,47	,	128172	,	-28425	,	-27738	,	-19.088415	,	0
46,47	,	128204	,	-28409	,	-27700	,	-13.240148	,	3
46,48	,	128220	,	-28396	,	-27714	,	-5.3087997	,	8
46,48	,	128236	,	-28397	,	-27703	,	3.821661	,	15
46,48	,	128268	,	-28390	,	-27702	,	13.012335	,	24
46,48	,	128284	,	-28388	,	-27709	,	21.131275	,	33
46,48	,	128300	,	-28383	,	-27712	,	27.360903	,	41
46,48	,	128332	,	-28381	,	-27706	,	31.297974	,	47
46,48	,	128348	,	-28404	,	-27715	,	32.787254	,	50
46,48	,	128364	,	-28394	,	-27713	,	31.754848	,	51
46,48	,	128396	,	-28402	,	-27719	,	28.406796	,	48
46,48	,	128412	,	-28400	,	-27724	,	23.359486	,	43
46,48	,	128444	,	-28393	,	-27698	,	17.452675	,	36
46,48	,	128460	,	-28383	,	-27712	,	11.621068	,	27
46,48	,	128476	,	-28395	,	-27713	,	6.6721325	,	18
46,48	,	128508	,	-28386	,	-27708	,	2.989709	,	10
46,48	,	128524	,	-28386	,	-27719	,	0.6082568	,	4
46,48	,	128540	,	-28384	,	-27703	,	-0.5719266	,	1
46,48	,	128572	,	-28392	,	-27715	,	-0.79775333	,	0
46,48	,	128588	,	-28400	,	-27719	,	-0.51534617	,	0
46,48	,	128620	,	-28414	,	-27723	,	-0.3032397	,	0
46,48	,	128636	,	-28417	,	-27729	,	-0.6996537	,	0
46,48	,	128652	,	-28408	,	-27734	,	-1.9031172	,	0
46,48	,	128684	,	-28417	,	-27717	,	-3.6492388	,	0
46,48	,	128700	,	-28418	,	-27731	,	-5.5259643	,	0
46,48	,	128716	,	-28427	,	-27730	,	-7.2880783	,	0
46,48	,	128748	,	-28454	,	-27726	,	-8.97564	,	0
46,48	,	128764	,	-28435	,	-27729	,	-10.803516	,	0
46,48	,	128780	,	-28455	,	-27737	,	-12.778383	,	0
46,48	,	128812	,	-28457	,	-27734	,	-14.707037	,	0
46,48	,	128828	,	-28456	,	-27735	,	-16.42804	,	0
46,48	,	128860	,	-28454	,	-27744	,	-17.709505	,	0
46,48	,	128876	,	-28460	,	-27746	,	-18.277853	,	0
46,48	,	128892	,	-28462	,	-27750	,	-18.044872	,	0
46,48	,	128924	,	-28474	,	-27747	,	-17.179806	,	0
46,48	,	128940	,	-28486	,	-27752	,	-16.075886	,	0
46,48	,	128956	,	-28495	,	-27755	,	-15.231053	,	1
46,48	,	128988	,	-28500	,	-27760	,	-15.0071125	,	1
46,48	,	129004	,	-28499	,	-27756	,	-15.436718	,	1
46,48	,	129036	,	-28503	,	-27770	,	-16.243769	,	1
46,48	,	129052	,	-28502	,	-27752	,	-17.03318	,	1
46,48	,	129068	,	-28467	,	-27734	,	-17.291317	,	1
46,48	,	129099	,	-28454	,	-27728	,	-16.23897	,	1
46,48	,	129116	,	-28440	,	-27729	,	-13.153072	,	2
46,48	,	129131	,	-28421	,	-27723	,	-7.8388224	,	5
46,48	,	129164	,	-28417	,	-27715	,	-0.66088676	,	9
46,48	,	129180	,	-28408	,	-27710	,	7.587162	,	16
46,48	,	129196	,	-28387	,	-27713	,	15.956534	,	24
46,49	,	129228	,	-28399	,	-27709	,	23.62851	,	32
46,49	,	129244	,	-28393	,	-27701	,	29.84402	,	39
46,49	,	129276	,	-28387	,	-27705	,	33.969166	,	45
46,49	,	129292	,	-28402	,	-27713	,	35.711006	,	49
46,49	,	129308	,	-28399	,	-27708	,	35.024048	,	49
46,49	,	129339	,	-28382	,	-27702	,	32.18446	,	46
46,49	,	129356	,	-28373	,	-27703	,	28.00748	,	41
46,49	,	129371	,	-28380	,	-27688	,	23.498308	,	34
46,49	,	129403	,	-28373	,	-27699	,	19.311886	,	26
46,49	,	129420	,	-28380	,	-27693	,	15.688749	,	18
46,49	,	129452	,	-28378	,	-27699	,	12.624818	,	11
46,49	,	129467	,	-28379	,	-27698	,	10.014738	,	5
46,49	,	129483	,	-28365	,	-27695	,	7.8361716	,	1
46,49	,	129515	,	-28383	,	-27704	,	6.1497855	,	0
46,49	,	129532	,	-28383	,	-27698	,	4.8449826	,	0
46,49	,	129548	,	-28394	,	-27698	,	3.5982912	,	0
46,49	,	129580	,	-28391	,	-27701	,	2.1278317	,	0
46,49	,	129596	,	-28403	,	-27710	,	0.33080077	,	0
46,49	,	129627	,	-28401	,	-27685	,	-1.761509	,	0
46,49	,	129643	,	-28404	,	-27708	,	-3.9967258	,	0
46,49	,	129660	,	-28421	,	-27711	,	-6.1936045	,	0
46,49	,	129692	,	-28425	,	-27709	,	-8.338094	,	0
46,49	,	129707	,	-28428	,	-27717	,	-10.494464	,	0
46,49	,	129723	,	-28439	,	-27711	,	-12.61893	,	0
46,49	,	129755	,	-28427	,	-27720	,	-14.553307	,	0
46,49	,	129771	,	-28433	,	-27721	,	-16.007961	,	0
46,49	,	129787	,	-28442	,	-27724	,	-16.73583	,	0
46,49	,	129820	,	-28442	,	-27726	,	-16.766623	,	0
46,49	,	129835	,	-28463	,	-27738	,	-16.36339	,	0
46,49	,	129867	,	-28448	,	-27712	,	-15.842358	,	0
46,49	,	129883	,	-28460	,	-27731	,	-15.335639	,	0
46,49	,	129899	,	-28472	,	-27731	,	-14.855879	,	0
46,49	,	129931	,	-28483	,	-27741	,	-14.583771	,	0
46,49	,	129947	,	-28484	,	-27745	,	-14.753359	,	0
46,49	,	129963	,	-28484	,	-27744	,	-15.350103	,	0
46,49	,	129996	,	-28492	,	-27749	,	-16.120047	,	0
46,49	,	130011	,	-28481	,	-27739	,	-16.744795	,	0
46,49	,	130043	,	-28470	,	-27729	,	-16.824465	,	0
46,49	,	130059	,	-28439	,	-27721	,	-15.765689	,	0
46,49	,	130075	,	-28435	,	-27727	,	-12.939875	,	1
46,49	,	130107	,	-28409	,	-27681	,	-8.058052	,	3
46,49	,	130123	,	-28391	,	-27698	,	-1.2585988	,	7
46,49	,	130139	,	-28387	,	-27684	,	6.9940467	,	13
46,49	,	130171	,	-28382	,	-27694	,	15.840521	,	21
46,49	,	130187	,	-28369	,	-27686	,	24.201908	,	29
46,50	,	130219	,	-28370	,	-27686	,	31.184532	,	37
46,50	,	130235	,	-28358	,	-27681	,	36.2242	,	43
46,50	,	130251	,	-28360	,	-27668	,	39.072113	,	48
46,50	,	130283	,	-28377	,	-27683	,	39.64949	,	49
46,50	,	130299	,	-28357	,	-27677	,	37.96905	,	47
46,50	,	130315	,	-28363	,	-27700	,	34.387566	,	43
46,50	,	130347	,	-28351	,	-27657	,	29.626673	,	37
46,50	,	130363	,	-28337	,	-27677	,	24.547459	,	29
46,50	,	130395	,	-28339	,	-27664	,	19.983942	,	21
46,50	,	130411	,	-28346	,	-27671	,	16.392883	,	13
46,50	,	130427	,	-28342	,	-27677	,	13.701904	,	7
46,50	,	130459	,	-28345	,	-27667	,	11.616474	,	2
46,50	,	130475	,	-28349	,	-27667	,	9.858689	,	0
46,50	,	130491	,	-28335	,	-27663	,	8.268561	,	0
46,50	,	130523	,	-28348	,	-27668	,	6.8578815	,	0
46,50	,	130539	,	-28358	,	-27688	,	5.5672417	,	0
46,50	,	130555	,	-28359	,	-27641	,	4.1203337	,	0
46,50	,	130587	,	-28368	,	-27676	,	2.2795048	,	0
46,50	,	130603	,	-28363	,	-27681	,	0.03629899	,	0
46,50	,	130635	,	-28376	,	-27687	,	-2.4366934	,	0
46,50	,	130651	,	-28365	,	-27682	,	-4.8895674	,	0
46,50	,	130667	,	-28384	,	-27697	,	-7.082608	,	0
46,50	,	130699	,	-28376	,	-27696	,	-8.881244	,	0
46,50	,	130715	,	-28384	,	-27694	,	-10.239178	,	0
46,50	,	130731	,	-28388	,	-27695	,	-11.148842	,	0
46,50	,	130763	,	-28384	,	-27709	,	-11.647404	,	0
46,50	,	130779	,	-28400	,	-27721	,	-11.798605	,	0
46,50	,	130811	,	-28406	,	-27682	,	-11.789242	,	0
46,50	,	130827	,	-28395	,	-27703	,	-11.830582	,	0
46,50	,	130843	,	-28415	,	-27710	,	-11.930953	,	0
46,50	,	130875	,	-28410	,	-27712	,	-12.055605	,	0
46,50	,	130891	,	-28426	,	-27711	,	-12.274351	,	0
46,50	,	130907	,	-28424	,	-27726	,	-12.671217	,	0
46,50	,	130939	,	-28441	,	-27724	,	-13.300373	,	0
46,50	,	130955	,	-28449	,	-27731	,	-14.226721	,	0
46,50	,	130971	,	-28429	,	-27712	,	-15.390699	,	0
46,50	,	131003	,	-28408	,	-27710	,	-16.252865	,	0
46,50	,	131019	,	-28383	,	-27710	,	-15.818915	,	0
46,50	,	131051	,	-28387	,	-27680	,	-13.26277	,	0
46,50	,	131067	,	-28337	,	-27679	,	-8.33663	,	2
46,50	,	131083	,	-28345	,	-27676	,	-1.2101183	,	6
46,50	,	131115	,	-28322	,	-27659	,	7.5510154	,	13
46,50	,	131131	,	-28338	,	-27667	,	16.87835	,	21
46,50	,	131147	,	-28333	,	-27672	,	25.404173	,	30
46,50	,	131179	,	-28334	,	-27655	,	31.874834	,	38
46,50	,	131195	,	-28325	,	-27663	,	35.593304	,	44
46,51	,	131226	,	-28328	,	-27657	,	36.5303	,	47
46,51	,	131243	,	-28328	,	-27661	,	35.061127	,	47
46,51	,	131259	,	-28323	,	-27668	,	31.736864	,	45
46,51	,	131291	,	-28334	,	-27651	,	27.175396	,	41
46,51	,	131307	,	-28320	,	-27668	,	21.972155	,	34
46,51	,	131323	,	-28327	,	-27660	,	16.700054	,	26
46,51	,	131354	,	-28316	,	-27653	,	11.887737	,	17
46,51	,	131371	,	-28308	,	-27651	,	7.988283	,	9
46,51	,	131387	,	-28320	,	-27655	,	5.301551	,	3
46,51	,	131419	,	-28314	,	-27660	,	3.7710261	,	0
46,51	,	131435	,	-28317	,	-27657	,	3.0627553	,	0
46,51	,	131467	,	-28337	,	-27663	,	2.7310917	,	0
46,51	,	131483	,	-28336	,	-27660	,	2.2264776	,	0
46,51	,	131499	,	-28330	,	-27671	,	1.1942962	,	0
46,51	,	131531	,	-28329	,	-27666	,	-0.23572898	,	0
46,51	,	131546	,	-28342	,	-27672	,	-1.7340162	,	0
46,51	,	131562	,	-28349	,	-27674	,	-3.2006865	,	0
46,51	,	131595	,	-28365	,	-27673	,	-4.8109307	,	0
46,51	,	131611	,	-28365	,	-27670	,	-6.78393	,	0
46,51	,	131643	,	-28363	,	-27681	,	-9.100883	,	0
46,51	,	131659	,	-28361	,	-27676	,	-11.402961	,	0
46,51	,	131675	,	-28369	,	-27679	,	-13.241824	,	0
46,51	,	131706	,	-28369	,	-27682	,	-14.377811	,	0
46,51	,	131722	,	-28380	,	-27697	,	-14.82998	,	0
46,51	,	131739	,	-28388	,	-27680	,	-14.823196	,	0
46,51	,	131771	,	-28391	,	-27691	,	-14.669426	,	0
46,51	,	131787	,	-28395	,	-27696	,	-14.571192	,	0
46,51	,	131802	,	-28405	,	-27703	,	-14.598261	,	0
46,51	,	131834	,	-28406	,	-27720	,	-14.787998	,	0
46,51	,	131850	,	-28413	,	-27714	,	-15.130979	,	0
46,51	,	131882	,	-28401	,	-27705	,	-15.481641	,	0
46,51	,	131899	,	-28378	,	-27683	,	-15.408211	,	0
46,51	,	131915	,	-28365	,	-27680	,	-14.201299	,	0
46,51	,	131947	,	-28345	,	-27663	,	-11.234412	,	1
46,51	,	131962	,	-28325	,	-27677	,	-6.2426543	,	3
46,51	,	131978	,	-28322	,	-27647	,	0.600657	,	7
46,51	,	132010	,	-28317	,	-27651	,	8.59226	,	13
46,51	,	132026	,	-28302	,	-27644	,	16.702015	,	20
46,51	,	132058	,	-28294	,	-27644	,	24.046047	,	28
46,51	,	132074	,	-28294	,	-27644	,	30.035444	,	35
46,51	,	132091	,	-28299	,	-27645	,	34.19622	,	40
46,51	,	132123	,	-28300	,	-27648	,	36.129627	,	44
46,51	,	132139	,	-28298	,	-27641	,	35.69523	,	44
46,51	,	132155	,	-28302	,	-27641	,	33.11255	,	42
46,51	,	132186	,	-28277	,	-27648	,	28.970354	,	38
46,51	,	132202	,	-28293	,	-27644	,	24.13448	,	32
46,52	,	132234	,	-28277	,	-27622	,	19.381466	,	25
46,52	,	132250	,	-28278	,	-27635	,	15.217448	,	17
46,52	,	132266	,	-28287	,	-27627	,	11.901749	,	10
46,52	,	132298	,	-28272	,	-27638	,	9.420337	,	5
46,52	,	132314	,	-28286	,	-27633	,	7.638298	,	1
46,52	,	132330	,	-28291	,	-27638	,	6.319244	,	0
46,52	,	132362	,	-28290	,	-27636	,	5.1052675	,	0
46,52	,	132378	,	-28285	,	-27639	,	3.7935574	,	0
46,52	,	132394	,	-28303	,	-27640	,	2.3749924	,	0
46,52	,	132426	,	-28301	,	-27650	,	0.794863	,	0
46,52	,	132442	,	-28305	,	-27657	,	-1.0070926	,	0
46,52	,	132474	,	-28315	,	-27636	,	-2.9800472	,	0
46,52	,	132490	,	-28318	,	-27657	,	-5.065612	,	0
46,52	,	132506	,	-28320	,	-27656	,	-7.198799	,	0
46,52	,	132538	,	-28328	,	-27662	,	-9.240833	,	0
46,52	,	132554	,	-28325	,	-27655	,	-11.031852	,	0
46,52	,	132570	,	-28337	,	-27665	,	-12.450566	,	0
46,52	,	132602	,	-28335	,	-27665	,	-13.462755	,	0
46,52	,	132618	,	-28353	,	-27668	,	-14.149385	,	0
46,52	,	132650	,	-28340	,	-27668	,	-14.628248	,	0
46,52	,	132666	,	-28358	,	-27677	,	-14.931148	,	0
46,52	,	132682	,	-28357	,	-27689	,	-15.069578	,	0
46,52	,	132714	,	-28354	,	-27648	,	-15.067598	,	0
46,52	,	132730	,	-28373	,	-27678	,	-14.910551	,	0
46,52	,	132746	,	-28373	,	-27684	,	-14.696484	,	0
46,52	,	132778	,	-28379	,	-27691	,	-14.60392	,	0
46,52	,	132794	,	-28396	,	-27691	,	-14.751486	,	0
46,52	,	132810	,	-28391	,	-27696	,	-15.230954	,	0
46,52	,	132842	,	-28383	,	-27694	,	-15.921076	,	0
46,52	,	132858	,	-28372	,	-27674	,	-16.324385	,	0
46,52	,	132890	,	-28342	,	-27669	,	-15.713774	,	0
46,52	,	132906	,	-28323	,	-27648	,	-13.310451	,	0
46,52	,	132922	,	-28316	,	-27671	,	-8.630082	,	2
46,52	,	132954	,	-28306	,	-27631	,	-1.8806319	,	6
46,52	,	132970	,	-28285	,	-27644	,	6.183182	,	12
46,52	,	132986	,	-28275	,	-27631	,	14.731052	,	20
46,52	,	133018	,	-28258	,	-27640	,	23.057499	,	28
46,52	,	133034	,	-28268	,	-27636	,	30.48844	,	36
46,52	,	133066	,	-28263	,	-27630	,	36.272392	,	43
46,52	,	133082	,	-28267	,	-27630	,	39.73384	,	48
46,52	,	133098	,	-28259	,	-27629	,	40.58062	,	51
46,52	,	133130	,	-28260	,	-27626	,	39.004986	,	49
46,52	,	133146	,	-28250	,	-27626	,	35.564674	,	45
46,52	,	133162	,	-28253	,	-27644	,	30.987524	,	39
46,52	,	133194	,	-28257	,	-27609	,	25.921267	,	31
46,53	,	133210	,	-28232	,	-27622	,	20.89849	,	23
46,53	,	133226	,	-28240	,	-27622	,	16.493843	,	15
46,53	,	133258	,	-28229	,	-27618	,	13.156416	,	8
46,53	,	133274	,	-28240	,	-27613	,	10.950229	,	3
46,53	,	133306	,	-28235	,	-27623	,	9.603745	,	0
46,53	,	133322	,	-28249	,	-27624	,	8.680855	,	0
46,53	,	133338	,	-28244	,	-27627	,	7.749864	,	0
46,53	,	133370	,	-28253	,	-27621	,	6.5261493	,	0
46,53	,	133386	,	-28253	,	-27618	,	4.90377	,	0
46,53	,	133402	,	-28261	,	-27648	,	2.8904061	,	0
46,53	,	133434	,	-28265	,	-27621	,	0.5505166	,	0
46,53	,	133450	,	-28265	,	-27637	,	-1.9901564	,	0
46,53	,	133482	,	-28285	,	-27639	,	-4.593201	,	0
46,53	,	133498	,	-28287	,	-27645	,	-7.2407436	,	0
46,53	,	133514	,	-28278	,	-27651	,	-9.881889	,	0
46,53	,	133546	,	-28300	,	-27645	,	-12.270894	,	0
46,53	,	133562	,	-28296	,	-27657	,	-14.2372265	,	0
46,53	,	133578	,	-28301	,	-27657	,	-15.759172	,	0
46,53	,	133610	,	-28298	,	-27651	,	-16.75391	,	0
46,53	,	133626	,	-28307	,	-27661	,	-17.120554	,	0
46,53	,	133642	,	-28306	,	-27665	,	-16.882309	,	0
46,53	,	133674	,	-28338	,	-27667	,	-16.292797	,	0
46,53	,	133690	,	-28340	,	-27667	,	-15.885288	,	0
46,53	,	133722	,	-28338	,	-27672	,	-16.1014	,	0
46,53	,	133738	,	-28344	,	-27680	,	-16.885357	,	0
46,53	,	133754	,	-28349	,	-27682	,	-17.887922	,	0
46,53	,	133786	,	-28365	,	-27683	,	-18.868057	,	0
46,53	,	133802	,	-28367	,	-27682	,	-19.79388	,	0
46,53	,	133818	,	-28376	,	-27689	,	-20.691868	,	0
46,53	,	133850	,	-28375	,	-27700	,	-21.497707	,	0
46,53	,	133866	,	-28359	,	-27682	,	-21.956669	,	0
46,53	,	133898	,	-28328	,	-27666	,	-21.459728	,	0
46,53	,	133914	,	-28312	,	-27661	,	-19.130617	,	0
46,53	,	133930	,	-28280	,	-27648	,	-14.270842	,	2
46,53	,	133962	,	-28281	,	-27643	,	-6.769394	,	6
46,53	,	133978	,	-28261	,	-27643	,	2.7413254	,	13
46,53	,	133994	,	-28258	,	-27642	,	13.113285	,	22
46,53	,	134026	,	-28254	,	-27632	,	23.072731	,	32
46,53	,	134042	,	-28262	,	-27625	,	31.39934	,	41
46,53	,	134073	,	-28253	,	-27632	,	37.11796	,	49
46,53	,	134089	,	-28234	,	-27626	,	39.89128	,	54
46,53	,	134106	,	-28250	,	-27636	,	40.056797	,	56
46,53	,	134137	,	-28257	,	-27619	,	38.054993	,	54
46,53	,	134154	,	-28257	,	-27622	,	34.154064	,	50
46,53	,	134170	,	-28245	,	-27626	,	28.802765	,	43
46,53	,	134202	,	-28254	,	-27614	,	22.756357	,	34
46,54	,	134218	,	-28247	,	-27623	,	16.75715	,	24
46,54	,	134234	,	-28239	,	-27620	,	11.387132	,	15
46,54	,	134266	,	-28251	,	-27610	,	7.070628	,	7
46,54	,	134281	,	-28248	,	-27618	,	3.9093342	,	2
46,54	,	134313	,	-28254	,	-27613	,	1.7008352	,	0
46,54	,	134330	,	-28251	,	-27635	,	0.18597007	,	0
46,54	,	134346	,	-28255	,	-27641	,	-0.82885444	,	0
46,54	,	134378	,	-28257	,	-27614	,	-1.5003419	,	0
46,54	,	134394	,	-28274	,	-27638	,	-2.0577295	,	0
46,54	,	134410	,	-28274	,	-27637	,	-2.8269491	,	0
46,54	,	134441	,	-28277	,	-27641	,	-4.021932	,	0
46,54	,	134457	,	-28279	,	-27634	,	-5.5830307	,	0
46,54	,	134489	,	-28284	,	-27643	,	-7.290116	,	0
46,54	,	134506	,	-28290	,	-27648	,	-8.939424	,	0
46,54	,	134522	,	-28295	,	-27641	,	-10.421369	,	0
46,54	,	134554	,	-28304	,	-27647	,	-11.725377	,	0
46,54	,	134570	,	-28309	,	-27647	,	-12.90531	,	0
46,54	,	134585	,	-28302	,	-27658	,	-13.954012	,	0
46,54	,	134617	,	-28312	,	-27639	,	-14.72363	,	0
46,54	,	134633	,	-28319	,	-27659	,	-15.118366	,	0
46,54	,	134649	,	-28322	,	-27662	,	-15.231213	,	0
46,54	,	134681	,	-28329	,	-27668	,	-15.205029	,	0
46,54	,	134698	,	-28336	,	-27671	,	-15.156763	,	0
46,54	,	134730	,	-28342	,	-27674	,	-15.204097	,	0
46,54	,	134745	,	-28354	,	-27679	,	-15.454911	,	0
46,54	,	134761	,	-28365	,	-27680	,	-16.02333	,	0
46,54	,	134793	,	-28354	,	-27676	,	-16.921469	,	0
46,54	,	134809	,	-28348	,	-27680	,	-17.818256	,	0
46,54	,	134825	,	-28363	,	-27702	,	-18.210815	,	0
46,54	,	134857	,	-28378	,	-27670	,	-17.982193	,	0
46,54	,	134873	,	-28354	,	-27669	,	-17.368546	,	0
46,54	,	134905	,	-28325	,	-27656	,	-16.224766	,	0
46,54	,	134922	,	-28304	,	-27642	,	-13.78769	,	1
46,54	,	134937	,	-28307	,	-27641	,	-9.405491	,	3
46,54	,	134969	,	-28307	,	-27637	,	-3.2797523	,	7
46,54	,	134985	,	-28280	,	-27633	,	3.744258	,	13
46,54	,	135001	,	-28285	,	-27632	,	10.864619	,	20
46,54	,	135033	,	-28283	,	-27627	,	17.412657	,	27
46,54	,	135049	,	-28278	,	-27624	,	22.710938	,	33
46,54	,	135065	,	-28264	,	-27650	,	26.34189	,	38
46,54	,	135097	,	-28271	,	-27612	,	28.29084	,	41
46,54	,	135113	,	-28277	,	-27641	,	28.646149	,	41
46,54	,	135145	,	-28284	,	-27630	,	27.389267	,	39
46,54	,	135161	,	-28290	,	-27624	,	24.529793	,	35
46,54	,	135177	,	-28276	,	-27629	,	20.345968	,	29
46,54	,	135209	,	-28269	,	-27629	,	15.522923	,	22
46,55	,	135225	,	-28269	,	-27622	,	10.932375	,	15
46,55	,	135241	,	-28264	,	-27626	,	7.21579	,	9
46,55	,	135273	,	-28277	,	-27621	,	4.590209	,	4
46,55	,	135289	,	-28271	,	-27635	,	2.8937478	,	1
46,55	,	135321	,	-28273	,	-27649	,	1.8332322	,	0
46,55	,	135337	,	-28277	,	-27623	,	1.1773722	,	0
46,55	,	135353	,	-28281	,	-27629	,	0.7032583	,	0
46,55	,	135385	,	-28287	,	-27635	,	0.16766739	,	0
46,55	,	135401	,	-28283	,	-27633	,	-0.58327097	,	0
46,55	,	135417	,	-28281	,	-27636	,	-1.4970732	,	0
46,55	,	135449	,	-28295	,	-27640	,	-2.4236887	,	0
46,55	,	135465	,	-28301	,	-27636	,	-3.388628	,	0
46,55	,	135481	,	-28312	,	-27654	,	-4.603464	,	0
46,55	,	135513	,	-28321	,	-27649	,	-6.2672815	,	0
46,55	,	135529	,	-28330	,	-27659	,	-8.46278	,	0
46,55	,	135561	,	-28324	,	-27680	,	-11.068251	,	0
46,55	,	135577	,	-28333	,	-27661	,	-13.71581	,	0
46,55	,	135593	,	-28328	,	-27661	,	-15.957886	,	0
46,55	,	135625	,	-28344	,	-27670	,	-17.50125	,	0
46,55	,	135641	,	-28343	,	-27670	,	-18.318642	,	0
46,55	,	135657	,	-28351	,	-27669	,	-18.554054	,	0
46,55	,	135689	,	-28362	,	-27680	,	-18.409649	,	0
46,55	,	135705	,	-28360	,	-27683	,	-18.115429	,	0
46,55	,	135737	,	-28372	,	-27689	,	-17.831984	,	0
46,55	,	135753	,	-28372	,	-27689	,	-17.624245	,	0
46,55	,	135769	,	-28383	,	-27696	,	-17.516773	,	0
46,55	,	135801	,	-28382	,	-27693	,	-17.497585	,	0
46,55	,	135817	,	-28386	,	-27682	,	-17.493187	,	0
46,55	,	135833	,	-28336	,	-27659	,	-17.126663	,	0
46,55	,	135865	,	-28324	,	-27652	,	-15.494893	,	0
46,55	,	135881	,	-28309	,	-27643	,	-11.687846	,	1
46,55	,	135897	,	-28298	,	-27647	,	-5.528307	,	4
46,55	,	135929	,	-28283	,	-27654	,	2.43263	,	10
46,55	,	135945	,	-28284	,	-27637	,	11.25696	,	17
46,55	,	135977	,	-28287	,	-27637	,	19.775707	,	25
46,55	,	135993	,	-28273	,	-27631	,	26.853792	,	33
46,55	,	136009	,	-28272	,	-27636	,	31.806597	,	40
46,55	,	136040	,	-28257	,	-27623	,	34.522484	,	44
46,55	,	136057	,	-28276	,	-27629	,	35.19126	,	46
46,55	,	136073	,	-28281	,	-27633	,	33.930294	,	45
46,55	,	136105	,	-28264	,	-27632	,	30.862196	,	42
46,55	,	136121	,	-28274	,	-27621	,	26.47572	,	36
46,55	,	136153	,	-28271	,	-27625	,	21.446812	,	29
46,55	,	136169	,	-28263	,	-27618	,	16.352081	,	21
46,55	,	136185	,	-28265	,	-27616	,	11.718816	,	13
46,56	,	136217	,	-28268	,	-27627	,	7.915353	,	6
46,56	,	136233	,	-28256	,	-27629	,	5.0621867	,	2
46,56	,	136249	,	-28264	,	-27642	,	3.171421	,	0
46,56	,	136281	,	-28280	,	-27618	,	2.051149	,	0
46,56	,	136296	,	-28267	,	-27630	,	1.2683282	,	0
46,56	,	136312	,	-28277	,	-27635	,	0.5121038	,	0
46,56	,	136344	,	-28266	,	-27645	,	-0.24865389	,	0
46,56	,	136361	,	-28302	,	-27646	,	-1.051897	,	0
46,56	,	136393	,	-28299	,	-27637	,	-2.2060199	,	0
46,56	,	136409	,	-28320	,	-27639	,	-4.1011577	,	0
46,56	,	136425	,	-28306	,	-27647	,	-6.8054643	,	0
46,56	,	136456	,	-28303	,	-27643	,	-9.88238	,	0
46,56	,	136472	,	-28306	,	-27651	,	-12.591196	,	0
46,56	,	136488	,	-28308	,	-27671	,	-14.366538	,	0
46,56	,	136520	,	-28323	,	-27646	,	-15.106586	,	0
46,56	,	136536	,	-28324	,	-27664	,	-15.1031	,	0
46,56	,	136569	,	-28338	,	-27670	,	-14.794022	,	0
46,56	,	136585	,	-28349	,	-27677	,	-14.599554	,	0
46,56	,	136601	,	-28353	,	-27667	,	-14.845919	,	0
46,56	,	136633	,	-28346	,	-27680	,	-15.563586	,	0
46,56	,	136649	,	-28350	,	-27670	,	-16.416424	,	0
46,56	,	136665	,	-28365	,	-27687	,	-17.042759	,	0
46,56	,	136697	,	-28372	,	-27693	,	-17.408932	,	0
46,56	,	136712	,	-28375	,	-27696	,	-17.689346	,	0
46,56	,	136744	,	-28375	,	-27713	,	-17.946875	,	0
46,56	,	136760	,	-28399	,	-27694	,	-18.172594	,	0
46,56	,	136776	,	-28382	,	-27692	,	-18.425182	,	0
46,56	,	136808	,	-28365	,	-27678	,	-18.507177	,	0
46,56	,	136824	,	-28349	,	-27663	,	-17.748634	,	0
46,56	,	136841	,	-28323	,	-27663	,	-15.366306	,	0
46,56	,	136872	,	-28303	,	-27651	,	-10.813237	,	2
46,56	,	136889	,	-28305	,	-27655	,	-4.0496693	,	6
46,56	,	136904	,	-28288	,	-27640	,	4.269468	,	12
46,56	,	136937	,	-28289	,	-27640	,	13.069229	,	20
46,56	,	136953	,	-28272	,	-27639	,	21.30102	,	28
46,56	,	136984	,	-28282	,	-27643	,	28.13892	,	36
46,56	,	137000	,	-28262	,	-27605	,	33.025494	,	42
46,56	,	137016	,	-28269	,	-27633	,	35.74623	,	46
46,56	,	137049	,	-28269	,	-27628	,	36.35327	,	48
46,56	,	137065	,	-28276	,	-27632	,	34.96685	,	46
46,56	,	137081	,	-28269	,	-27631	,	31.811779	,	42
46,56	,	137112	,	-28256	,	-27621	,	27.417841	,	36
46,56	,	137128	,	-28264	,	-27629	,	22.556053	,	28
46,56	,	137160	,	-28268	,	-27618	,	17.828033	,	20
46,56	,	137177	,	-28257	,	-27621	,	13.523983	,	12
46,56	,	137192	,	-28257	,	-27619	,	9.875956	,	6
46,57	,	137224	,	-28241	,	-27641	,	7.161134	,	2
46,57	,	137240	,	-28249	,	-27601	,	5.5776186	,	0
46,57	,	137256	,	-28262	,	-27627	,	4.978595	,	0
46,57	,	137288	,	-28255	,	-27633	,	4.836365	,	0
46,57	,	137304	,	-28273	,	-27629	,	4.597	,	0
46,57	,	137320	,	-28261	,	-27629	,	3.9133937	,	0
46,57	,	137352	,	-28275	,	-27631	,	2.6907256	,	0
46,57	,	137369	,	-28276	,	-27635	,	1.003892	,	0
46,57	,	137400	,	-28288	,	-27639	,	-1.0688908	,	0
46,57	,	137416	,	-28293	,	-27634	,	-3.4765797	,	0
46,57	,	137432	,	-28295	,	-27640	,	-6.1242285	,	0
46,57	,	137464	,	-28299	,	-27658	,	-8.804723	,	0
46,57	,	137480	,	-28292	,	-27630	,	-11.198493	,	0
46,57	,	137496	,	-28300	,	-27648	,	-12.964189	,	0
46,57	,	137528	,	-28313	,	-27660	,	-13.974038	,	0
46,57	,	137544	,	-28314	,	-27657	,	-14.432337	,	0
46,57	,	137576	,	-28319	,	-27653	,	-14.621829	,	0
46,57	,	137592	,	-28325	,	-27658	,	-14.697462	,	0
46,57	,	137608	,	-28341	,	-27660	,	-14.792543	,	0
46,57	,	137640	,	-28334	,	-27666	,	-15.061981	,	0
46,57	,	137656	,	-28343	,	-27664	,	-15.508259	,	0
46,57	,	137672	,	-28342	,	-27677	,	-15.964713	,	0
46,57	,	137704	,	-28370	,	-27673	,	-16.36302	,	0
46,57	,	137720	,	-28368	,	-27686	,	-16.890324	,	0
46,57	,	137736	,	-28374	,	-27692	,	-17.728985	,	0
46,57	,	137768	,	-28370	,	-27675	,	-18.752926	,	0
46,57	,	137784	,	-28343	,	-27659	,	-19.462406	,	0
46,57	,	137816	,	-28307	,	-27660	,	-18.927505	,	0
46,57	,	137832	,	-28307	,	-27643	,	-16.118505	,	0
46,57	,	137848	,	-28296	,	-27645	,	-10.696921	,	2
46,57	,	137880	,	-28278	,	-27631	,	-3.1988497	,	7
46,57	,	137896	,	-28268	,	-27636	,	5.493545	,	14
46,57	,	137912	,	-28261	,	-27629	,	14.459616	,	22
46,57	,	137944	,	-28254	,	-27612	,	22.782993	,	30
46,57	,	137960	,	-28257	,	-27619	,	29.642868	,	38
46,57	,	137992	,	-28252	,	-27626	,	34.40511	,	44
46,57	,	138008	,	-28245	,	-27623	,	36.774277	,	48
46,57	,	138024	,	-28250	,	-27630	,	36.852318	,	50
46,57	,	138056	,	-28259	,	-27625	,	34.90587	,	48
46,57	,	138072	,	-28242	,	-27620	,	31.28468	,	43
46,57	,	138088	,	-28241	,	-27616	,	26.620028	,	36
46,57	,	138120	,	-28250	,	-27621	,	21.65793	,	28
46,57	,	138136	,	-28230	,	-27618	,	16.948204	,	20
46,57	,	138168	,	-28232	,	-27638	,	12.938621	,	12
46,57	,	138184	,	-28240	,	-27606	,	9.916774	,	6
46,57	,	138200	,	-28226	,	-27616	,	7.8408837	,	2
46,58	,	138232	,	-28238	,	-27627	,	6.527506	,	0
46,58	,	138248	,	-28240	,	-27619	,	5.7170367	,	0
46,58	,	138264	,	-28241	,	-27622	,	5.052179	,	0
46,58	,	138296	,	-28236	,	-27640	,	4.297536	,	0
46,58	,	138312	,	-28250	,	-27632	,	3.3872263	,	0
46,58	,	138328	,	-28257	,	-27632	,	2.209941	,	0
46,58	,	138360	,	-28258	,	-27637	,	0.6064997	,	0
46,58	,	138376	,	-28261	,	-27647	,	-1.4128172	,	0
46,58	,	138408	,	-28260	,	-27653	,	-3.6247206	,	0
46,58	,	138424	,	-28276	,	-27631	,	-5.7823873	,	0
46,58	,	138440	,	-28270	,	-27655	,	-7.7691126	,	0
46,58	,	138472	,	-28280	,	-27648	,	-9.528551	,	0
46,58	,	138488	,	-28293	,	-27672	,	-11.056814	,	0
46,58	,	138504	,	-28298	,	-27655	,	-12.492466	,	0
46,58	,	138536	,	-28298	,	-27658	,	-13.943628	,	0
46,58	,	138552	,	-28300	,	-27662	,	-15.298296	,	0
46,58	,	138584	,	-28310	,	-27669	,	-16.355627	,	0
46,58	,	138600	,	-28304	,	-27664	,	-16.99627	,	0
46,58	,	138616	,	-28315	,	-27676	,	-17.172375	,	0
46,58	,	138648	,	-28320	,	-27697	,	-16.93875	,	0
46,58	,	138663	,	-28337	,	-27654	,	-16.53727	,	0
46,58	,	138679	,	-28314	,	-27675	,	-16.192715	,	0
46,58	,	138712	,	-28282	,	-27658	,	-15.592682	,	0
46,58	,	138728	,	-28285	,	-27664	,	-13.897911	,	0
46,58	,	138744	,	-28264	,	-27642	,	-10.513151	,	1
46,58	,	138776	,	-28235	,	-27633	,	-5.3433013	,	4
46,58	,	138792	,	-28224	,	-27632	,	1.518744	,	9
46,58	,	138824	,	-28226	,	-27634	,	9.644892	,	15
46,58	,	138839	,	-28209	,	-27624	,	18.117779	,	23
46,58	,	138855	,	-28211	,	-27614	,	25.90345	,	31
46,58	,	138887	,	-28210	,	-27626	,	32.13519	,	38
46,58	,	138904	,	-28213	,	-27593	,	36.145226	,	44
46,58	,	138920	,	-28196	,	-27614	,	37.654305	,	48
46,58	,	138952	,	-28197	,	-27612	,	36.93398	,	48
46,58	,	138968	,	-28200	,	-27611	,	34.54003	,	45
46,58	,	139000	,	-28192	,	-27597	,	30.98769	,	40
46,58	,	139016	,	-28186	,	-27598	,	26.799765	,	34
46,58	,	139031	,	-28177	,	-27595	,	22.580465	,	26
46,58	,	139063	,	-28183	,	-27588	,	18.830933	,	18
46,58	,	139079	,	-28178	,	-27592	,	15.75328	,	11
46,58	,	139095	,	-28166	,	-27593	,	13.371735	,	5
46,58	,	139127	,	-28179	,	-27608	,	11.685504	,	1
46,58	,	139144	,	-28169	,	-27576	,	10.552398	,	0
46,58	,	139160	,	-28172	,	-27597	,	9.734915	,	0
46,58	,	139192	,	-28181	,	-27601	,	9.014022	,	0
46,59	,	139207	,	-28190	,	-27603	,	8.082735	,	0
46,59	,	139239	,	-28183	,	-27594	,	6.651495	,	0
46,59	,	139255	,	-28198	,	-27606	,	4.671179	,	0
46,59	,	139271	,	-28208	,	-27606	,	2.1924784	,	0
46,59	,	139303	,	-28211	,	-27604	,	-0.781368	,	0
46,59	,	139319	,	-28206	,	-27611	,	-4.089612	,	0
46,59	,	139336	,	-28204	,	-27615	,	-7.275604	,	0
46,59	,	139368	,	-28208	,	-27628	,	-9.811954	,	0
46,59	,	139383	,	-28205	,	-27603	,	-11.38127	,	0
46,59	,	139415	,	-28219	,	-27617	,	-11.968946	,	0
46,59	,	139432	,	-28231	,	-27628	,	-11.899401	,	0
46,59	,	139448	,	-28241	,	-27624	,	-11.736332	,	0
46,59	,	139479	,	-28243	,	-27632	,	-11.95297	,	0
46,59	,	139495	,	-28240	,	-27629	,	-12.656074	,	0
46,59	,	139511	,	-28254	,	-27638	,	-13.643459	,	0
46,59	,	139543	,	-28255	,	-27635	,	-14.697994	,	0
46,59	,	139559	,	-28265	,	-27648	,	-15.718126	,	0
46,59	,	139575	,	-28269	,	-27645	,	-16.657331	,	0
46,59	,	139607	,	-28260	,	-27656	,	-17.410114	,	0
46,59	,	139623	,	-28232	,	-27616	,	-17.573757	,	0
46,59	,	139655	,	-28186	,	-27590	,	-16.247913	,	0
46,59	,	139671	,	-28180	,	-27596	,	-12.366841	,	1
46,59	,	139687	,	-28166	,	-27590	,	-5.5474844	,	4
46,59	,	139719	,	-28150	,	-27575	,	3.5879288	,	10
46,59	,	139735	,	-28147	,	-27589	,	13.863508	,	19
46,59	,	139751	,	-28140	,	-27582	,	23.946554	,	29
46,59	,	139783	,	-28130	,	-27570	,	32.626198	,	39
46,59	,	139800	,	-28135	,	-27567	,	39.057358	,	47
46,59	,	139831	,	-28138	,	-27573	,	42.728176	,	53
46,59	,	139847	,	-28133	,	-27563	,	43.43757	,	56
46,59	,	139863	,	-28127	,	-27557	,	41.449863	,	55
46,59	,	139895	,	-28122	,	-27553	,	37.47399	,	52
46,59	,	139911	,	-28124	,	-27552	,	32.370193	,	46
46,59	,	139927	,	-28120	,	-27544	,	26.867119	,	37
46,59	,	139959	,	-28109	,	-27553	,	21.544466	,	27
46,59	,	139975	,	-28109	,	-27549	,	16.914555	,	17
46,59	,	140007	,	-28117	,	-27552	,	13.258512	,	9
46,59	,	140023	,	-28110	,	-27561	,	10.500326	,	3
46,59	,	140039	,	-28119	,	-27549	,	8.40392	,	0
46,59	,	140071	,	-28129	,	-27561	,	6.675449	,	0
46,59	,	140087	,	-28124	,	-27549	,	4.981785	,	0
46,59	,	140103	,	-28129	,	-27560	,	3.1578116	,	0
46,59	,	140135	,	-28129	,	-27561	,	1.2568977	,	0
46,59	,	140151	,	-28135	,	-27567	,	-0.6144655	,	0
46,59	,	140167	,	-28130	,	-27567	,	-2.3500204	,	0
46,59	,	140199	,	-28139	,	-27566	,	-3.8349288	,	0
47,0	,	140215	,	-28149	,	-27567	,	-5.071251	,	0
47,0	,	140247	,	-28151	,	-27580	,	-6.2337675	,	0
47,0	,	140263	,	-28151	,	-27580	,	-7.449852	,	0
47,0	,	140279	,	-28153	,	-27585	,	-8.63769	,	0
47,0	,	140311	,	-28168	,	-27590	,	-9.681119	,	0
47,0	,	140327	,	-28172	,	-27573	,	-10.645313	,	0
47,0	,	140343	,	-28172	,	-27591	,	-11.652632	,	0
47,0	,	140375	,	-28179	,	-27601	,	-12.676725	,	0
47,0	,	140391	,	-28178	,	-27598	,	-13.591518	,	0
47,0	,	140423	,	-28161	,	-27599	,	-14.164803	,	0
47,0	,	140439	,	-28146	,	-27587	,	-13.9268875	,	0
47,0	,	140455	,	-28134	,	-27571	,	-12.312138	,	0
47,0	,	140487	,	-28110	,	-27568	,	-8.93973	,	1
47,0	,	140503	,	-28113	,	-27560	,	-3.780808	,	4
47,0	,	140519	,	-28082	,	-27547	,	2.7993712	,	9
47,0	,	140551	,	-28089	,	-27562	,	10.1949005	,	15
47,0	,	140567	,	-28081	,	-27529	,	17.626776	,	22
47,0	,	140583	,	-28069	,	-27546	,	24.24193	,	29
47,0	,	140615	,	-28068	,	-27543	,	29.430767	,	35
47,0	,	140631	,	-28054	,	-27540	,	32.929764	,	40
47,0	,	140663	,	-28073	,	-27539	,	34.65756	,	43
47,0	,	140679	,	-28065	,	-27533	,	34.533962	,	43
47,0	,	140695	,	-28066	,	-27529	,	32.57864	,	40
47,0	,	140727	,	-28064	,	-27533	,	29.113676	,	35
47,0	,	140743	,	-28053	,	-27530	,	24.718016	,	29
47,0	,	140759	,	-28055	,	-27533	,	20.087719	,	22
47,0	,	140791	,	-28063	,	-27551	,	15.766686	,	15
47,0	,	140807	,	-28061	,	-27514	,	11.942097	,	9
47,0	,	140838	,	-28052	,	-27546	,	8.652682	,	4
47,0	,	140855	,	-28044	,	-27538	,	6.0689416	,	1
47,0	,	140871	,	-28043	,	-27540	,	4.4323373	,	0
47,0	,	140903	,	-28040	,	-27541	,	3.814464	,	0
47,0	,	140919	,	-28067	,	-27543	,	3.9163537	,	0
47,0	,	140935	,	-28073	,	-27543	,	4.021026	,	0
47,0	,	140967	,	-28073	,	-27551	,	3.39754	,	0
47,0	,	140983	,	-28072	,	-27555	,	1.8291028	,	0
47,0	,	140999	,	-28077	,	-27552	,	-0.41302848	,	0
47,0	,	141031	,	-28094	,	-27573	,	-3.0002234	,	0
47,0	,	141047	,	-28092	,	-27538	,	-5.7796903	,	0
47,0	,	141079	,	-28100	,	-27560	,	-8.62561	,	0
47,0	,	141095	,	-28096	,	-27562	,	-11.292342	,	0
47,0	,	141111	,	-28105	,	-27563	,	-13.4956045	,	0
47,0	,	141143	,	-28120	,	-27580	,	-15.121563	,	0
47,0	,	141159	,	-28122	,	-27577	,	-16.320753	,	0
47,0	,	141174	,	-28123	,	-27586	,	-17.271301	,	0
47,0	,	141207	,	-28108	,	-27572	,	-17.879108	,	0
47,1	,	141223	,	-28102	,	-27562	,	-17.747572	,	0
47,1	,	141254	,	-28063	,	-27559	,	-16.289196	,	0
47,1	,	141270	,	-28061	,	-27569	,	-12.90347	,	1
47,1	,	141286	,	-28042	,	-27520	,	-7.3747406	,	4
47,1	,	141318	,	-28039	,	-27542	,	-0.11637926	,	9
47,1	,	141334	,	-28028	,	-27540	,	8.0282345	,	16
47,1	,	141350	,	-28017	,	-27534	,	16.123747	,	24
47,1	,	141383	,	-28017	,	-27526	,	23.365948	,	32
47,1	,	141399	,	-28013	,	-27534	,	29.108992	,	39
47,1	,	141415	,	-28012	,	-27525	,	32.887638	,	44
47,1	,	141447	,	-28010	,	-27522	,	34.50811	,	47
47,1	,	141462	,	-28023	,	-27529	,	34.001392	,	47
47,1	,	141494	,	-28020	,	-27530	,	31.512766	,	44
47,1	,	141510	,	-28026	,	-27544	,	27.342468	,	39
47,1	,	141527	,	-28014	,	-27505	,	22.044815	,	32
47,1	,	141558	,	-28023	,	-27524	,	16.350351	,	24
47,1	,	141575	,	-28017	,	-27515	,	10.92249	,	16
47,1	,	141590	,	-28017	,	-27523	,	6.225725	,	9
47,1	,	141622	,	-28013	,	-27526	,	2.562213	,	4
47,1	,	141638	,	-28023	,	-27525	,	0.035872936	,	1
47,1	,	141670	,	-28020	,	-27539	,	-1.4992459	,	0
47,1	,	141686	,	-28032	,	-27541	,	-2.3559756	,	0
47,1	,	141702	,	-28036	,	-27543	,	-2.9186056	,	0
47,1	,	141735	,	-28036	,	-27550	,	-3.5224152	,	0
47,1	,	141750	,	-28042	,	-27570	,	-4.3183503	,	0
47,1	,	141766	,	-28050	,	-27539	,	-5.331433	,	0
47,1	,	141798	,	-28062	,	-27555	,	-6.615053	,	0
47,1	,	141814	,	-28069	,	-27563	,	-8.268386	,	0
47,1	,	141830	,	-28076	,	-27568	,	-10.327724	,	0
47,1	,	141862	,	-28070	,	-27564	,	-12.6298485	,	0
47,1	,	141878	,	-28086	,	-27577	,	-14.84359	,	0
47,1	,	141910	,	-28091	,	-27570	,	-16.736069	,	0
47,1	,	141926	,	-28095	,	-27561	,	-18.264702	,	0
47,1	,	141942	,	-28104	,	-27582	,	-19.427128	,	0
47,1	,	141974	,	-28113	,	-27589	,	-20.258354	,	0
47,1	,	141990	,	-28105	,	-27595	,	-20.802273	,	0
47,1	,	142006	,	-28111	,	-27578	,	-20.958248	,	0
47,1	,	142038	,	-28136	,	-27602	,	-20.681927	,	0
47,1	,	142054	,	-28117	,	-27581	,	-20.172937	,	0
47,1	,	142086	,	-28101	,	-27574	,	-19.409233	,	0
47,1	,	142102	,	-28077	,	-27566	,	-17.816713	,	0
47,1	,	142118	,	-28057	,	-27560	,	-14.629597	,	1
47,1	,	142150	,	-28047	,	-27555	,	-9.392021	,	4
47,1	,	142167	,	-28045	,	-27543	,	-2.2966309	,	9
47,1	,	142182	,	-28045	,	-27552	,	5.7856555	,	16
47,2	,	142214	,	-28025	,	-27543	,	13.738323	,	24
47,2	,	142230	,	-28028	,	-27540	,	20.706463	,	31
47,2	,	142262	,	-28028	,	-27545	,	26.12554	,	37
47,2	,	142278	,	-28040	,	-27548	,	29.508802	,	42
47,2	,	142294	,	-28043	,	-27547	,	30.475191	,	45
47,2	,	142326	,	-28044	,	-27543	,	28.958857	,	44
47,2	,	142342	,	-28040	,	-27541	,	25.352566	,	41
47,2	,	142358	,	-28017	,	-27548	,	20.516603	,	36
47,2	,	142390	,	-28028	,	-27548	,	15.54939	,	29
47,2	,	142406	,	-28022	,	-27549	,	11.278129	,	21
47,2	,	142438	,	-28023	,	-27545	,	8.0275955	,	14
47,2	,	142454	,	-28026	,	-27552	,	5.7933664	,	8
47,2	,	142470	,	-28033	,	-27537	,	4.3368325	,	3
47,2	,	142502	,	-28029	,	-27548	,	3.2994614	,	0
47,2	,	142518	,	-28043	,	-27555	,	2.3717384	,	0
47,2	,	142534	,	-28049	,	-27551	,	1.2714128	,	0
47,2	,	142566	,	-28042	,	-27550	,	-0.19367754	,	0
47,2	,	142582	,	-28043	,	-27555	,	-1.9115183	,	0
47,2	,	142598	,	-28051	,	-27564	,	-3.5856295	,	0
47,2	,	142630	,	-28054	,	-27558	,	-5.0544333	,	0
47,2	,	142646	,	-28066	,	-27577	,	-6.361944	,	0
47,2	,	142678	,	-28076	,	-27576	,	-7.6896544	,	0
47,2	,	142694	,	-28080	,	-27589	,	-9.239963	,	0
47,2	,	142710	,	-28094	,	-27569	,	-11.104527	,	0
47,2	,	142742	,	-28104	,	-27588	,	-13.294291	,	0
47,2	,	142758	,	-28105	,	-27594	,	-15.748465	,	0
47,2	,	142774	,	-28104	,	-27595	,	-18.202377	,	0
47,2	,	142806	,	-28117	,	-27602	,	-20.27238	,	0
47,2	,	142822	,	-28098	,	-27609	,	-21.639534	,	0
47,2	,	142854	,	-28124	,	-27600	,	-22.086777	,	0
47,2	,	142870	,	-28134	,	-27606	,	-21.71883	,	0
47,2	,	142886	,	-28148	,	-27618	,	-21.054817	,	0
47,2	,	142918	,	-28139	,	-27614	,	-20.573929	,	0
47,2	,	142934	,	-28161	,	-27635	,	-20.400742	,	0
47,2	,	142950	,	-28164	,	-27617	,	-20.53043	,	0
47,2	,	142982	,	-28158	,	-27631	,	-20.914427	,	0
47,2	,	142998	,	-28131	,	-27616	,	-21.130775	,	0
47,2	,	143014	,	-28117	,	-27598	,	-20.316957	,	0
47,2	,	143046	,	-28104	,	-27589	,	-17.651016	,	0
47,2	,	143062	,	-28093	,	-27589	,	-12.838886	,	2
47,2	,	143094	,	-28083	,	-27586	,	-6.183463	,	6
47,2	,	143110	,	-28084	,	-27587	,	1.5738401	,	12
47,2	,	143125	,	-28087	,	-27578	,	9.391981	,	19
47,2	,	143157	,	-28073	,	-27583	,	16.22309	,	26
47,2	,	143174	,	-28084	,	-27582	,	21.360325	,	32
47,2	,	143190	,	-28073	,	-27577	,	24.477795	,	37
47,3	,	143222	,	-28083	,	-27581	,	25.534784	,	40
47,3	,	143238	,	-28084	,	-27580	,	24.690258	,	41
47,3	,	143270	,	-28086	,	-27586	,	22.226799	,	39
47,3	,	143286	,	-28072	,	-27587	,	18.633488	,	35
47,3	,	143301	,	-28094	,	-27582	,	14.531107	,	29
47,3	,	143333	,	-28070	,	-27583	,	10.420693	,	22
47,3	,	143349	,	-28076	,	-27585	,	6.7423286	,	15
47,3	,	143366	,	-28088	,	-27573	,	3.8247247	,	9
47,3	,	143398	,	-28089	,	-27584	,	1.6058974	,	4
47,3	,	143414	,	-28090	,	-27570	,	-0.18528414	,	1
47,3	,	143445	,	-28092	,	-27580	,	-1.7042873	,	0
47,3	,	143461	,	-28097	,	-27603	,	-3.0057418	,	0
47,3	,	143477	,	-28104	,	-27597	,	-4.1622777	,	0
47,3	,	143510	,	-28114	,	-27596	,	-5.318973	,	0
47,3	,	143526	,	-28106	,	-27605	,	-6.5899854	,	0
47,3	,	143542	,	-28129	,	-27607	,	-7.965476	,	0
47,3	,	143574	,	-28140	,	-27615	,	-9.513042	,	0
47,3	,	143590	,	-28140	,	-27617	,	-11.407324	,	0
47,3	,	143606	,	-28133	,	-27613	,	-13.548243	,	0
47,3	,	143637	,	-28162	,	-27622	,	-15.592533	,	0
47,3	,	143653	,	-28145	,	-27604	,	-17.346577	,	0
47,3	,	143685	,	-28158	,	-27631	,	-18.69095	,	0
47,3	,	143702	,	-28177	,	-27643	,	-19.546164	,	0
47,3	,	143718	,	-28168	,	-27648	,	-20.057835	,	0
47,3	,	143749	,	-28176	,	-27642	,	-20.346622	,	0
47,3	,	143765	,	-28192	,	-27644	,	-20.418022	,	0
47,3	,	143782	,	-28188	,	-27658	,	-20.376766	,	0
47,3	,	143813	,	-28207	,	-27656	,	-20.35157	,	0
47,3	,	143829	,	-28206	,	-27656	,	-20.419872	,	0
47,3	,	143861	,	-28211	,	-27671	,	-20.58849	,	0
47,3	,	143877	,	-28231	,	-27678	,	-20.818031	,	0
47,3	,	143893	,	-28236	,	-27661	,	-21.198555	,	0
47,3	,	143926	,	-28234	,	-27676	,	-21.815968	,	0
47,3	,	143941	,	-28245	,	-27692	,	-22.51635	,	0
47,3	,	143957	,	-28234	,	-27673	,	-23.004154	,	0
47,3	,	143989	,	-28211	,	-27661	,	-22.821148	,	0
47,3	,	144005	,	-28199	,	-27666	,	-21.279972	,	0
47,3	,	144021	,	-28190	,	-27641	,	-17.841846	,	1
47,3	,	144053	,	-28187	,	-27638	,	-12.535636	,	4
47,3	,	144069	,	-28172	,	-27645	,	-5.898324	,	9
47,3	,	144101	,	-28165	,	-27647	,	1.3789358	,	15
47,3	,	144117	,	-28162	,	-27650	,	8.627921	,	22
47,3	,	144133	,	-28174	,	-27623	,	15.102937	,	29
47,3	,	144165	,	-28179	,	-27645	,	19.957092	,	35
47,3	,	144181	,	-28176	,	-27647	,	22.543808	,	39
47,3	,	144197	,	-28167	,	-27654	,	22.789188	,	41
47,4	,	144229	,	-28172	,	-27645	,	21.166111	,	40
47,4	,	144245	,	-28170	,	-27645	,	18.318401	,	37
47,4	,	144277	,	-28168	,	-27638	,	14.833848	,	32
47,4	,	144293	,	-28166	,	-27634	,	11.24419	,	26
47,4	,	144309	,	-28173	,	-27635	,	7.9535875	,	19
47,4	,	144341	,	-28167	,	-27650	,	5.1559615	,	12
47,4	,	144357	,	-28166	,	-27653	,	2.9358015	,	6
47,4	,	144373	,	-28161	,	-27618	,	1.379581	,	2
47,4	,	144405	,	-28174	,	-27648	,	0.48609042	,	0
47,4	,	144421	,	-28184	,	-27637	,	-0.012108088	,	0
47,4	,	144437	,	-28176	,	-27644	,	-0.5255558	,	0
47,4	,	144469	,	-28195	,	-27653	,	-1.3063502	,	0
47,4	,	144485	,	-28202	,	-27653	,	-2.5094028	,	0
47,4	,	144517	,	-28198	,	-27664	,	-4.246751	,	0
47,4	,	144533	,	-28210	,	-27665	,	-6.4046626	,	0
47,4	,	144549	,	-28212	,	-27660	,	-8.729092	,	0
47,4	,	144581	,	-28223	,	-27667	,	-11.025533	,	0
47,4	,	144597	,	-28222	,	-27695	,	-13.163577	,	0
47,4	,	144613	,	-28224	,	-27659	,	-14.986351	,	0
47,4	,	144645	,	-28230	,	-27686	,	-16.30814	,	0
47,4	,	144661	,	-28227	,	-27688	,	-17.010017	,	0
47,4	,	144693	,	-28236	,	-27697	,	-17.07383	,	0
47,4	,	144709	,	-28267	,	-27691	,	-16.738033	,	0
47,4	,	144725	,	-28249	,	-27691	,	-16.493366	,	0
47,4	,	144757	,	-28256	,	-27700	,	-16.558113	,	0
47,4	,	144773	,	-28270	,	-27706	,	-16.777279	,	0
47,4	,	144789	,	-28288	,	-27702	,	-17.146328	,	0
47,4	,	144821	,	-28278	,	-27703	,	-17.831303	,	0
47,4	,	144837	,	-28294	,	-27735	,	-18.7896	,	0
47,4	,	144853	,	-28297	,	-27705	,	-19.825203	,	0
47,4	,	144885	,	-28314	,	-27720	,	-20.845135	,	0
47,4	,	144901	,	-28314	,	-27724	,	-21.85582	,	0
47,4	,	144933	,	-28319	,	-27722	,	-22.804222	,	0
47,4	,	144949	,	-28305	,	-27708	,	-23.435394	,	0
47,4	,	144965	,	-28286	,	-27702	,	-23.218922	,	0
47,4	,	144997	,	-28264	,	-27698	,	-21.432785	,	0
47,4	,	145013	,	-28254	,	-27702	,	-17.497887	,	1
47,4	,	145029	,	-28245	,	-27700	,	-11.369374	,	4
47,4	,	145061	,	-28239	,	-27692	,	-3.620613	,	10
47,4	,	145077	,	-28247	,	-27709	,	4.735568	,	17
47,4	,	145109	,	-28238	,	-27680	,	12.5167675	,	25
47,4	,	145125	,	-28242	,	-27688	,	18.74319	,	32
47,4	,	145141	,	-28251	,	-27691	,	22.80797	,	38
47,4	,	145173	,	-28248	,	-27684	,	24.414371	,	42
47,4	,	145189	,	-28248	,	-27702	,	23.647793	,	43
47,4	,	145205	,	-28254	,	-27696	,	20.97107	,	42
47,5	,	145237	,	-28264	,	-27683	,	16.951366	,	39
47,5	,	145253	,	-28255	,	-27685	,	12.125543	,	33
47,5	,	145269	,	-28254	,	-27689	,	7.121154	,	26
47,5	,	145301	,	-28241	,	-27692	,	2.6643305	,	18
47,5	,	145317	,	-28249	,	-27691	,	-0.6434922	,	11
47,5	,	145349	,	-28250	,	-27677	,	-2.592515	,	5
47,5	,	145365	,	-28260	,	-27690	,	-3.4267821	,	1
47,5	,	145381	,	-28249	,	-27694	,	-3.582256	,	0
47,5	,	145413	,	-28250	,	-27693	,	-3.3510087	,	0
47,5	,	145429	,	-28274	,	-27691	,	-2.9493918	,	0
47,5	,	145445	,	-28270	,	-27701	,	-2.7669852	,	0
47,5	,	145477	,	-28286	,	-27699	,	-3.197259	,	0
47,5	,	145493	,	-28290	,	-27702	,	-4.4223194	,	0
47,5	,	145525	,	-28299	,	-27705	,	-6.4374743	,	0
47,5	,	145540	,	-28285	,	-27711	,	-8.968875	,	0
47,5	,	145557	,	-28302	,	-27709	,	-11.489758	,	0
47,5	,	145588	,	-28303	,	-27715	,	-13.57844	,	0
47,5	,	145605	,	-28304	,	-27724	,	-15.087559	,	0
47,5	,	145621	,	-28325	,	-27727	,	-16.043995	,	0
47,5	,	145653	,	-28319	,	-27728	,	-16.637384	,	0
47,5	,	145669	,	-28328	,	-27738	,	-17.056608	,	0
47,5	,	145700	,	-28348	,	-27732	,	-17.420977	,	0
47,5	,	145717	,	-28340	,	-27738	,	-17.900497	,	0
47,5	,	145733	,	-28344	,	-27732	,	-18.507315	,	0
47,5	,	145764	,	-28355	,	-27753	,	-19.035017	,	0
47,5	,	145781	,	-28357	,	-27751	,	-19.356543	,	0
47,5	,	145797	,	-28367	,	-27745	,	-19.485126	,	0
47,5	,	145829	,	-28371	,	-27758	,	-19.480852	,	0
47,5	,	145845	,	-28348	,	-27730	,	-19.280457	,	0
47,5	,	145861	,	-28339	,	-27728	,	-18.46347	,	0
47,5	,	145893	,	-28322	,	-27718	,	-16.421745	,	0
47,5	,	145908	,	-28312	,	-27716	,	-12.767365	,	2
47,5	,	145940	,	-28302	,	-27713	,	-7.5143385	,	5
47,5	,	145957	,	-28290	,	-27706	,	-1.0420151	,	10
47,5	,	145973	,	-28288	,	-27706	,	6.0346885	,	16
47,5	,	146005	,	-28283	,	-27711	,	12.968882	,	23
47,5	,	146021	,	-28286	,	-27719	,	18.982075	,	29
47,5	,	146037	,	-28291	,	-27702	,	23.384464	,	35
47,5	,	146068	,	-28288	,	-27708	,	25.708994	,	39
47,5	,	146084	,	-28291	,	-27711	,	25.85574	,	41
47,5	,	146116	,	-28282	,	-27708	,	24.121866	,	39
47,5	,	146132	,	-28267	,	-27713	,	21.170908	,	36
47,5	,	146148	,	-28265	,	-27704	,	17.892654	,	31
47,5	,	146181	,	-28267	,	-27701	,	15.006552	,	25
47,5	,	146196	,	-28271	,	-27698	,	12.755218	,	18
47,6	,	146212	,	-28286	,	-27693	,	10.932036	,	12
47,6	,	146244	,	-28282	,	-27692	,	9.12258	,	6
47,6	,	146260	,	-28283	,	-27709	,	7.0653553	,	2
47,6	,	146276	,	-28283	,	-27691	,	4.8079305	,	0
47,6	,	146308	,	-28295	,	-27706	,	2.494339	,	0
47,6	,	146324	,	-28289	,	-27708	,	0.1998694	,	0
47,6	,	146356	,	-28303	,	-27712	,	-2.0140767	,	0
47,6	,	146372	,	-28290	,	-27713	,	-4.048925	,	0
47,6	,	146388	,	-28302	,	-27723	,	-5.761062	,	0
47,6	,	146420	,	-28301	,	-27715	,	-7.0432253	,	0
47,6	,	146436	,	-28313	,	-27717	,	-7.940443	,	0
47,6	,	146452	,	-28315	,	-27726	,	-8.6237755	,	0
47,6	,	146485	,	-28318	,	-27728	,	-9.257205	,	0
47,6	,	146500	,	-28326	,	-27743	,	-9.912447	,	0
47,6	,	146532	,	-28325	,	-27716	,	-10.593953	,	0
47,6	,	146548	,	-28342	,	-27744	,	-11.30698	,	0
47,6	,	146564	,	-28341	,	-27738	,	-12.116414	,	0
47,6	,	146596	,	-28347	,	-27748	,	-13.06631	,	0
47,6	,	146612	,	-28361	,	-27748	,	-14.126194	,	0
47,6	,	146628	,	-28357	,	-27752	,	-15.268697	,	0
47,6	,	146660	,	-28368	,	-27742	,	-16.4182	,	0
47,6	,	146676	,	-28369	,	-27754	,	-17.437246	,	0
47,6	,	146692	,	-28375	,	-27755	,	-18.20775	,	0
47,6	,	146724	,	-28376	,	-27753	,	-18.63282	,	0
47,6	,	146740	,	-28394	,	-27776	,	-18.713476	,	0
47,6	,	146772	,	-28374	,	-27729	,	-18.536894	,	0
47,6	,	146788	,	-28334	,	-27722	,	-17.80466	,	0
47,6	,	146804	,	-28319	,	-27728	,	-15.604486	,	0
47,6	,	146836	,	-28319	,	-27712	,	-11.184673	,	2
47,6	,	146852	,	-28303	,	-27719	,	-4.6833344	,	6
47,6	,	146868	,	-28296	,	-27707	,	3.122108	,	12
47,6	,	146900	,	-28291	,	-27706	,	11.2924795	,	19
47,6	,	146916	,	-28282	,	-27697	,	18.916632	,	27
47,6	,	146948	,	-28281	,	-27697	,	25.252287	,	34
47,6	,	146964	,	-28281	,	-27687	,	29.785568	,	40
47,6	,	146980	,	-28283	,	-27706	,	32.199352	,	44
47,6	,	147012	,	-28268	,	-27675	,	32.47343	,	46
47,6	,	147028	,	-28284	,	-27688	,	30.924904	,	44
47,6	,	147044	,	-28275	,	-27693	,	27.975246	,	40
47,6	,	147076	,	-28276	,	-27693	,	24.053205	,	34
47,6	,	147092	,	-28271	,	-27684	,	19.673725	,	27
47,6	,	147108	,	-28261	,	-27685	,	15.403604	,	19
47,6	,	147140	,	-28251	,	-27686	,	11.817728	,	12
47,6	,	147156	,	-28259	,	-27689	,	9.331385	,	6
47,6	,	147188	,	-28251	,	-27682	,	7.969098	,	2
47,6	,	147204	,	-28265	,	-27682	,	7.410064	,	0
47,7	,	147220	,	-28259	,	-27700	,	7.1848497	,	0
47,7	,	147252	,	-28262	,	-27670	,	6.893421	,	0
47,7	,	147268	,	-28260	,	-27688	,	6.3566494	,	0
47,7	,	147284	,	-28270	,	-27692	,	5.526556	,	0
47,7	,	147316	,	-28280	,	-27684	,	4.3026733	,	0
47,7	,	147332	,	-28278	,	-27692	,	2.555521	,	0
47,7	,	147364	,	-28284	,	-27697	,	0.32274842	,	0
47,7	,	147380	,	-28294	,	-27708	,	-2.210859	,	0
47,7	,	147396	,	-28293	,	-27700	,	-4.8745785	,	0
47,7	,	147428	,	-28298	,	-27705	,	-7.482992	,	0
47,7	,	147444	,	-28302	,	-27710	,	-9.817416	,	0
47,7	,	147460	,	-28297	,	-27723	,	-11.678407	,	0
47,7	,	147492	,	-28314	,	-27698	,	-12.94006	,	0
47,7	,	147508	,	-28324	,	-27709	,	-13.722769	,	0
47,7	,	147524	,	-28320	,	-27707	,	-14.3246765	,	0
47,7	,	147556	,	-28323	,	-27719	,	-14.8575115	,	0
47,7	,	147572	,	-28340	,	-27723	,	-15.275795	,	0
47,7	,	147604	,	-28335	,	-27724	,	-15.628878	,	0
47,7	,	147620	,	-28348	,	-27732	,	-15.981401	,	0
47,7	,	147636	,	-28346	,	-27730	,	-16.317146	,	0
47,7	,	147668	,	-28349	,	-27734	,	-16.56588	,	0
47,7	,	147684	,	-28369	,	-27738	,	-16.69224	,	0
47,7	,	147700	,	-28367	,	-27750	,	-16.825014	,	0
47,7	,	147732	,	-28350	,	-27721	,	-16.993715	,	0
47,7	,	147748	,	-28302	,	-27711	,	-16.59288	,	0
47,7	,	147780	,	-28287	,	-27694	,	-14.426931	,	0
47,7	,	147796	,	-28273	,	-27686	,	-9.577759	,	2
47,7	,	147812	,	-28274	,	-27684	,	-2.1629996	,	6
47,7	,	147844	,	-28262	,	-27677	,	6.7798786	,	13
47,7	,	147860	,	-28257	,	-27676	,	15.916034	,	21
47,7	,	147876	,	-28245	,	-27672	,	24.118752	,	30
47,7	,	147908	,	-28236	,	-27667	,	30.683598	,	38
47,7	,	147924	,	-28247	,	-27656	,	35.239666	,	44
47,7	,	147956	,	-28236	,	-27675	,	37.554615	,	48
47,7	,	147972	,	-28242	,	-27651	,	37.59202	,	50
47,7	,	147988	,	-28248	,	-27663	,	35.552208	,	48
47,7	,	148020	,	-28227	,	-27655	,	31.843525	,	44
47,7	,	148036	,	-28230	,	-27653	,	27.18396	,	37
47,7	,	148051	,	-28217	,	-27655	,	22.425058	,	29
47,7	,	148084	,	-28224	,	-27662	,	18.197937	,	20
47,7	,	148099	,	-28233	,	-27645	,	14.714555	,	12
47,7	,	148115	,	-28211	,	-27647	,	11.892418	,	6
47,7	,	148148	,	-28218	,	-27655	,	9.727778	,	2
47,7	,	148164	,	-28206	,	-27659	,	8.311358	,	0
47,7	,	148196	,	-28231	,	-27646	,	7.528137	,	0
47,8	,	148212	,	-28222	,	-27648	,	6.968208	,	0
47,8	,	148227	,	-28234	,	-27654	,	6.182253	,	0
47,8	,	148260	,	-28234	,	-27654	,	4.924753	,	0
47,8	,	148275	,	-28238	,	-27658	,	3.1518893	,	0
47,8	,	148291	,	-28231	,	-27665	,	1.0223784	,	0
47,8	,	148324	,	-28250	,	-27663	,	-1.2018626	,	0
47,8	,	148340	,	-28258	,	-27662	,	-3.4444866	,	0
47,8	,	148371	,	-28248	,	-27665	,	-5.7519083	,	0
47,8	,	148387	,	-28255	,	-27667	,	-7.952005	,	0
47,8	,	148403	,	-28251	,	-27671	,	-9.718606	,	0
47,8	,	148435	,	-28274	,	-27662	,	-10.919651	,	0
47,8	,	148451	,	-28266	,	-27682	,	-11.716069	,	0
47,8	,	148467	,	-28271	,	-27672	,	-12.287674	,	0
47,8	,	148500	,	-28268	,	-27664	,	-12.614063	,	0
47,8	,	148515	,	-28291	,	-27680	,	-12.684265	,	0
47,8	,	148531	,	-28280	,	-27691	,	-12.66954	,	0
47,8	,	148563	,	-28299	,	-27698	,	-12.7473545	,	0
47,8	,	148579	,	-28287	,	-27689	,	-12.962182	,	0
47,8	,	148611	,	-28297	,	-27698	,	-13.220596	,	0
47,8	,	148627	,	-28295	,	-27699	,	-13.356671	,	0
47,8	,	148643	,	-28315	,	-27714	,	-13.33338	,	0
47,8	,	148675	,	-28321	,	-27693	,	-13.363384	,	0
47,8	,	148692	,	-28326	,	-27726	,	-13.72593	,	0
47,8	,	148707	,	-28314	,	-27696	,	-14.420887	,	0
47,8	,	148739	,	-28269	,	-27689	,	-14.850286	,	0
47,8	,	148755	,	-28264	,	-27677	,	-13.893532	,	0
47,8	,	148787	,	-28247	,	-27664	,	-10.662895	,	0
47,8	,	148803	,	-28238	,	-27668	,	-5.087869	,	3
47,8	,	148819	,	-28218	,	-27654	,	2.2874556	,	8
47,8	,	148851	,	-28208	,	-27653	,	10.689504	,	15
47,8	,	148867	,	-28203	,	-27639	,	19.256115	,	23
47,8	,	148883	,	-28208	,	-27653	,	27.023153	,	31
47,8	,	148915	,	-28194	,	-27632	,	33.078346	,	38
47,8	,	148931	,	-28185	,	-27638	,	36.93915	,	44
47,8	,	148947	,	-28186	,	-27640	,	38.637024	,	47
47,8	,	148979	,	-28189	,	-27648	,	38.38323	,	48
47,8	,	148995	,	-28190	,	-27634	,	36.366234	,	45
47,8	,	149027	,	-28181	,	-27632	,	32.882675	,	40
47,8	,	149043	,	-28179	,	-27637	,	28.463015	,	33
47,8	,	149059	,	-28180	,	-27628	,	23.720604	,	25
47,8	,	149091	,	-28171	,	-27632	,	19.148148	,	17
47,8	,	149107	,	-28168	,	-27626	,	15.133704	,	10
47,8	,	149123	,	-28167	,	-27635	,	11.9584	,	4
47,8	,	149155	,	-28171	,	-27610	,	9.666135	,	1
47,8	,	149171	,	-28170	,	-27634	,	8.06245	,	0
47,8	,	149203	,	-28182	,	-27630	,	6.8353405	,	0
47,9	,	149219	,	-28184	,	-27630	,	5.6313624	,	0
47,9	,	149235	,	-28183	,	-27629	,	4.188482	,	0
47,9	,	149267	,	-28191	,	-27640	,	2.4526675	,	0
47,9	,	149283	,	-28196	,	-27641	,	0.4696648	,	0
47,9	,	149299	,	-28200	,	-27633	,	-1.7192063	,	0
47,9	,	149331	,	-28213	,	-27647	,	-4.074921	,	0
47,9	,	149347	,	-28209	,	-27640	,	-6.545121	,	0
47,9	,	149363	,	-28219	,	-27656	,	-8.99579	,	0
47,9	,	149395	,	-28212	,	-27626	,	-11.19816	,	0
47,9	,	149411	,	-28232	,	-27650	,	-12.953956	,	0
47,9	,	149443	,	-28230	,	-27652	,	-14.2459755	,	0
47,9	,	149459	,	-28224	,	-27669	,	-15.118938	,	0
47,9	,	149475	,	-28241	,	-27659	,	-15.527628	,	0
47,9	,	149507	,	-28243	,	-27653	,	-15.542402	,	0
47,9	,	149523	,	-28233	,	-27673	,	-15.318231	,	0
47,9	,	149539	,	-28253	,	-27674	,	-14.875562	,	0
47,9	,	149571	,	-28267	,	-27682	,	-14.356569	,	0
47,9	,	149587	,	-28274	,	-27668	,	-14.170608	,	0
47,9	,	149619	,	-28290	,	-27694	,	-14.681329	,	0
47,9	,	149635	,	-28265	,	-27654	,	-15.875083	,	0
47,9	,	149651	,	-28241	,	-27658	,	-17.070932	,	0
47,9	,	149683	,	-28226	,	-27648	,	-17.069977	,	0
47,9	,	149699	,	-28222	,	-27640	,	-14.934467	,	0
47,9	,	149715	,	-28194	,	-27633	,	-10.451252	,	2
47,9	,	149747	,	-28194	,	-27640	,	-3.942534	,	6
47,9	,	149763	,	-28185	,	-27634	,	3.880672	,	12
47,9	,	149795	,	-28186	,	-27626	,	11.984745	,	19
47,9	,	149811	,	-28177	,	-27625	,	19.312174	,	27
47,9	,	149827	,	-28169	,	-27630	,	25.11483	,	34
47,9	,	149859	,	-28162	,	-27654	,	29.09153	,	39
47,9	,	149875	,	-28179	,	-27612	,	31.18785	,	42
47,9	,	149891	,	-28192	,	-27621	,	31.241497	,	44
47,9	,	149923	,	-28181	,	-27619	,	29.090113	,	42
47,9	,	149939	,	-28171	,	-27614	,	25.083862	,	38
47,9	,	149955	,	-28176	,	-27626	,	20.101318	,	32
47,9	,	149987	,	-28161	,	-27609	,	15.067877	,	25
47,9	,	150003	,	-28154	,	-27620	,	10.755947	,	17
47,9	,	150035	,	-28160	,	-27610	,	7.693883	,	10
47,9	,	150051	,	-28168	,	-27616	,	5.906049	,	5
47,9	,	150067	,	-28159	,	-27620	,	4.9993744	,	2
47,9	,	150099	,	-28175	,	-27630	,	4.516753	,	0
47,9	,	150115	,	-28171	,	-27611	,	4.0525475	,	0
47,9	,	150131	,	-28173	,	-27625	,	3.3360186	,	0
47,9	,	150163	,	-28171	,	-27615	,	2.345976	,	0
47,9	,	150179	,	-28194	,	-27623	,	1.1208057	,	0
47,10	,	150210	,	-28182	,	-27622	,	-0.41788983	,	0
47,10	,	150227	,	-28184	,	-27624	,	-2.2251565	,	0
47,10	,	150243	,	-28177	,	-27632	,	-3.9726696	,	0
47,10	,	150275	,	-28198	,	-27632	,	-5.3605366	,	0
47,10	,	150291	,	-28215	,	-27638	,	-6.5086865	,	0
47,10	,	150307	,	-28228	,	-27643	,	-7.9255505	,	0
47,10	,	150338	,	-28207	,	-27641	,	-9.922962	,	0
47,10	,	150354	,	-28232	,	-27635	,	-12.238836	,	0
47,10	,	150370	,	-28235	,	-27644	,	-14.48585	,	0
47,10	,	150403	,	-28229	,	-27645	,	-16.470142	,	0
47,10	,	150419	,	-28227	,	-27653	,	-17.920969	,	0
47,10	,	150451	,	-28248	,	-27654	,	-18.581438	,	0
47,10	,	150466	,	-28247	,	-27660	,	-18.562271	,	0
47,10	,	150483	,	-28257	,	-27655	,	-18.200619	,	0
47,10	,	150514	,	-28233	,	-27655	,	-17.638924	,	0
47,10	,	150530	,	-28222	,	-27645	,	-16.57648	,	0
47,10	,	150546	,	-28208	,	-27639	,	-14.44528	,	1
47,10	,	150579	,	-28195	,	-27627	,	-10.8418	,	3
47,10	,	150595	,	-28187	,	-27625	,	-5.7503095	,	6
47,10	,	150626	,	-28172	,	-27612	,	0.4898424	,	11
47,10	,	150642	,	-28149	,	-27593	,	7.419222	,	17
47,10	,	150658	,	-28151	,	-27608	,	14.615661	,	23
47,10	,	150690	,	-28151	,	-27600	,	21.48827	,	30
47,10	,	150706	,	-28151	,	-27597	,	27.214529	,	36
47,10	,	150722	,	-28148	,	-27595	,	31.078224	,	41
47,10	,	150755	,	-28146	,	-27607	,	32.751266	,	43
47,10	,	150771	,	-28158	,	-27597	,	32.253193	,	42
47,10	,	150786	,	-28143	,	-27600	,	29.836914	,	39
47,10	,	150818	,	-28145	,	-27578	,	26.034245	,	34
47,10	,	150834	,	-28145	,	-27600	,	21.540466	,	28
47,10	,	150867	,	-28137	,	-27590	,	16.96768	,	22
47,10	,	150882	,	-28125	,	-27587	,	12.871635	,	15
47,10	,	150899	,	-28140	,	-27588	,	9.691233	,	9
47,10	,	150931	,	-28145	,	-27595	,	7.430666	,	4
47,10	,	150947	,	-28144	,	-27591	,	5.7168455	,	1
47,10	,	150962	,	-28139	,	-27596	,	4.2410564	,	0
47,10	,	150994	,	-28139	,	-27597	,	2.9528148	,	0
47,10	,	151010	,	-28159	,	-27593	,	1.8287358	,	0
47,10	,	151042	,	-28161	,	-27613	,	0.6234009	,	0
47,10	,	151058	,	-28169	,	-27582	,	-0.97517395	,	0
47,10	,	151074	,	-28154	,	-27595	,	-2.9814835	,	0
47,10	,	151106	,	-28167	,	-27609	,	-5.057502	,	0
47,10	,	151123	,	-28180	,	-27609	,	-6.915781	,	0
47,10	,	151138	,	-28182	,	-27611	,	-8.599231	,	0
47,10	,	151170	,	-28181	,	-27616	,	-10.20058	,	0
47,10	,	151186	,	-28196	,	-27611	,	-11.665495	,	0
47,10	,	151202	,	-28202	,	-27618	,	-12.9944515	,	0
47,11	,	151234	,	-28198	,	-27620	,	-14.24217	,	0
47,11	,	151250	,	-28206	,	-27622	,	-15.321005	,	0
47,11	,	151282	,	-28214	,	-27647	,	-16.107948	,	0
47,11	,	151298	,	-28219	,	-27620	,	-16.629688	,	0
47,11	,	151314	,	-28226	,	-27637	,	-16.993587	,	0
47,11	,	151346	,	-28232	,	-27647	,	-17.283737	,	0
