Data recorded on Mon Jul 24 10-59-28 CAT 2017
Time: 10:59:36
Time		Millis		IR PPG		Red PPG		Filtered		SSF
59,45	,	163025	,	-19395	,	-17227	,	-10.318586	,	0
59,45	,	163041	,	-19398	,	-17239	,	-13.0385065	,	0
59,45	,	163073	,	-19405	,	-17242	,	-15.872404	,	0
59,45	,	163089	,	-19423	,	-17235	,	-18.60606	,	0
59,45	,	163105	,	-19421	,	-17248	,	-21.124237	,	0
59,45	,	163137	,	-19429	,	-17243	,	-23.306606	,	0
59,45	,	163153	,	-19436	,	-17249	,	-24.969898	,	0
59,45	,	163169	,	-19438	,	-17247	,	-25.991323	,	0
59,45	,	163201	,	-19449	,	-17252	,	-26.347528	,	0
59,45	,	163217	,	-19460	,	-17263	,	-26.153116	,	0
59,45	,	163233	,	-19461	,	-17265	,	-25.639465	,	0
59,45	,	163265	,	-19478	,	-17268	,	-25.025871	,	0
59,45	,	163281	,	-19480	,	-17262	,	-24.494358	,	0
59,45	,	163313	,	-19481	,	-17276	,	-24.116074	,	0
59,45	,	163329	,	-19500	,	-17275	,	-23.830902	,	0
59,45	,	163345	,	-19511	,	-17282	,	-23.685547	,	0
59,45	,	163377	,	-19508	,	-17281	,	-23.810303	,	0
59,45	,	163393	,	-19510	,	-17289	,	-24.103477	,	0
59,45	,	163409	,	-19519	,	-17279	,	-24.27116	,	0
59,45	,	163441	,	-19533	,	-17292	,	-24.172752	,	0
59,45	,	163458	,	-19541	,	-17292	,	-23.941704	,	0
59,45	,	163489	,	-19543	,	-17287	,	-23.763683	,	0
59,45	,	163505	,	-19511	,	-17282	,	-23.478752	,	0
59,45	,	163521	,	-19475	,	-17261	,	-22.264105	,	0
59,45	,	163553	,	-19435	,	-17247	,	-18.822113	,	1
59,45	,	163569	,	-19408	,	-17253	,	-12.070059	,	4
59,45	,	163585	,	-19397	,	-17233	,	-1.8290615	,	10
59,45	,	163617	,	-19385	,	-17240	,	10.943584	,	20
59,45	,	163633	,	-19375	,	-17239	,	24.557613	,	32
59,45	,	163665	,	-19376	,	-17223	,	37.198826	,	45
59,45	,	163681	,	-19364	,	-17223	,	47.34536	,	57
59,45	,	163697	,	-19345	,	-17225	,	54.14831	,	67
59,45	,	163729	,	-19337	,	-17223	,	57.596336	,	73
59,45	,	163745	,	-19334	,	-17227	,	58.166935	,	75
59,45	,	163761	,	-19341	,	-17220	,	56.34197	,	72
59,45	,	163793	,	-19338	,	-17230	,	52.457016	,	66
59,45	,	163809	,	-19338	,	-17229	,	46.87307	,	56
59,45	,	163825	,	-19332	,	-17227	,	40.143627	,	44
59,45	,	163857	,	-19335	,	-17230	,	32.94683	,	31
59,45	,	163873	,	-19328	,	-17233	,	25.910353	,	19
59,45	,	163904	,	-19333	,	-17207	,	19.514029	,	9
59,45	,	163920	,	-19336	,	-17229	,	14.019371	,	3
59,45	,	163937	,	-19340	,	-17232	,	9.447463	,	0
59,45	,	163969	,	-19346	,	-17233	,	5.667433	,	0
59,45	,	163985	,	-19353	,	-17235	,	2.4709382	,	0
59,45	,	164001	,	-19374	,	-17240	,	-0.44797373	,	0
59,46	,	164033	,	-19364	,	-17248	,	-3.4047828	,	0
59,46	,	164049	,	-19387	,	-17246	,	-6.50984	,	0
59,46	,	164081	,	-19392	,	-17254	,	-9.732516	,	0
59,46	,	164097	,	-19398	,	-17257	,	-13.02851	,	0
59,46	,	164113	,	-19402	,	-17262	,	-16.229618	,	0
59,46	,	164144	,	-19420	,	-17254	,	-19.114626	,	0
59,46	,	164160	,	-19425	,	-17269	,	-21.61287	,	0
59,46	,	164177	,	-19437	,	-17269	,	-23.766117	,	0
59,46	,	164209	,	-19441	,	-17264	,	-25.588778	,	0
59,46	,	164225	,	-19447	,	-17281	,	-27.020504	,	0
59,46	,	164241	,	-19452	,	-17279	,	-27.953773	,	0
59,46	,	164273	,	-19461	,	-17279	,	-28.320997	,	0
59,46	,	164289	,	-19464	,	-17277	,	-28.149773	,	0
59,46	,	164320	,	-19473	,	-17291	,	-27.532757	,	0
59,46	,	164336	,	-19481	,	-17289	,	-26.617214	,	0
59,46	,	164353	,	-19500	,	-17299	,	-25.651499	,	0
59,46	,	164385	,	-19506	,	-17275	,	-24.96445	,	0
59,46	,	164401	,	-19511	,	-17301	,	-24.76686	,	0
59,46	,	164417	,	-19521	,	-17303	,	-25.01044	,	0
59,46	,	164448	,	-19540	,	-17308	,	-25.574532	,	0
59,46	,	164465	,	-19524	,	-17314	,	-26.350933	,	0
59,46	,	164496	,	-19538	,	-17319	,	-27.035717	,	0
59,46	,	164512	,	-19548	,	-17314	,	-27.291641	,	0
59,46	,	164529	,	-19562	,	-17320	,	-27.122929	,	0
59,46	,	164560	,	-19570	,	-17324	,	-26.80069	,	0
59,46	,	164576	,	-19565	,	-17318	,	-26.515295	,	0
59,46	,	164593	,	-19548	,	-17327	,	-26.0736	,	0
59,46	,	164624	,	-19517	,	-17286	,	-24.785603	,	0
59,46	,	164640	,	-19442	,	-17274	,	-21.435421	,	1
59,46	,	164656	,	-19435	,	-17260	,	-14.617975	,	4
59,46	,	164688	,	-19415	,	-17263	,	-3.833727	,	10
59,46	,	164704	,	-19408	,	-17264	,	9.8948345	,	20
59,46	,	164737	,	-19406	,	-17262	,	24.592028	,	33
59,46	,	164752	,	-19409	,	-17257	,	38.069897	,	47
59,46	,	164768	,	-19408	,	-17257	,	48.457687	,	60
59,46	,	164800	,	-19397	,	-17257	,	54.65972	,	70
59,46	,	164816	,	-19386	,	-17251	,	56.585777	,	76
59,46	,	164832	,	-19392	,	-17260	,	54.909256	,	76
59,46	,	164864	,	-19392	,	-17236	,	50.505894	,	73
59,46	,	164880	,	-19394	,	-17247	,	44.168007	,	67
59,46	,	164912	,	-19399	,	-17259	,	36.631386	,	57
59,46	,	164928	,	-19392	,	-17251	,	28.609606	,	44
59,46	,	164944	,	-19395	,	-17248	,	20.800188	,	30
59,46	,	164977	,	-19379	,	-17247	,	13.864866	,	17
59,46	,	164992	,	-19393	,	-17247	,	8.319262	,	7
59,46	,	165008	,	-19382	,	-17254	,	4.3558464	,	1
59,47	,	165040	,	-19394	,	-17252	,	1.8349552	,	0
59,47	,	165056	,	-19390	,	-17263	,	0.42173386	,	0
59,47	,	165072	,	-19408	,	-17266	,	-0.3440292	,	0
59,47	,	165105	,	-19406	,	-17238	,	-0.97062385	,	0
59,47	,	165120	,	-19434	,	-17256	,	-1.93635	,	0
59,47	,	165152	,	-19440	,	-17261	,	-3.6823862	,	0
59,47	,	165168	,	-19439	,	-17263	,	-6.412775	,	0
59,47	,	165184	,	-19456	,	-17271	,	-9.900234	,	0
59,47	,	165216	,	-19460	,	-17278	,	-13.730879	,	0
59,47	,	165232	,	-19466	,	-17271	,	-17.52218	,	0
59,47	,	165248	,	-19477	,	-17270	,	-20.92512	,	0
59,47	,	165280	,	-19466	,	-17280	,	-23.625523	,	0
59,47	,	165296	,	-19478	,	-17278	,	-25.309843	,	0
59,47	,	165328	,	-19483	,	-17290	,	-25.82174	,	0
59,47	,	165344	,	-19495	,	-17272	,	-25.350918	,	0
59,47	,	165360	,	-19490	,	-17279	,	-24.266895	,	0
59,47	,	165392	,	-19500	,	-17285	,	-22.851707	,	1
59,47	,	165408	,	-19515	,	-17287	,	-21.341885	,	2
59,47	,	165424	,	-19517	,	-17289	,	-20.050722	,	3
59,47	,	165458	,	-19519	,	-17292	,	-19.187096	,	4
59,47	,	165472	,	-19523	,	-17287	,	-18.695198	,	4
59,47	,	165504	,	-19526	,	-17301	,	-18.3812	,	4
59,47	,	165520	,	-19545	,	-17299	,	-18.139309	,	4
59,47	,	165536	,	-19541	,	-17294	,	-18.034882	,	4
59,47	,	165568	,	-19553	,	-17314	,	-18.13512	,	4
59,47	,	165584	,	-19561	,	-17290	,	-18.431305	,	3
59,47	,	165600	,	-19575	,	-17304	,	-18.963188	,	2
59,47	,	165632	,	-19584	,	-17303	,	-19.829899	,	1
59,47	,	165648	,	-19575	,	-17303	,	-20.988794	,	0
59,47	,	165664	,	-19546	,	-17287	,	-21.93151	,	0
59,47	,	165696	,	-19533	,	-17280	,	-21.669716	,	0
59,47	,	165712	,	-19475	,	-17261	,	-19.083473	,	0
59,47	,	165744	,	-19458	,	-17253	,	-13.230358	,	2
59,47	,	165760	,	-19436	,	-17245	,	-3.8268433	,	7
59,47	,	165776	,	-19430	,	-17243	,	8.344931	,	16
59,47	,	165808	,	-19417	,	-17247	,	21.704319	,	28
59,47	,	165824	,	-19419	,	-17226	,	34.436142	,	41
59,47	,	165840	,	-19403	,	-17224	,	44.961823	,	53
59,47	,	165872	,	-19409	,	-17227	,	52.26249	,	63
59,47	,	165888	,	-19401	,	-17218	,	55.911526	,	70
59,47	,	165920	,	-19394	,	-17227	,	56.014202	,	73
59,47	,	165936	,	-19401	,	-17230	,	53.115677	,	71
59,47	,	165952	,	-19402	,	-17229	,	47.907604	,	66
59,47	,	165984	,	-19398	,	-17230	,	41.080177	,	57
59,47	,	166000	,	-19393	,	-17227	,	33.426464	,	45
59,47	,	166016	,	-19392	,	-17230	,	25.80029	,	32
59,48	,	166048	,	-19394	,	-17233	,	18.886236	,	20
59,48	,	166064	,	-19393	,	-17220	,	13.053604	,	10
59,48	,	166080	,	-19396	,	-17232	,	8.406607	,	3
59,48	,	166112	,	-19399	,	-17233	,	4.875678	,	0
59,48	,	166128	,	-19403	,	-17239	,	2.2611017	,	0
59,48	,	166160	,	-19424	,	-17249	,	0.21217799	,	0
59,48	,	166176	,	-19413	,	-17240	,	-1.6971972	,	0
59,48	,	166192	,	-19421	,	-17246	,	-3.6623583	,	0
59,48	,	166224	,	-19427	,	-17246	,	-5.6049523	,	0
59,48	,	166240	,	-19424	,	-17249	,	-7.4081345	,	0
59,48	,	166256	,	-19438	,	-17256	,	-8.988687	,	0
59,48	,	166288	,	-19449	,	-17263	,	-10.392794	,	0
59,48	,	166304	,	-19455	,	-17263	,	-11.825225	,	0
59,48	,	166336	,	-19468	,	-17256	,	-13.465937	,	0
59,48	,	166352	,	-19461	,	-17261	,	-15.318024	,	0
59,48	,	166368	,	-19483	,	-17263	,	-17.213062	,	0
59,48	,	166400	,	-19481	,	-17273	,	-18.992231	,	0
59,48	,	166416	,	-19488	,	-17270	,	-20.548227	,	0
59,48	,	166432	,	-19482	,	-17267	,	-21.683386	,	0
59,48	,	166463	,	-19490	,	-17280	,	-22.151737	,	0
59,48	,	166480	,	-19497	,	-17275	,	-21.869057	,	0
59,48	,	166496	,	-19496	,	-17280	,	-20.969982	,	0
59,48	,	166528	,	-19500	,	-17281	,	-19.6392	,	0
59,48	,	166544	,	-19508	,	-17284	,	-18.053665	,	1
59,48	,	166576	,	-19517	,	-17286	,	-16.478607	,	2
59,48	,	166591	,	-19514	,	-17287	,	-15.186494	,	3
59,48	,	166608	,	-19528	,	-17300	,	-14.303533	,	4
59,48	,	166640	,	-19537	,	-17295	,	-13.896551	,	4
59,48	,	166656	,	-19542	,	-17293	,	-14.054838	,	4
59,48	,	166671	,	-19542	,	-17304	,	-14.731533	,	4
59,48	,	166704	,	-19528	,	-17299	,	-15.584862	,	4
59,48	,	166720	,	-19486	,	-17283	,	-15.836113	,	4
59,48	,	166752	,	-19447	,	-17269	,	-14.22706	,	3
59,48	,	166768	,	-19428	,	-17249	,	-9.544249	,	3
59,48	,	166784	,	-19403	,	-17248	,	-1.401556	,	6
59,48	,	166816	,	-19382	,	-17249	,	9.607044	,	13
59,48	,	166832	,	-19370	,	-17242	,	22.273031	,	24
59,48	,	166847	,	-19370	,	-17241	,	35.040283	,	36
59,48	,	166879	,	-19369	,	-17240	,	46.21386	,	48
59,48	,	166895	,	-19355	,	-17232	,	54.400112	,	59
59,48	,	166928	,	-19362	,	-17231	,	58.895927	,	67
59,48	,	166944	,	-19360	,	-17231	,	59.603516	,	71
59,48	,	166960	,	-19357	,	-17232	,	56.837418	,	70
59,48	,	166991	,	-19358	,	-17244	,	51.29412	,	66
59,48	,	167007	,	-19361	,	-17228	,	43.87708	,	58
59,48	,	167023	,	-19359	,	-17230	,	35.47159	,	47
59,49	,	167056	,	-19352	,	-17230	,	26.923046	,	35
59,49	,	167072	,	-19353	,	-17230	,	19.030085	,	23
59,49	,	167088	,	-19350	,	-17229	,	12.391497	,	12
59,49	,	167120	,	-19353	,	-17236	,	7.285326	,	4
59,49	,	167136	,	-19367	,	-17240	,	3.6208744	,	0
59,49	,	167167	,	-19372	,	-17245	,	0.9682212	,	0
59,49	,	167183	,	-19374	,	-17236	,	-1.174891	,	0
59,49	,	167199	,	-19381	,	-17245	,	-3.1213505	,	0
59,49	,	167231	,	-19379	,	-17248	,	-4.9789543	,	0
59,49	,	167248	,	-19397	,	-17237	,	-6.767906	,	0
59,49	,	167264	,	-19413	,	-17255	,	-8.628358	,	0
59,49	,	167296	,	-19414	,	-17258	,	-10.808761	,	0
59,49	,	167312	,	-19422	,	-17254	,	-13.352255	,	0
59,49	,	167343	,	-19428	,	-17263	,	-16.03616	,	0
59,49	,	167359	,	-19435	,	-17262	,	-18.585703	,	0
59,49	,	167375	,	-19438	,	-17267	,	-20.770838	,	0
59,49	,	167408	,	-19453	,	-17271	,	-22.447668	,	0
59,49	,	167424	,	-19450	,	-17274	,	-23.59058	,	0
59,49	,	167439	,	-19460	,	-17268	,	-24.202265	,	0
59,49	,	167471	,	-19468	,	-17280	,	-24.30916	,	0
59,49	,	167488	,	-19463	,	-17267	,	-23.995453	,	0
59,49	,	167504	,	-19484	,	-17283	,	-23.350878	,	0
59,49	,	167535	,	-19490	,	-17288	,	-22.573074	,	0
59,49	,	167551	,	-19483	,	-17284	,	-21.893063	,	0
59,49	,	167583	,	-19494	,	-17285	,	-21.299347	,	0
59,49	,	167599	,	-19502	,	-17288	,	-20.683956	,	0
59,49	,	167615	,	-19507	,	-17291	,	-20.085014	,	0
59,49	,	167648	,	-19526	,	-17297	,	-19.65047	,	0
59,49	,	167663	,	-19530	,	-17291	,	-19.584202	,	0
59,49	,	167679	,	-19533	,	-17297	,	-19.993835	,	0
59,49	,	167711	,	-19557	,	-17314	,	-20.81995	,	0
59,49	,	167727	,	-19548	,	-17290	,	-21.975077	,	0
59,49	,	167759	,	-19563	,	-17303	,	-23.286572	,	0
59,49	,	167775	,	-19540	,	-17293	,	-24.366373	,	0
59,49	,	167792	,	-19495	,	-17276	,	-24.421165	,	0
59,49	,	167823	,	-19458	,	-17265	,	-22.13667	,	0
59,49	,	167839	,	-19436	,	-17249	,	-16.298855	,	2
59,49	,	167855	,	-19412	,	-17244	,	-6.6373405	,	7
59,49	,	167887	,	-19403	,	-17242	,	6.009225	,	16
59,49	,	167903	,	-19392	,	-17226	,	20.043528	,	28
59,49	,	167935	,	-19377	,	-17232	,	33.652973	,	42
59,49	,	167951	,	-19382	,	-17239	,	45.27052	,	55
59,49	,	167967	,	-19373	,	-17206	,	53.731594	,	66
59,49	,	167999	,	-19347	,	-17225	,	58.509804	,	74
59,49	,	168015	,	-19344	,	-17219	,	59.915924	,	78
59,50	,	168031	,	-19351	,	-17223	,	58.63481	,	77
59,50	,	168063	,	-19351	,	-17219	,	55.153408	,	72
59,50	,	168079	,	-19350	,	-17227	,	49.822926	,	63
59,50	,	168095	,	-19353	,	-17216	,	43.113995	,	51
59,50	,	168127	,	-19350	,	-17217	,	35.61195	,	37
59,50	,	168143	,	-19336	,	-17224	,	28.000206	,	24
59,50	,	168175	,	-19336	,	-17214	,	21.050419	,	13
59,50	,	168191	,	-19352	,	-17230	,	15.282461	,	5
59,50	,	168207	,	-19354	,	-17202	,	10.65571	,	1
59,50	,	168239	,	-19367	,	-17221	,	6.7823076	,	0
59,50	,	168255	,	-19373	,	-17217	,	3.253058	,	0
59,50	,	168271	,	-19371	,	-17219	,	-0.17997026	,	0
59,50	,	168303	,	-19386	,	-17223	,	-3.5300667	,	0
59,50	,	168319	,	-19385	,	-17221	,	-6.714696	,	0
59,50	,	168351	,	-19389	,	-17232	,	-9.622808	,	0
59,50	,	168367	,	-19414	,	-17229	,	-12.1857195	,	0
59,50	,	168383	,	-19407	,	-17232	,	-14.511579	,	0
59,50	,	168415	,	-19416	,	-17232	,	-16.667461	,	0
59,50	,	168431	,	-19427	,	-17243	,	-18.553291	,	0
59,50	,	168447	,	-19426	,	-17229	,	-20.0888	,	0
59,50	,	168479	,	-19445	,	-17242	,	-21.265581	,	0
59,50	,	168495	,	-19450	,	-17242	,	-22.17112	,	0
59,50	,	168511	,	-19459	,	-17247	,	-22.955952	,	0
59,50	,	168543	,	-19454	,	-17252	,	-23.639603	,	0
59,50	,	168559	,	-19477	,	-17259	,	-24.12387	,	0
59,50	,	168591	,	-19488	,	-17256	,	-24.475695	,	0
59,50	,	168607	,	-19489	,	-17254	,	-24.912518	,	0
59,50	,	168623	,	-19483	,	-17254	,	-25.404352	,	0
59,50	,	168655	,	-19491	,	-17266	,	-25.608456	,	0
59,50	,	168671	,	-19497	,	-17275	,	-25.25081	,	0
59,50	,	168687	,	-19505	,	-17267	,	-24.355713	,	0
59,50	,	168719	,	-19529	,	-17273	,	-23.233002	,	0
59,50	,	168735	,	-19522	,	-17281	,	-22.325356	,	1
59,50	,	168767	,	-19541	,	-17286	,	-21.89832	,	1
59,50	,	168783	,	-19543	,	-17292	,	-21.968071	,	1
59,50	,	168799	,	-19542	,	-17291	,	-22.39191	,	1
59,50	,	168831	,	-19563	,	-17296	,	-22.933498	,	1
59,50	,	168847	,	-19561	,	-17291	,	-23.458755	,	1
59,50	,	168863	,	-19557	,	-17292	,	-23.858679	,	1
59,50	,	168895	,	-19526	,	-17282	,	-23.693409	,	1
59,50	,	168911	,	-19484	,	-17258	,	-22.02459	,	1
59,50	,	168927	,	-19434	,	-17241	,	-17.57314	,	1
59,50	,	168959	,	-19409	,	-17235	,	-9.30375	,	5
59,50	,	168975	,	-19392	,	-17235	,	2.8199787	,	13
59,50	,	169006	,	-19381	,	-17230	,	17.593739	,	25
59,50	,	169023	,	-19373	,	-17222	,	33.032814	,	39
59,51	,	169039	,	-19380	,	-17224	,	46.99009	,	54
59,51	,	169071	,	-19360	,	-17230	,	57.681816	,	67
59,51	,	169087	,	-19346	,	-17223	,	64.220924	,	77
59,51	,	169103	,	-19345	,	-17215	,	66.695404	,	83
59,51	,	169134	,	-19341	,	-17220	,	65.66109	,	84
59,51	,	169150	,	-19349	,	-17221	,	61.730064	,	80
59,51	,	169183	,	-19340	,	-17216	,	55.53125	,	72
59,51	,	169199	,	-19337	,	-17217	,	47.83626	,	60
59,51	,	169215	,	-19332	,	-17223	,	39.553665	,	46
59,51	,	169247	,	-19331	,	-17220	,	31.515371	,	31
59,51	,	169263	,	-19327	,	-17218	,	24.324703	,	18
59,51	,	169279	,	-19331	,	-17216	,	18.317694	,	8
59,51	,	169310	,	-19324	,	-17223	,	13.580983	,	2
59,51	,	169327	,	-19324	,	-17212	,	10.06803	,	0
59,51	,	169358	,	-19327	,	-17227	,	7.64571	,	0
59,51	,	169375	,	-19341	,	-17232	,	5.984896	,	0
59,51	,	169391	,	-19348	,	-17223	,	4.556849	,	0
59,51	,	169423	,	-19353	,	-17235	,	2.86388	,	0
59,51	,	169440	,	-19369	,	-17239	,	0.6125934	,	0
59,51	,	169455	,	-19376	,	-17239	,	-2.32945	,	0
59,51	,	169486	,	-19377	,	-17240	,	-5.9021993	,	0
59,51	,	169502	,	-19392	,	-17244	,	-9.809714	,	0
59,51	,	169518	,	-19406	,	-17238	,	-13.752396	,	0
59,51	,	169551	,	-19405	,	-17243	,	-17.54758	,	0
59,51	,	169567	,	-19415	,	-17247	,	-20.963894	,	0
59,51	,	169599	,	-19413	,	-17255	,	-23.697832	,	0
59,51	,	169615	,	-19425	,	-17256	,	-25.52134	,	0
59,51	,	169631	,	-19442	,	-17248	,	-26.456184	,	0
59,51	,	169662	,	-19437	,	-17255	,	-26.765072	,	0
59,51	,	169678	,	-19461	,	-17257	,	-26.720589	,	0
59,51	,	169694	,	-19454	,	-17267	,	-26.520248	,	0
59,51	,	169727	,	-19470	,	-17275	,	-26.273048	,	0
59,51	,	169743	,	-19467	,	-17276	,	-25.97657	,	0
59,51	,	169775	,	-19460	,	-17277	,	-25.491531	,	0
59,51	,	169790	,	-19494	,	-17280	,	-24.668316	,	0
59,51	,	169806	,	-19485	,	-17282	,	-23.66148	,	0
59,51	,	169838	,	-19491	,	-17283	,	-22.733543	,	1
59,51	,	169855	,	-19505	,	-17296	,	-21.948792	,	1
59,51	,	169871	,	-19509	,	-17270	,	-21.354849	,	1
59,51	,	169902	,	-19507	,	-17278	,	-20.981007	,	1
59,51	,	169918	,	-19471	,	-17265	,	-20.480825	,	1
59,51	,	169935	,	-19442	,	-17250	,	-18.92744	,	1
59,51	,	169967	,	-19403	,	-17238	,	-15.114415	,	2
59,51	,	169982	,	-19398	,	-17235	,	-8.265461	,	5
59,51	,	170014	,	-19382	,	-17237	,	1.3860254	,	11
59,52	,	170030	,	-19372	,	-17234	,	12.69277	,	19
59,52	,	170046	,	-19361	,	-17233	,	24.18867	,	30
59,52	,	170079	,	-19352	,	-17228	,	34.549213	,	41
59,52	,	170095	,	-19351	,	-17230	,	42.769028	,	51
59,52	,	170110	,	-19351	,	-17202	,	48.1738	,	59
59,52	,	170143	,	-19342	,	-17215	,	50.45884	,	64
59,52	,	170158	,	-19338	,	-17209	,	49.8038	,	65
59,52	,	170190	,	-19352	,	-17218	,	46.708305	,	62
59,52	,	170206	,	-19348	,	-17216	,	41.668434	,	56
59,52	,	170222	,	-19359	,	-17223	,	35.157593	,	47
59,52	,	170254	,	-19347	,	-17220	,	27.766758	,	36
59,52	,	170270	,	-19342	,	-17220	,	20.274307	,	25
59,52	,	170286	,	-19338	,	-17209	,	13.538082	,	15
59,52	,	170318	,	-19339	,	-17216	,	8.184716	,	7
59,52	,	170334	,	-19346	,	-17224	,	4.3949995	,	2
59,52	,	170350	,	-19352	,	-17203	,	1.9250369	,	0
59,52	,	170382	,	-19359	,	-17223	,	0.28755116	,	0
59,52	,	170398	,	-19365	,	-17227	,	-1.0244374	,	0
59,52	,	170430	,	-19368	,	-17227	,	-2.3764467	,	0
59,52	,	170446	,	-19388	,	-17229	,	-3.99616	,	0
59,52	,	170462	,	-19391	,	-17232	,	-6.075712	,	0
59,52	,	170494	,	-19385	,	-17236	,	-8.618994	,	0
59,52	,	170510	,	-19398	,	-17238	,	-11.300717	,	0
59,52	,	170526	,	-19401	,	-17239	,	-13.7556	,	0
59,52	,	170558	,	-19416	,	-17233	,	-15.845868	,	0
59,52	,	170574	,	-19420	,	-17248	,	-17.617374	,	0
59,52	,	170606	,	-19416	,	-17225	,	-19.09082	,	0
59,52	,	170622	,	-19430	,	-17248	,	-20.155119	,	0
59,52	,	170638	,	-19445	,	-17255	,	-20.805935	,	0
59,52	,	170670	,	-19437	,	-17254	,	-21.218815	,	0
59,52	,	170686	,	-19450	,	-17260	,	-21.46565	,	0
59,52	,	170702	,	-19454	,	-17254	,	-21.51025	,	0
59,52	,	170734	,	-19455	,	-17251	,	-21.350616	,	0
59,52	,	170750	,	-19468	,	-17258	,	-21.000683	,	0
59,52	,	170766	,	-19470	,	-17262	,	-20.533363	,	0
59,52	,	170798	,	-19480	,	-17265	,	-20.074116	,	0
59,52	,	170814	,	-19491	,	-17269	,	-19.745789	,	0
59,52	,	170846	,	-19496	,	-17245	,	-19.670797	,	0
59,52	,	170862	,	-19503	,	-17262	,	-19.897165	,	0
59,52	,	170878	,	-19485	,	-17256	,	-20.245575	,	0
59,52	,	170910	,	-19454	,	-17229	,	-20.095219	,	0
59,52	,	170926	,	-19405	,	-17214	,	-18.286764	,	0
59,52	,	170942	,	-19386	,	-17212	,	-13.543007	,	1
59,52	,	170974	,	-19374	,	-17200	,	-5.340336	,	5
59,52	,	170990	,	-19359	,	-17200	,	5.6517572	,	13
59,52	,	171022	,	-19353	,	-17196	,	17.974894	,	23
59,53	,	171038	,	-19341	,	-17190	,	29.989779	,	35
59,53	,	171054	,	-19338	,	-17197	,	40.274612	,	47
59,53	,	171086	,	-19332	,	-17166	,	47.8266	,	57
59,53	,	171102	,	-19322	,	-17179	,	52.162308	,	64
59,53	,	171118	,	-19317	,	-17184	,	53.35527	,	68
59,53	,	171150	,	-19327	,	-17179	,	51.812412	,	68
59,53	,	171166	,	-19321	,	-17181	,	47.98532	,	64
59,53	,	171198	,	-19326	,	-17185	,	42.37992	,	56
59,53	,	171214	,	-19331	,	-17186	,	35.584694	,	46
59,53	,	171230	,	-19322	,	-17191	,	28.210045	,	34
59,53	,	171262	,	-19318	,	-17193	,	20.950079	,	22
59,53	,	171278	,	-19309	,	-17191	,	14.547159	,	12
59,53	,	171294	,	-19313	,	-17196	,	9.552211	,	5
59,53	,	171326	,	-19325	,	-17161	,	6.0636215	,	1
59,53	,	171342	,	-19333	,	-17199	,	3.673987	,	0
59,53	,	171358	,	-19333	,	-17203	,	1.7895932	,	0
59,53	,	171390	,	-19352	,	-17207	,	-0.054832935	,	0
59,53	,	171406	,	-19345	,	-17210	,	-2.1426928	,	0
59,53	,	171438	,	-19361	,	-17208	,	-4.5409975	,	0
59,53	,	171454	,	-19359	,	-17203	,	-7.139051	,	0
59,53	,	171470	,	-19368	,	-17215	,	-9.759493	,	0
59,53	,	171502	,	-19379	,	-17215	,	-12.244854	,	0
59,53	,	171518	,	-19381	,	-17218	,	-14.52709	,	0
59,53	,	171534	,	-19388	,	-17233	,	-16.553017	,	0
59,53	,	171566	,	-19395	,	-17224	,	-18.238525	,	0
59,53	,	171582	,	-19411	,	-17232	,	-19.589321	,	0
59,53	,	171613	,	-19409	,	-17231	,	-20.712063	,	0
59,53	,	171630	,	-19410	,	-17240	,	-21.607325	,	0
59,53	,	171645	,	-19419	,	-17241	,	-22.12075	,	0
59,53	,	171677	,	-19423	,	-17241	,	-22.166954	,	0
59,53	,	171693	,	-19415	,	-17240	,	-21.744884	,	0
59,53	,	171710	,	-19437	,	-17246	,	-20.859972	,	0
59,53	,	171742	,	-19430	,	-17249	,	-19.655088	,	0
59,53	,	171758	,	-19433	,	-17252	,	-18.323986	,	1
59,53	,	171774	,	-19446	,	-17256	,	-16.97453	,	2
59,53	,	171806	,	-19461	,	-17250	,	-15.830813	,	3
59,53	,	171822	,	-19461	,	-17261	,	-15.232672	,	4
59,53	,	171853	,	-19476	,	-17263	,	-15.354866	,	4
59,53	,	171869	,	-19484	,	-17264	,	-16.18319	,	4
59,53	,	171886	,	-19492	,	-17266	,	-17.618666	,	4
59,53	,	171918	,	-19490	,	-17271	,	-19.417587	,	4
59,53	,	171934	,	-19473	,	-17263	,	-21.069073	,	4
59,53	,	171950	,	-19440	,	-17256	,	-21.695988	,	3
59,53	,	171982	,	-19395	,	-17237	,	-20.079275	,	2
59,53	,	171997	,	-19363	,	-17235	,	-15.016385	,	2
59,53	,	172029	,	-19352	,	-17233	,	-6.0276613	,	6
59,54	,	172045	,	-19339	,	-17217	,	6.149214	,	14
59,54	,	172062	,	-19314	,	-17209	,	19.917658	,	26
59,54	,	172093	,	-19321	,	-17206	,	33.523186	,	39
59,54	,	172109	,	-19298	,	-17204	,	45.389717	,	52
59,54	,	172125	,	-19301	,	-17208	,	54.355213	,	63
59,54	,	172157	,	-19299	,	-17199	,	59.775173	,	71
59,54	,	172173	,	-19299	,	-17196	,	61.41381	,	76
59,54	,	172190	,	-19286	,	-17195	,	59.51254	,	76
59,54	,	172222	,	-19286	,	-17204	,	54.832054	,	71
59,54	,	172238	,	-19290	,	-17200	,	48.33046	,	63
59,54	,	172269	,	-19289	,	-17195	,	40.81736	,	51
59,54	,	172285	,	-19293	,	-17193	,	32.915173	,	38
59,54	,	172301	,	-19293	,	-17200	,	25.128166	,	25
59,54	,	172333	,	-19293	,	-17203	,	17.872248	,	14
59,54	,	172349	,	-19287	,	-17202	,	11.522212	,	6
59,54	,	172365	,	-19300	,	-17209	,	6.350233	,	1
59,54	,	172398	,	-19300	,	-17210	,	2.3632193	,	0
59,54	,	172414	,	-19310	,	-17211	,	-0.6788173	,	0
59,54	,	172445	,	-19314	,	-17214	,	-3.091151	,	0
59,54	,	172461	,	-19319	,	-17214	,	-5.1385283	,	0
59,54	,	172478	,	-19320	,	-17225	,	-6.956895	,	0
59,54	,	172509	,	-19334	,	-17218	,	-8.596683	,	0
59,54	,	172525	,	-19335	,	-17226	,	-10.132278	,	0
59,54	,	172541	,	-19357	,	-17230	,	-11.697639	,	0
59,54	,	172573	,	-19357	,	-17230	,	-13.462251	,	0
59,54	,	172589	,	-19367	,	-17231	,	-15.493019	,	0
59,54	,	172605	,	-19372	,	-17234	,	-17.663248	,	0
59,54	,	172637	,	-19386	,	-17239	,	-19.791607	,	0
59,54	,	172653	,	-19384	,	-17238	,	-21.738644	,	0
59,54	,	172685	,	-19395	,	-17239	,	-23.35014	,	0
59,54	,	172701	,	-19406	,	-17242	,	-24.5201	,	0
59,54	,	172717	,	-19404	,	-17256	,	-25.257095	,	0
59,54	,	172749	,	-19418	,	-17241	,	-25.582253	,	0
59,54	,	172765	,	-19428	,	-17252	,	-25.567526	,	0
59,54	,	172781	,	-19447	,	-17255	,	-25.46092	,	0
59,54	,	172813	,	-19447	,	-17263	,	-25.561182	,	0
59,54	,	172829	,	-19456	,	-17264	,	-25.967226	,	0
59,54	,	172861	,	-19463	,	-17267	,	-26.550241	,	0
59,54	,	172877	,	-19467	,	-17267	,	-27.109562	,	0
59,54	,	172893	,	-19482	,	-17276	,	-27.491632	,	0
59,54	,	172925	,	-19476	,	-17276	,	-27.617565	,	0
59,54	,	172941	,	-19480	,	-17267	,	-27.367683	,	0
59,54	,	172958	,	-19501	,	-17282	,	-26.654362	,	0
59,54	,	172989	,	-19507	,	-17267	,	-25.68958	,	0
59,54	,	173005	,	-19518	,	-17279	,	-24.85959	,	0
59,55	,	173037	,	-19524	,	-17291	,	-24.405418	,	0
59,55	,	173053	,	-19523	,	-17285	,	-24.317577	,	0
59,55	,	173069	,	-19521	,	-17279	,	-24.328548	,	0
59,55	,	173101	,	-19481	,	-17261	,	-23.835732	,	0
59,55	,	173117	,	-19429	,	-17245	,	-21.706636	,	0
59,55	,	173133	,	-19398	,	-17242	,	-16.503883	,	2
59,55	,	173165	,	-19399	,	-17219	,	-7.4998245	,	7
59,55	,	173181	,	-19370	,	-17222	,	4.635248	,	16
59,55	,	173197	,	-19363	,	-17231	,	18.337893	,	28
59,55	,	173229	,	-19353	,	-17201	,	31.885769	,	41
59,55	,	173245	,	-19332	,	-17219	,	43.776276	,	54
59,55	,	173277	,	-19328	,	-17205	,	53.02296	,	65
59,55	,	173293	,	-19311	,	-17196	,	59.18872	,	74
59,55	,	173309	,	-19318	,	-17199	,	62.193844	,	80
59,55	,	173341	,	-19313	,	-17199	,	62.141254	,	81
59,55	,	173357	,	-19316	,	-17198	,	59.274452	,	76
59,55	,	173373	,	-19317	,	-17191	,	54.027126	,	67
59,55	,	173405	,	-19313	,	-17198	,	47.011433	,	55
59,55	,	173422	,	-19308	,	-17189	,	39.0037	,	42
59,55	,	173453	,	-19312	,	-17195	,	30.835846	,	29
59,55	,	173469	,	-19311	,	-17169	,	23.165197	,	18
59,55	,	173485	,	-19318	,	-17188	,	16.363064	,	9
59,55	,	173517	,	-19314	,	-17185	,	10.581304	,	3
59,55	,	173533	,	-19314	,	-17160	,	5.888667	,	0
59,55	,	173549	,	-19321	,	-17190	,	2.2942119	,	0
59,55	,	173581	,	-19333	,	-17196	,	-0.3832245	,	0
59,55	,	173597	,	-19327	,	-17188	,	-2.4727843	,	0
59,55	,	173613	,	-19343	,	-17195	,	-4.236837	,	0
59,55	,	173645	,	-19348	,	-17200	,	-5.875972	,	0
59,55	,	173661	,	-19346	,	-17196	,	-7.5438476	,	0
59,55	,	173693	,	-19356	,	-17214	,	-9.225465	,	0
59,55	,	173709	,	-19360	,	-17204	,	-10.823522	,	0
59,55	,	173725	,	-19381	,	-17214	,	-12.361485	,	0
59,55	,	173757	,	-19371	,	-17220	,	-13.950027	,	0
59,55	,	173773	,	-19387	,	-17227	,	-15.567099	,	0
59,55	,	173789	,	-19387	,	-17236	,	-17.064583	,	0
59,55	,	173821	,	-19396	,	-17230	,	-18.332462	,	0
59,55	,	173837	,	-19403	,	-17235	,	-19.32711	,	0
59,55	,	173869	,	-19408	,	-17233	,	-20.058338	,	0
59,55	,	173885	,	-19413	,	-17244	,	-20.550524	,	0
59,55	,	173901	,	-19414	,	-17234	,	-20.786852	,	0
59,55	,	173933	,	-19434	,	-17256	,	-20.78277	,	0
59,55	,	173949	,	-19434	,	-17234	,	-20.698296	,	0
59,55	,	173965	,	-19447	,	-17251	,	-20.73096	,	0
59,55	,	173997	,	-19448	,	-17254	,	-20.951218	,	0
59,55	,	174012	,	-19456	,	-17258	,	-21.30199	,	0
59,55	,	174029	,	-19468	,	-17265	,	-21.700996	,	0
59,56	,	174061	,	-19465	,	-17264	,	-22.099552	,	0
59,56	,	174077	,	-19484	,	-17267	,	-22.45079	,	0
59,56	,	174108	,	-19480	,	-17267	,	-22.732443	,	0
59,56	,	174124	,	-19495	,	-17263	,	-22.945423	,	0
59,56	,	174140	,	-19496	,	-17271	,	-23.080338	,	0
59,56	,	174173	,	-19485	,	-17277	,	-23.026325	,	0
59,56	,	174189	,	-19461	,	-17242	,	-22.347672	,	0
59,56	,	174205	,	-19386	,	-17234	,	-20.037079	,	0
59,56	,	174237	,	-19373	,	-17224	,	-14.674708	,	2
59,56	,	174253	,	-19357	,	-17217	,	-5.486047	,	7
59,56	,	174285	,	-19350	,	-17218	,	6.81664	,	16
59,56	,	174300	,	-19326	,	-17215	,	20.537247	,	28
59,56	,	174317	,	-19328	,	-17216	,	33.874893	,	41
59,56	,	174348	,	-19329	,	-17212	,	45.228104	,	54
59,56	,	174365	,	-19317	,	-17215	,	53.334885	,	65
59,56	,	174381	,	-19309	,	-17210	,	57.62309	,	73
59,56	,	174413	,	-19305	,	-17223	,	58.287323	,	77
59,56	,	174429	,	-19311	,	-17202	,	55.907932	,	75
59,56	,	174445	,	-19312	,	-17209	,	51.09987	,	70
59,56	,	174476	,	-19308	,	-17208	,	44.499672	,	61
59,56	,	174492	,	-19306	,	-17213	,	36.878586	,	49
59,56	,	174525	,	-19303	,	-17205	,	29.066444	,	36
59,56	,	174541	,	-19304	,	-17207	,	21.764055	,	23
59,56	,	174557	,	-19302	,	-17201	,	15.437536	,	12
59,56	,	174589	,	-19301	,	-17210	,	10.322029	,	4
59,56	,	174604	,	-19315	,	-17206	,	6.407916	,	0
59,56	,	174620	,	-19310	,	-17217	,	3.446838	,	0
59,56	,	174652	,	-19329	,	-17226	,	1.0862722	,	0
59,56	,	174669	,	-19325	,	-17213	,	-1.0195777	,	0
59,56	,	174700	,	-19336	,	-17224	,	-3.112926	,	0
59,56	,	174716	,	-19340	,	-17224	,	-5.278107	,	0
59,56	,	174733	,	-19350	,	-17232	,	-7.521194	,	0
59,56	,	174764	,	-19361	,	-17226	,	-9.851052	,	0
59,56	,	174780	,	-19373	,	-17237	,	-12.320265	,	0
59,56	,	174796	,	-19373	,	-17236	,	-14.944014	,	0
59,56	,	174828	,	-19382	,	-17239	,	-17.563957	,	0
59,56	,	174845	,	-19387	,	-17243	,	-19.916573	,	0
59,56	,	174876	,	-19393	,	-17242	,	-21.794024	,	0
59,56	,	174893	,	-19400	,	-17245	,	-23.094265	,	0
59,56	,	174908	,	-19411	,	-17241	,	-23.838512	,	0
59,56	,	174940	,	-19416	,	-17250	,	-24.16571	,	0
59,56	,	174956	,	-19419	,	-17256	,	-24.213043	,	0
59,56	,	174972	,	-19423	,	-17263	,	-24.007689	,	0
59,56	,	175005	,	-19427	,	-17256	,	-23.510712	,	0
59,56	,	175021	,	-19440	,	-17258	,	-22.751616	,	0
59,57	,	175037	,	-19457	,	-17269	,	-21.958797	,	0
59,57	,	175068	,	-19463	,	-17267	,	-21.504017	,	0
59,57	,	175084	,	-19460	,	-17271	,	-21.570034	,	0
59,57	,	175116	,	-19472	,	-17270	,	-21.984585	,	0
59,57	,	175132	,	-19484	,	-17275	,	-22.516933	,	0
59,57	,	175148	,	-19489	,	-17277	,	-23.11237	,	0
59,57	,	175180	,	-19496	,	-17279	,	-23.754385	,	0
59,57	,	175196	,	-19474	,	-17266	,	-24.220554	,	0
59,57	,	175212	,	-19440	,	-17252	,	-23.82839	,	0
59,57	,	175244	,	-19399	,	-17237	,	-21.406754	,	0
59,57	,	175260	,	-19379	,	-17236	,	-15.834437	,	2
59,57	,	175292	,	-19364	,	-17230	,	-6.816779	,	7
59,57	,	175308	,	-19363	,	-17225	,	4.797288	,	16
59,57	,	175324	,	-19356	,	-17228	,	17.3528	,	27
59,57	,	175356	,	-19346	,	-17221	,	29.065481	,	39
59,57	,	175372	,	-19339	,	-17213	,	38.591347	,	50
59,57	,	175388	,	-19343	,	-17220	,	45.1513	,	59
59,57	,	175420	,	-19326	,	-17211	,	48.45626	,	65
59,57	,	175436	,	-19334	,	-17222	,	48.702408	,	68
59,57	,	175452	,	-19340	,	-17218	,	46.33676	,	66
59,57	,	175484	,	-19344	,	-17214	,	41.7815	,	61
59,57	,	175500	,	-19338	,	-17216	,	35.5442	,	52
59,57	,	175532	,	-19334	,	-17213	,	28.383375	,	41
59,57	,	175548	,	-19338	,	-17216	,	21.159174	,	29
59,57	,	175564	,	-19332	,	-17208	,	14.565447	,	18
59,57	,	175596	,	-19333	,	-17217	,	9.049774	,	9
59,57	,	175612	,	-19335	,	-17201	,	4.822486	,	3
59,57	,	175628	,	-19343	,	-17216	,	1.8151512	,	0
59,57	,	175660	,	-19353	,	-17223	,	-0.30563307	,	0
59,57	,	175676	,	-19363	,	-17226	,	-2.0280664	,	0
59,57	,	175708	,	-19367	,	-17225	,	-3.797003	,	0
59,57	,	175724	,	-19378	,	-17219	,	-5.850468	,	0
59,57	,	175740	,	-19382	,	-17215	,	-8.223125	,	0
59,57	,	175772	,	-19393	,	-17214	,	-10.826528	,	0
59,57	,	175788	,	-19388	,	-17220	,	-13.468946	,	0
59,57	,	175804	,	-19399	,	-17220	,	-15.862751	,	0
59,57	,	175836	,	-19407	,	-17228	,	-17.789183	,	0
59,57	,	175852	,	-19419	,	-17211	,	-19.261412	,	0
59,57	,	175884	,	-19424	,	-17223	,	-20.435604	,	0
59,57	,	175900	,	-19430	,	-17218	,	-21.42258	,	0
59,57	,	175916	,	-19446	,	-17218	,	-22.27097	,	0
59,57	,	175948	,	-19446	,	-17222	,	-23.048277	,	0
59,57	,	175964	,	-19452	,	-17235	,	-23.75499	,	0
59,57	,	175980	,	-19459	,	-17229	,	-24.2727	,	0
59,57	,	176012	,	-19464	,	-17241	,	-24.502745	,	0
59,57	,	176028	,	-19470	,	-17231	,	-24.42292	,	0
59,58	,	176044	,	-19468	,	-17242	,	-24.019493	,	0
59,58	,	176076	,	-19486	,	-17249	,	-23.302883	,	0
59,58	,	176092	,	-19486	,	-17235	,	-22.409033	,	0
59,58	,	176124	,	-19510	,	-17252	,	-21.606106	,	0
59,58	,	176140	,	-19513	,	-17248	,	-21.215113	,	0
59,58	,	176156	,	-19520	,	-17258	,	-21.42681	,	0
59,58	,	176188	,	-19518	,	-17254	,	-22.114077	,	0
59,58	,	176204	,	-19525	,	-17266	,	-22.909868	,	0
59,58	,	176220	,	-19535	,	-17266	,	-23.483006	,	0
59,58	,	176252	,	-19529	,	-17262	,	-23.672138	,	0
59,58	,	176268	,	-19498	,	-17246	,	-23.195713	,	0
59,58	,	176299	,	-19458	,	-17233	,	-21.267723	,	0
59,58	,	176316	,	-19430	,	-17231	,	-16.79591	,	1
59,58	,	176332	,	-19404	,	-17208	,	-9.0807	,	5
59,58	,	176364	,	-19384	,	-17210	,	1.71978	,	12
59,58	,	176380	,	-19371	,	-17210	,	14.631893	,	22
59,58	,	176396	,	-19360	,	-17209	,	28.166409	,	34
59,58	,	176427	,	-19342	,	-17213	,	40.765854	,	47
59,58	,	176444	,	-19355	,	-17205	,	51.117573	,	59
59,58	,	176460	,	-19343	,	-17206	,	58.18943	,	69
59,58	,	176492	,	-19341	,	-17197	,	61.419777	,	76
59,58	,	176507	,	-19333	,	-17198	,	60.932983	,	78
59,58	,	176539	,	-19332	,	-17195	,	57.380215	,	74
59,58	,	176556	,	-19335	,	-17205	,	51.60561	,	67
59,58	,	176572	,	-19333	,	-17190	,	44.40979	,	57
59,58	,	176604	,	-19333	,	-17202	,	36.515823	,	45
59,58	,	176620	,	-19329	,	-17204	,	28.611603	,	32
59,58	,	176636	,	-19328	,	-17200	,	21.307085	,	20
59,58	,	176667	,	-19323	,	-17205	,	15.062214	,	10
59,58	,	176684	,	-19331	,	-17206	,	10.114638	,	3
59,58	,	176716	,	-19330	,	-17208	,	6.424983	,	0
59,58	,	176732	,	-19331	,	-17204	,	3.7740388	,	0
59,58	,	176748	,	-19331	,	-17206	,	1.9390092	,	0
59,58	,	176780	,	-19338	,	-17211	,	0.70946217	,	0
59,58	,	176796	,	-19343	,	-17228	,	-0.19003248	,	0
59,58	,	176812	,	-19357	,	-17204	,	-1.1095535	,	0
59,58	,	176844	,	-19370	,	-17229	,	-2.4370918	,	0
59,58	,	176860	,	-19386	,	-17217	,	-4.526273	,	0
59,58	,	176876	,	-19385	,	-17229	,	-7.5214615	,	0
59,58	,	176908	,	-19380	,	-17230	,	-11.127186	,	0
59,58	,	176924	,	-19394	,	-17239	,	-14.7060375	,	0
59,58	,	176955	,	-19409	,	-17235	,	-17.794865	,	0
59,58	,	176971	,	-19412	,	-17243	,	-20.332998	,	0
59,58	,	176987	,	-19420	,	-17244	,	-22.381014	,	0
59,58	,	177019	,	-19419	,	-17241	,	-23.901474	,	0
59,59	,	177035	,	-19440	,	-17254	,	-24.847733	,	0
59,59	,	177052	,	-19448	,	-17239	,	-25.360764	,	0
59,59	,	177084	,	-19465	,	-17259	,	-25.760555	,	0
59,59	,	177100	,	-19473	,	-17262	,	-26.34557	,	0
59,59	,	177131	,	-19476	,	-17258	,	-27.21397	,	0
59,59	,	177148	,	-19494	,	-17266	,	-28.25676	,	0
59,59	,	177164	,	-19498	,	-17269	,	-29.341946	,	0
59,59	,	177196	,	-19499	,	-17272	,	-30.329737	,	0
59,59	,	177211	,	-19520	,	-17268	,	-31.035383	,	0
59,59	,	177227	,	-19518	,	-17275	,	-31.386196	,	0
59,59	,	177259	,	-19506	,	-17280	,	-31.283443	,	0
59,59	,	177275	,	-19533	,	-17291	,	-30.50093	,	0
59,59	,	177307	,	-19521	,	-17285	,	-29.02186	,	0
59,59	,	177323	,	-19550	,	-17288	,	-27.12519	,	1
59,59	,	177340	,	-19550	,	-17290	,	-25.232382	,	2
59,59	,	177371	,	-19547	,	-17288	,	-23.677734	,	3
59,59	,	177387	,	-19533	,	-17275	,	-22.35884	,	4
59,59	,	177404	,	-19485	,	-17266	,	-20.57088	,	5
59,59	,	177435	,	-19447	,	-17249	,	-17.062653	,	6
59,59	,	177451	,	-19414	,	-17245	,	-10.556126	,	9
59,59	,	177467	,	-19404	,	-17232	,	-0.6005373	,	15
59,59	,	177499	,	-19400	,	-17228	,	11.986969	,	24
59,59	,	177515	,	-19384	,	-17244	,	25.466328	,	35
59,59	,	177547	,	-19381	,	-17225	,	37.972237	,	47
59,59	,	177563	,	-19352	,	-17223	,	48.145466	,	58
59,59	,	177579	,	-19362	,	-17223	,	55.310852	,	67
59,59	,	177611	,	-19351	,	-17222	,	59.22614	,	73
59,59	,	177627	,	-19349	,	-17212	,	59.905273	,	75
59,59	,	177643	,	-19343	,	-17221	,	57.706234	,	72
59,59	,	177675	,	-19342	,	-17221	,	53.265266	,	66
59,59	,	177691	,	-19354	,	-17215	,	47.237785	,	57
59,59	,	177723	,	-19355	,	-17212	,	40.10715	,	45
59,59	,	177739	,	-19348	,	-17217	,	32.31687	,	32
59,59	,	177755	,	-19349	,	-17216	,	24.479343	,	20
59,59	,	177787	,	-19353	,	-17214	,	17.220892	,	10
59,59	,	177803	,	-19357	,	-17211	,	10.920601	,	3
59,59	,	177819	,	-19363	,	-17221	,	5.6747456	,	0
59,59	,	177851	,	-19366	,	-17213	,	1.4041452	,	0
59,59	,	177867	,	-19380	,	-17227	,	-2.070938	,	0
59,59	,	177883	,	-19380	,	-17227	,	-4.993675	,	0
59,59	,	177915	,	-19387	,	-17222	,	-7.552311	,	0
59,59	,	177931	,	-19392	,	-17227	,	-9.813282	,	0
59,59	,	177963	,	-19399	,	-17227	,	-11.794322	,	0
59,59	,	177979	,	-19404	,	-17233	,	-13.507603	,	0
59,59	,	177995	,	-19419	,	-17239	,	-14.999468	,	0
59,59	,	178027	,	-19423	,	-17245	,	-16.389132	,	0
0,0	,	178043	,	-19442	,	-17246	,	-17.827126	,	0
0,0	,	178059	,	-19453	,	-17243	,	-19.478191	,	0
0,0	,	178091	,	-19445	,	-17247	,	-21.384346	,	0
0,0	,	178107	,	-19452	,	-17244	,	-23.251865	,	0
0,0	,	178139	,	-19466	,	-17253	,	-24.679293	,	0
0,0	,	178155	,	-19470	,	-17253	,	-25.541084	,	0
0,0	,	178171	,	-19494	,	-17256	,	-26.00553	,	0
0,0	,	178203	,	-19490	,	-17264	,	-26.357689	,	0
0,0	,	178219	,	-19490	,	-17268	,	-26.694613	,	0
0,0	,	178235	,	-19507	,	-17263	,	-26.84769	,	0
0,0	,	178267	,	-19516	,	-17266	,	-26.750473	,	0
0,0	,	178283	,	-19520	,	-17271	,	-26.54414	,	0
0,0	,	178299	,	-19524	,	-17272	,	-26.308308	,	0
0,0	,	178331	,	-19530	,	-17266	,	-25.980139	,	0
0,0	,	178347	,	-19547	,	-17277	,	-25.530918	,	0
0,0	,	178379	,	-19553	,	-17268	,	-25.100283	,	0
0,0	,	178395	,	-19544	,	-17268	,	-24.78984	,	0
0,0	,	178411	,	-19574	,	-17264	,	-24.519411	,	0
0,0	,	178443	,	-19558	,	-17275	,	-24.239212	,	0
0,0	,	178459	,	-19580	,	-17272	,	-23.943136	,	0
0,0	,	178476	,	-19573	,	-17269	,	-23.580833	,	0
0,0	,	178507	,	-19560	,	-17257	,	-22.990932	,	0
0,0	,	178523	,	-19482	,	-17235	,	-21.42529	,	0
0,0	,	178555	,	-19440	,	-17222	,	-17.275772	,	1
0,0	,	178571	,	-19448	,	-17212	,	-9.159686	,	5
0,0	,	178587	,	-19424	,	-17212	,	2.6596937	,	13
0,0	,	178619	,	-19419	,	-17208	,	16.499405	,	24
0,0	,	178635	,	-19409	,	-17203	,	30.346241	,	37
0,0	,	178651	,	-19397	,	-17206	,	42.463154	,	50
0,0	,	178683	,	-19400	,	-17209	,	51.639076	,	62
0,0	,	178699	,	-19387	,	-17204	,	57.225937	,	71
0,0	,	178731	,	-19372	,	-17186	,	59.197487	,	76
0,0	,	178747	,	-19376	,	-17202	,	58.0979	,	76
0,0	,	178763	,	-19389	,	-17213	,	54.55741	,	72
0,0	,	178795	,	-19386	,	-17211	,	48.97866	,	64
0,0	,	178811	,	-19379	,	-17210	,	41.828888	,	53
0,0	,	178827	,	-19381	,	-17205	,	33.876102	,	40
0,0	,	178859	,	-19381	,	-17203	,	25.941162	,	27
0,0	,	178875	,	-19371	,	-17208	,	18.67869	,	15
0,0	,	178890	,	-19377	,	-17212	,	12.578142	,	6
0,0	,	178923	,	-19377	,	-17206	,	7.8624725	,	1
0,0	,	178939	,	-19371	,	-17216	,	4.4804306	,	0
0,0	,	178971	,	-19392	,	-17199	,	2.2141137	,	0
0,0	,	178988	,	-19397	,	-17209	,	0.608145	,	0
0,0	,	179003	,	-19388	,	-17218	,	-0.84159636	,	0
0,1	,	179035	,	-19401	,	-17217	,	-2.3215523	,	0
0,1	,	179051	,	-19405	,	-17225	,	-3.83355	,	0
0,1	,	179066	,	-19416	,	-17227	,	-5.4484158	,	0
0,1	,	179099	,	-19417	,	-17224	,	-7.238815	,	0
0,1	,	179115	,	-19429	,	-17221	,	-9.187012	,	0
0,1	,	179147	,	-19442	,	-17228	,	-11.2732315	,	0
0,1	,	179163	,	-19437	,	-17231	,	-13.493068	,	0
0,1	,	179179	,	-19440	,	-17243	,	-15.659923	,	0
0,1	,	179210	,	-19453	,	-17220	,	-17.461618	,	0
0,1	,	179226	,	-19441	,	-17245	,	-18.691	,	0
0,1	,	179242	,	-19444	,	-17243	,	-19.164474	,	0
0,1	,	179275	,	-19457	,	-17246	,	-18.767185	,	0
0,1	,	179291	,	-19462	,	-17251	,	-17.712051	,	0
0,1	,	179307	,	-19460	,	-17251	,	-16.390724	,	1
0,1	,	179339	,	-19472	,	-17256	,	-15.080692	,	2
0,1	,	179355	,	-19484	,	-17256	,	-14.021851	,	3
0,1	,	179386	,	-19496	,	-17262	,	-13.535911	,	4
0,1	,	179402	,	-19496	,	-17258	,	-13.846062	,	4
0,1	,	179418	,	-19503	,	-17270	,	-14.868483	,	4
0,1	,	179450	,	-19524	,	-17257	,	-16.373514	,	4
0,1	,	179467	,	-19525	,	-17275	,	-18.247047	,	4
0,1	,	179483	,	-19528	,	-17271	,	-20.35035	,	4
0,1	,	179515	,	-19528	,	-17277	,	-22.321022	,	3
0,1	,	179530	,	-19523	,	-17266	,	-23.675568	,	2
0,1	,	179562	,	-19499	,	-17256	,	-23.87432	,	1
0,1	,	179578	,	-19455	,	-17237	,	-22.16307	,	0
0,1	,	179594	,	-19427	,	-17230	,	-17.605736	,	1
0,1	,	179627	,	-19416	,	-17222	,	-9.686794	,	5
0,1	,	179643	,	-19401	,	-17223	,	1.1107931	,	12
0,1	,	179659	,	-19404	,	-17234	,	13.412214	,	22
0,1	,	179690	,	-19398	,	-17203	,	25.4391	,	34
0,1	,	179706	,	-19386	,	-17214	,	35.593586	,	46
0,1	,	179722	,	-19377	,	-17214	,	42.94473	,	56
0,1	,	179754	,	-19376	,	-17211	,	47.22949	,	63
0,1	,	179770	,	-19384	,	-17210	,	48.499516	,	67
0,1	,	179802	,	-19391	,	-17206	,	46.882797	,	67
0,1	,	179819	,	-19388	,	-17210	,	42.658394	,	63
0,1	,	179835	,	-19392	,	-17213	,	36.41043	,	56
0,1	,	179866	,	-19393	,	-17219	,	28.947525	,	46
0,1	,	179882	,	-19376	,	-17205	,	21.184874	,	34
0,1	,	179898	,	-19383	,	-17220	,	14.066355	,	22
0,1	,	179930	,	-19384	,	-17194	,	8.2503195	,	12
0,1	,	179946	,	-19379	,	-17222	,	3.9367723	,	5
0,1	,	179978	,	-19396	,	-17211	,	1.0114446	,	1
0,1	,	179994	,	-19393	,	-17218	,	-0.8800709	,	0
0,1	,	180011	,	-19405	,	-17219	,	-2.2042582	,	0
0,2	,	180042	,	-19414	,	-17226	,	-3.394285	,	0
0,2	,	180058	,	-19422	,	-17230	,	-4.8224583	,	0
0,2	,	180074	,	-19418	,	-17225	,	-6.6517453	,	0
0,2	,	180106	,	-19424	,	-17236	,	-8.72157	,	0
0,2	,	180122	,	-19433	,	-17225	,	-10.749134	,	0
0,2	,	180138	,	-19440	,	-17245	,	-12.589471	,	0
0,2	,	180170	,	-19445	,	-17221	,	-14.233897	,	0
0,2	,	180186	,	-19469	,	-17241	,	-15.771065	,	0
0,2	,	180218	,	-19474	,	-17240	,	-17.427305	,	0
0,2	,	180234	,	-19470	,	-17245	,	-19.32381	,	0
0,2	,	180250	,	-19487	,	-17249	,	-21.259975	,	0
0,2	,	180282	,	-19473	,	-17255	,	-22.893332	,	0
0,2	,	180298	,	-19496	,	-17253	,	-23.932302	,	0
0,2	,	180314	,	-19491	,	-17255	,	-24.27457	,	0
0,2	,	180346	,	-19487	,	-17252	,	-23.950363	,	0
0,2	,	180362	,	-19501	,	-17248	,	-22.964348	,	0
0,2	,	180395	,	-19507	,	-17258	,	-21.470242	,	0
0,2	,	180410	,	-19518	,	-17252	,	-19.850363	,	1
0,2	,	180426	,	-19538	,	-17262	,	-18.56897	,	2
0,2	,	180458	,	-19532	,	-17270	,	-18.006973	,	3
0,2	,	180474	,	-19548	,	-17280	,	-18.239777	,	3
0,2	,	180490	,	-19546	,	-17268	,	-19.05532	,	3
0,2	,	180522	,	-19534	,	-17255	,	-20.040802	,	3
0,2	,	180538	,	-19504	,	-17246	,	-20.43843	,	3
0,2	,	180570	,	-19456	,	-17232	,	-19.072052	,	3
0,2	,	180586	,	-19433	,	-17226	,	-14.682769	,	4
0,2	,	180602	,	-19410	,	-17218	,	-6.6526604	,	7
0,2	,	180634	,	-19411	,	-17223	,	4.480422	,	14
0,2	,	180650	,	-19404	,	-17205	,	17.153288	,	24
0,2	,	180666	,	-19395	,	-17206	,	29.426758	,	36
0,2	,	180698	,	-19384	,	-17200	,	39.725792	,	48
0,2	,	180714	,	-19376	,	-17192	,	47.16723	,	58
0,2	,	180730	,	-19371	,	-17193	,	51.47404	,	65
0,2	,	180762	,	-19373	,	-17196	,	52.7457	,	69
0,2	,	180778	,	-19367	,	-17192	,	51.284206	,	69
0,2	,	180810	,	-19376	,	-17194	,	47.530533	,	65
0,2	,	180826	,	-19368	,	-17184	,	42.022682	,	57
0,2	,	180842	,	-19366	,	-17184	,	35.4188	,	46
0,2	,	180874	,	-19375	,	-17169	,	28.427052	,	34
0,2	,	180890	,	-19377	,	-17184	,	21.567047	,	22
0,2	,	180906	,	-19370	,	-17177	,	15.176262	,	12
0,2	,	180938	,	-19382	,	-17179	,	9.546435	,	5
0,2	,	180954	,	-19380	,	-17175	,	4.8338957	,	1
0,2	,	180986	,	-19380	,	-17184	,	1.0544333	,	0
0,2	,	181002	,	-19397	,	-17194	,	-1.8624783	,	0
0,2	,	181018	,	-19401	,	-17182	,	-4.1801553	,	0
0,3	,	181050	,	-19403	,	-17186	,	-6.2323194	,	0
0,3	,	181066	,	-19398	,	-17190	,	-8.107216	,	0
0,3	,	181082	,	-19418	,	-17196	,	-9.702568	,	0
0,3	,	181114	,	-19429	,	-17188	,	-11.093727	,	0
0,3	,	181130	,	-19436	,	-17199	,	-12.576014	,	0
0,3	,	181146	,	-19455	,	-17213	,	-14.401878	,	0
0,3	,	181178	,	-19464	,	-17213	,	-16.71085	,	0
0,3	,	181194	,	-19453	,	-17215	,	-19.41177	,	0
0,3	,	181226	,	-19459	,	-17215	,	-22.007885	,	0
0,3	,	181242	,	-19462	,	-17223	,	-23.881596	,	0
0,3	,	181258	,	-19464	,	-17224	,	-24.68746	,	0
0,3	,	181290	,	-19474	,	-17233	,	-24.41151	,	0
0,3	,	181306	,	-19489	,	-17230	,	-23.357735	,	0
0,3	,	181322	,	-19492	,	-17237	,	-22.043896	,	1
0,3	,	181354	,	-19491	,	-17230	,	-20.861656	,	2
0,3	,	181370	,	-19516	,	-17242	,	-19.97374	,	3
0,3	,	181401	,	-19519	,	-17248	,	-19.560556	,	3
0,3	,	181418	,	-19530	,	-17257	,	-19.798647	,	3
0,3	,	181434	,	-19537	,	-17261	,	-20.663979	,	3
0,3	,	181466	,	-19545	,	-17260	,	-21.970486	,	3
0,3	,	181482	,	-19555	,	-17256	,	-23.482979	,	3
0,3	,	181498	,	-19557	,	-17254	,	-24.967823	,	3
0,3	,	181530	,	-19561	,	-17266	,	-26.173471	,	2
0,3	,	181546	,	-19562	,	-17267	,	-26.82922	,	1
0,3	,	181578	,	-19551	,	-17272	,	-26.66727	,	0
0,3	,	181594	,	-19535	,	-17243	,	-25.352821	,	0
0,3	,	181609	,	-19465	,	-17225	,	-22.22171	,	1
0,3	,	181641	,	-19437	,	-17221	,	-16.164557	,	4
0,3	,	181657	,	-19422	,	-17213	,	-6.408581	,	10
0,3	,	181674	,	-19397	,	-17213	,	6.5971527	,	19
0,3	,	181706	,	-19385	,	-17199	,	21.41452	,	32
0,3	,	181722	,	-19378	,	-17198	,	36.250935	,	46
0,3	,	181738	,	-19368	,	-17199	,	49.342102	,	60
0,3	,	181770	,	-19362	,	-17193	,	59.315933	,	73
0,3	,	181786	,	-19353	,	-17190	,	65.43562	,	82
0,3	,	181817	,	-19337	,	-17203	,	67.656006	,	87
0,3	,	181833	,	-19347	,	-17174	,	66.4588	,	86
0,3	,	181850	,	-19345	,	-17186	,	62.45423	,	80
0,3	,	181882	,	-19346	,	-17194	,	56.209522	,	71
0,3	,	181898	,	-19348	,	-17192	,	48.35869	,	58
0,3	,	181914	,	-19348	,	-17195	,	39.6051	,	44
0,3	,	181946	,	-19345	,	-17196	,	30.66844	,	30
0,3	,	181961	,	-19353	,	-17199	,	22.20544	,	17
0,3	,	181993	,	-19346	,	-17193	,	14.69338	,	8
0,3	,	182009	,	-19344	,	-17198	,	8.465169	,	2
0,3	,	182025	,	-19348	,	-17198	,	3.7340307	,	0
0,4	,	182058	,	-19356	,	-17213	,	0.45263052	,	0
0,4	,	182074	,	-19381	,	-17194	,	-1.814949	,	0
0,4	,	182090	,	-19387	,	-17204	,	-3.8031697	,	0
0,4	,	182122	,	-19402	,	-17207	,	-6.1744685	,	0
0,4	,	182138	,	-19397	,	-17211	,	-9.170724	,	0
0,4	,	182153	,	-19418	,	-17216	,	-12.621931	,	0
0,4	,	182185	,	-19420	,	-17225	,	-16.23055	,	0
0,4	,	182201	,	-19433	,	-17221	,	-19.74385	,	0
0,4	,	182233	,	-19436	,	-17225	,	-22.922646	,	0
0,4	,	182249	,	-19443	,	-17230	,	-25.52741	,	0
0,4	,	182265	,	-19437	,	-17229	,	-27.311935	,	0
0,4	,	182297	,	-19434	,	-17239	,	-27.987816	,	0
0,4	,	182314	,	-19452	,	-17221	,	-27.389683	,	0
0,4	,	182329	,	-19467	,	-17242	,	-25.811405	,	0
0,4	,	182361	,	-19484	,	-17245	,	-23.989494	,	1
0,4	,	182377	,	-19469	,	-17247	,	-22.567596	,	2
0,4	,	182409	,	-19478	,	-17247	,	-21.638882	,	3
0,4	,	182425	,	-19492	,	-17245	,	-20.9842	,	3
0,4	,	182441	,	-19517	,	-17255	,	-20.638218	,	3
0,4	,	182473	,	-19502	,	-17251	,	-20.840893	,	3
0,4	,	182489	,	-19510	,	-17260	,	-21.507828	,	3
0,4	,	182505	,	-19523	,	-17260	,	-22.257797	,	3
0,4	,	182537	,	-19533	,	-17275	,	-22.901312	,	3
0,4	,	182553	,	-19535	,	-17263	,	-23.468163	,	2
0,4	,	182569	,	-19550	,	-17274	,	-23.974672	,	1
0,4	,	182601	,	-19537	,	-17282	,	-24.352715	,	0
0,4	,	182617	,	-19570	,	-17274	,	-24.503664	,	0
0,4	,	182649	,	-19567	,	-17280	,	-24.506924	,	0
0,4	,	182665	,	-19543	,	-17267	,	-24.40057	,	0
0,4	,	182681	,	-19524	,	-17256	,	-23.64993	,	0
0,4	,	182713	,	-19482	,	-17239	,	-21.241932	,	0
0,4	,	182729	,	-19450	,	-17229	,	-16.142223	,	2
0,4	,	182745	,	-19423	,	-17216	,	-7.7294445	,	7
0,4	,	182777	,	-19420	,	-17223	,	3.7238808	,	15
0,4	,	182793	,	-19417	,	-17207	,	16.882996	,	26
0,4	,	182825	,	-19404	,	-17210	,	29.838903	,	39
0,4	,	182841	,	-19388	,	-17208	,	40.955307	,	51
0,4	,	182857	,	-19390	,	-17211	,	49.27389	,	62
0,4	,	182889	,	-19380	,	-17208	,	54.35284	,	70
0,4	,	182905	,	-19374	,	-17195	,	56.156734	,	75
0,4	,	182921	,	-19380	,	-17198	,	55.003693	,	74
0,4	,	182953	,	-19384	,	-17204	,	51.328346	,	69
0,4	,	182969	,	-19376	,	-17208	,	45.623417	,	61
0,4	,	183001	,	-19389	,	-17206	,	38.534378	,	50
0,4	,	183017	,	-19388	,	-17216	,	30.724794	,	37
0,5	,	183033	,	-19385	,	-17193	,	22.789328	,	25
0,5	,	183065	,	-19386	,	-17201	,	15.325386	,	14
0,5	,	183081	,	-19389	,	-17196	,	8.835196	,	6
0,5	,	183097	,	-19389	,	-17206	,	3.5871058	,	1
0,5	,	183129	,	-19395	,	-17210	,	-0.3750124	,	0
0,5	,	183145	,	-19410	,	-17208	,	-3.2457857	,	0
0,5	,	183161	,	-19404	,	-17205	,	-5.3989286	,	0
0,5	,	183193	,	-19418	,	-17211	,	-7.1480484	,	0
0,5	,	183209	,	-19424	,	-17215	,	-8.694445	,	0
0,5	,	183241	,	-19422	,	-17212	,	-10.171455	,	0
0,5	,	183257	,	-19432	,	-17223	,	-11.5699	,	0
0,5	,	183273	,	-19457	,	-17207	,	-12.923394	,	0
0,5	,	183305	,	-19453	,	-17223	,	-14.46575	,	0
0,5	,	183321	,	-19470	,	-17223	,	-16.352613	,	0
0,5	,	183337	,	-19472	,	-17219	,	-18.504395	,	0
0,5	,	183369	,	-19480	,	-17225	,	-20.715721	,	0
0,5	,	183386	,	-19480	,	-17223	,	-22.705154	,	0
0,5	,	183417	,	-19494	,	-17220	,	-24.20998	,	0
0,5	,	183433	,	-19496	,	-17221	,	-25.12761	,	0
0,5	,	183449	,	-19504	,	-17227	,	-25.495049	,	0
0,5	,	183481	,	-19499	,	-17227	,	-25.343206	,	0
0,5	,	183497	,	-19515	,	-17233	,	-24.676504	,	0
0,5	,	183513	,	-19514	,	-17231	,	-23.600628	,	0
0,5	,	183545	,	-19542	,	-17240	,	-22.403984	,	1
0,5	,	183561	,	-19536	,	-17242	,	-21.484169	,	2
0,5	,	183577	,	-19543	,	-17246	,	-21.059841	,	2
0,5	,	183609	,	-19554	,	-17250	,	-21.051537	,	2
0,5	,	183625	,	-19552	,	-17252	,	-21.289293	,	2
0,5	,	183657	,	-19549	,	-17249	,	-21.530243	,	2
0,5	,	183673	,	-19574	,	-17256	,	-21.523119	,	2
0,5	,	183689	,	-19582	,	-17261	,	-21.342625	,	2
0,5	,	183721	,	-19571	,	-17264	,	-21.227743	,	2
0,5	,	183737	,	-19582	,	-17274	,	-21.126633	,	1
0,5	,	183753	,	-19573	,	-17259	,	-20.772774	,	0
0,5	,	183785	,	-19499	,	-17234	,	-19.563347	,	0
0,5	,	183801	,	-19473	,	-17229	,	-16.17219	,	1
0,5	,	183832	,	-19452	,	-17219	,	-9.312969	,	4
0,5	,	183849	,	-19440	,	-17213	,	1.0764093	,	10
0,5	,	183864	,	-19434	,	-17206	,	13.769791	,	20
0,5	,	183897	,	-19430	,	-17202	,	26.889835	,	32
0,5	,	183913	,	-19421	,	-17213	,	38.571533	,	45
0,5	,	183929	,	-19411	,	-17206	,	47.48939	,	56
0,5	,	183961	,	-19410	,	-17205	,	53.023846	,	64
0,5	,	183977	,	-19400	,	-17198	,	55.12683	,	69
0,5	,	183993	,	-19409	,	-17197	,	54.12298	,	70
0,5	,	184024	,	-19410	,	-17207	,	50.480606	,	67
0,6	,	184040	,	-19402	,	-17210	,	44.761497	,	61
0,6	,	184072	,	-19396	,	-17206	,	37.77209	,	51
0,6	,	184089	,	-19394	,	-17201	,	30.470146	,	39
0,6	,	184105	,	-19382	,	-17204	,	23.70518	,	26
0,6	,	184137	,	-19378	,	-17200	,	18.121124	,	15
0,6	,	184152	,	-19380	,	-17204	,	14.056733	,	7
0,6	,	184168	,	-19374	,	-17205	,	11.461049	,	2
0,6	,	184200	,	-19372	,	-17211	,	10.053483	,	0
0,6	,	184216	,	-19381	,	-17202	,	9.465123	,	0
0,6	,	184249	,	-19389	,	-17207	,	9.188043	,	0
0,6	,	184265	,	-19394	,	-17213	,	8.643116	,	0
0,6	,	184280	,	-19404	,	-17214	,	7.389213	,	0
0,6	,	184313	,	-19419	,	-17218	,	5.180059	,	0
0,6	,	184329	,	-19423	,	-17228	,	1.9324074	,	0
0,6	,	184345	,	-19425	,	-17224	,	-2.1727767	,	0
0,6	,	184381	,	-19441	,	-17225	,	-6.707523	,	0
0,6	,	184392	,	-19443	,	-17221	,	-11.245185	,	0
0,6	,	184408	,	-19438	,	-17226	,	-15.388608	,	0
0,6	,	184440	,	-19440	,	-17242	,	-18.651194	,	0
0,6	,	184456	,	-19453	,	-17223	,	-20.673117	,	0
0,6	,	184488	,	-19462	,	-17236	,	-21.518108	,	0
0,6	,	184504	,	-19471	,	-17243	,	-21.586687	,	0
0,6	,	184520	,	-19475	,	-17248	,	-21.308815	,	0
0,6	,	184552	,	-19494	,	-17243	,	-21.01654	,	0
0,6	,	184568	,	-19486	,	-17245	,	-20.930958	,	0
0,6	,	184584	,	-19498	,	-17249	,	-21.059809	,	0
0,6	,	184616	,	-19511	,	-17251	,	-21.306583	,	0
0,6	,	184632	,	-19511	,	-17247	,	-21.666058	,	0
0,6	,	184664	,	-19510	,	-17247	,	-22.06372	,	0
0,6	,	184680	,	-19521	,	-17262	,	-22.276285	,	0
0,6	,	184696	,	-19531	,	-17241	,	-22.200464	,	0
0,6	,	184728	,	-19511	,	-17252	,	-21.836834	,	0
0,6	,	184745	,	-19479	,	-17241	,	-20.807247	,	0
0,6	,	184760	,	-19445	,	-17220	,	-18.17315	,	1
0,6	,	184792	,	-19419	,	-17218	,	-12.93924	,	3
0,6	,	184808	,	-19410	,	-17209	,	-4.7531986	,	8
0,6	,	184840	,	-19401	,	-17205	,	5.750325	,	16
0,6	,	184856	,	-19387	,	-17207	,	17.22888	,	26
0,6	,	184872	,	-19384	,	-17198	,	28.221905	,	37
0,6	,	184904	,	-19378	,	-17199	,	37.495483	,	47
0,6	,	184920	,	-19374	,	-17205	,	44.171616	,	56
0,6	,	184936	,	-19375	,	-17183	,	47.805	,	62
0,6	,	184968	,	-19362	,	-17196	,	48.411537	,	64
0,6	,	184984	,	-19375	,	-17193	,	46.391464	,	62
0,6	,	185000	,	-19381	,	-17196	,	42.229195	,	57
0,7	,	185032	,	-19371	,	-17194	,	36.39606	,	49
0,7	,	185048	,	-19368	,	-17186	,	29.591944	,	39
0,7	,	185080	,	-19377	,	-17192	,	22.644325	,	28
0,7	,	185097	,	-19371	,	-17183	,	16.159578	,	18
0,7	,	185113	,	-19377	,	-17191	,	10.48438	,	9
0,7	,	185144	,	-19367	,	-17189	,	5.8365574	,	3
0,7	,	185160	,	-19377	,	-17198	,	2.3380032	,	0
0,7	,	185176	,	-19387	,	-17184	,	-0.11465311	,	0
0,7	,	185208	,	-19394	,	-17197	,	-1.9174898	,	0
0,7	,	185224	,	-19394	,	-17193	,	-3.50498	,	0
0,7	,	185256	,	-19412	,	-17204	,	-5.140868	,	0
0,7	,	185272	,	-19416	,	-17200	,	-7.00648	,	0
0,7	,	185288	,	-19412	,	-17208	,	-9.154942	,	0
0,7	,	185320	,	-19416	,	-17198	,	-11.35032	,	0
0,7	,	185336	,	-19429	,	-17205	,	-13.27605	,	0
0,7	,	185352	,	-19444	,	-17201	,	-14.892695	,	0
0,7	,	185384	,	-19433	,	-17215	,	-16.342253	,	0
0,7	,	185400	,	-19444	,	-17227	,	-17.590548	,	0
0,7	,	185416	,	-19457	,	-17204	,	-18.515604	,	0
0,7	,	185448	,	-19465	,	-17225	,	-19.2019	,	0
0,7	,	185464	,	-19457	,	-17216	,	-19.772444	,	0
0,7	,	185496	,	-19466	,	-17221	,	-20.131912	,	0
0,7	,	185512	,	-19490	,	-17227	,	-20.222544	,	0
0,7	,	185528	,	-19488	,	-17231	,	-20.285387	,	0
0,7	,	185560	,	-19488	,	-17232	,	-20.516947	,	0
0,7	,	185576	,	-19496	,	-17230	,	-20.794445	,	0
0,7	,	185592	,	-19505	,	-17228	,	-20.950659	,	0
0,7	,	185624	,	-19506	,	-17234	,	-20.9609	,	0
0,7	,	185640	,	-19506	,	-17240	,	-20.791819	,	0
0,7	,	185672	,	-19470	,	-17205	,	-20.141237	,	0
0,7	,	185688	,	-19409	,	-17187	,	-18.08104	,	0
0,7	,	185704	,	-19390	,	-17180	,	-13.207584	,	2
0,7	,	185736	,	-19372	,	-17166	,	-4.710887	,	6
0,7	,	185752	,	-19370	,	-17172	,	6.8327847	,	14
0,7	,	185768	,	-19359	,	-17162	,	19.779438	,	25
0,7	,	185800	,	-19349	,	-17154	,	32.2375	,	37
0,7	,	185816	,	-19348	,	-17154	,	42.66308	,	49
0,7	,	185832	,	-19330	,	-17144	,	50.093655	,	59
0,7	,	185864	,	-19319	,	-17152	,	54.26412	,	66
0,7	,	185880	,	-19328	,	-17149	,	55.43061	,	70
0,7	,	185912	,	-19318	,	-17127	,	53.967373	,	69
0,7	,	185928	,	-19329	,	-17150	,	50.259148	,	65
0,7	,	185944	,	-19337	,	-17144	,	44.69697	,	57
0,7	,	185976	,	-19329	,	-17121	,	37.695206	,	46
0,7	,	185992	,	-19328	,	-17147	,	29.886976	,	34
0,7	,	186008	,	-19322	,	-17150	,	22.110815	,	22
0,8	,	186040	,	-19335	,	-17134	,	15.087023	,	12
0,8	,	186056	,	-19329	,	-17140	,	9.174844	,	5
0,8	,	186088	,	-19331	,	-17148	,	4.4668646	,	1
0,8	,	186104	,	-19328	,	-17152	,	0.98224974	,	0
0,8	,	186120	,	-19339	,	-17168	,	-1.3629618	,	0
0,8	,	186152	,	-19338	,	-17150	,	-2.829091	,	0
0,8	,	186168	,	-19358	,	-17167	,	-3.8128438	,	0
0,8	,	186184	,	-19364	,	-17173	,	-4.7977395	,	0
0,8	,	186216	,	-19365	,	-17173	,	-6.1676774	,	0
0,8	,	186232	,	-19380	,	-17180	,	-8.015296	,	0
0,8	,	186263	,	-19375	,	-17185	,	-10.21769	,	0
0,8	,	186279	,	-19389	,	-17184	,	-12.54598	,	0
0,8	,	186296	,	-19403	,	-17191	,	-14.82052	,	0
0,8	,	186328	,	-19406	,	-17197	,	-17.032337	,	0
0,8	,	186344	,	-19406	,	-17198	,	-19.133179	,	0
0,8	,	186360	,	-19421	,	-17214	,	-20.931515	,	0
0,8	,	186391	,	-19423	,	-17195	,	-22.294828	,	0
0,8	,	186408	,	-19443	,	-17200	,	-23.264149	,	0
0,8	,	186424	,	-19430	,	-17199	,	-23.940046	,	0
0,8	,	186456	,	-19436	,	-17211	,	-24.248915	,	0
0,8	,	186472	,	-19451	,	-17212	,	-24.030384	,	0
0,8	,	186504	,	-19442	,	-17212	,	-23.311398	,	0
0,8	,	186519	,	-19463	,	-17220	,	-22.24657	,	0
0,8	,	186536	,	-19453	,	-17225	,	-21.0061	,	1
0,8	,	186567	,	-19469	,	-17222	,	-19.738876	,	2
0,8	,	186584	,	-19469	,	-17219	,	-18.563198	,	3
0,8	,	186600	,	-19476	,	-17234	,	-17.585949	,	4
0,8	,	186632	,	-19486	,	-17221	,	-16.878258	,	4
0,8	,	186648	,	-19459	,	-17215	,	-16.35985	,	4
0,8	,	186679	,	-19415	,	-17204	,	-15.3959255	,	4
0,8	,	186696	,	-19367	,	-17206	,	-12.627821	,	4
0,8	,	186712	,	-19346	,	-17193	,	-6.6664734	,	6
0,8	,	186743	,	-19330	,	-17182	,	2.9049616	,	10
0,8	,	186759	,	-19324	,	-17178	,	15.177439	,	18
0,8	,	186776	,	-19306	,	-17178	,	28.414568	,	29
0,8	,	186808	,	-19299	,	-17171	,	40.82546	,	41
0,8	,	186824	,	-19289	,	-17166	,	51.024006	,	53
0,8	,	186839	,	-19291	,	-17167	,	58.10482	,	63
0,8	,	186871	,	-19274	,	-17157	,	61.65535	,	70
0,8	,	186887	,	-19267	,	-17157	,	61.845142	,	73
0,8	,	186920	,	-19273	,	-17157	,	59.26037	,	71
0,8	,	186936	,	-19276	,	-17164	,	54.48774	,	66
0,8	,	186952	,	-19282	,	-17164	,	47.976837	,	57
0,8	,	186983	,	-19274	,	-17156	,	40.231644	,	45
0,8	,	186999	,	-19275	,	-17168	,	31.947304	,	32
0,8	,	187015	,	-19276	,	-17168	,	23.870523	,	20
0,9	,	187047	,	-19274	,	-17161	,	16.577898	,	10
0,9	,	187063	,	-19268	,	-17171	,	10.465764	,	3
0,9	,	187095	,	-19276	,	-17175	,	5.767461	,	0
0,9	,	187112	,	-19285	,	-17168	,	2.4109244	,	0
0,9	,	187128	,	-19297	,	-17182	,	-0.028429508	,	0
0,9	,	187160	,	-19303	,	-17166	,	-2.1131148	,	0
0,9	,	187175	,	-19304	,	-17175	,	-4.2343497	,	0
0,9	,	187191	,	-19317	,	-17179	,	-6.503049	,	0
0,9	,	187223	,	-19319	,	-17187	,	-8.891569	,	0
0,9	,	187239	,	-19329	,	-17185	,	-11.327009	,	0
0,9	,	187255	,	-19332	,	-17194	,	-13.6839285	,	0
0,9	,	187287	,	-19344	,	-17191	,	-15.83777	,	0
0,9	,	187303	,	-19348	,	-17193	,	-17.727852	,	0
0,9	,	187335	,	-19365	,	-17195	,	-19.377964	,	0
0,9	,	187351	,	-19361	,	-17199	,	-20.846283	,	0
0,9	,	187369	,	-19376	,	-17212	,	-22.118114	,	0
0,9	,	187399	,	-19389	,	-17211	,	-23.178957	,	0
0,9	,	187415	,	-19394	,	-17209	,	-24.128727	,	0
0,9	,	187431	,	-19401	,	-17211	,	-25.036537	,	0
0,9	,	187463	,	-19408	,	-17212	,	-25.84122	,	0
0,9	,	187479	,	-19421	,	-17220	,	-26.473537	,	0
0,9	,	187511	,	-19421	,	-17225	,	-26.917294	,	0
0,9	,	187528	,	-19423	,	-17227	,	-27.100826	,	0
0,9	,	187543	,	-19425	,	-17234	,	-26.84939	,	0
0,9	,	187575	,	-19425	,	-17221	,	-25.99229	,	0
0,9	,	187591	,	-19454	,	-17230	,	-24.5825	,	0
0,9	,	187607	,	-19458	,	-17240	,	-23.064594	,	1
0,9	,	187639	,	-19470	,	-17240	,	-22.005125	,	2
0,9	,	187655	,	-19488	,	-17247	,	-21.74736	,	3
0,9	,	187671	,	-19490	,	-17248	,	-22.397882	,	3
0,9	,	187703	,	-19497	,	-17251	,	-23.79441	,	3
0,9	,	187719	,	-19512	,	-17260	,	-25.56905	,	3
0,9	,	187751	,	-19500	,	-17249	,	-27.317543	,	3
0,9	,	187767	,	-19468	,	-17233	,	-28.382448	,	3
0,9	,	187783	,	-19424	,	-17229	,	-27.574696	,	3
0,9	,	187815	,	-19392	,	-17198	,	-23.50319	,	2
0,9	,	187831	,	-19368	,	-17200	,	-15.357228	,	5
0,9	,	187847	,	-19347	,	-17189	,	-3.4136267	,	12
0,9	,	187879	,	-19344	,	-17187	,	11.030991	,	23
0,9	,	187895	,	-19324	,	-17189	,	26.093534	,	37
0,9	,	187927	,	-19320	,	-17178	,	39.907623	,	52
0,9	,	187943	,	-19310	,	-17177	,	51.045868	,	65
0,9	,	187959	,	-19313	,	-17184	,	58.60285	,	76
0,9	,	187991	,	-19298	,	-17177	,	62.221752	,	83
0,9	,	188007	,	-19297	,	-17182	,	62.135593	,	86
0,9	,	188023	,	-19294	,	-17157	,	58.999825	,	82
0,10	,	188055	,	-19304	,	-17168	,	53.546688	,	74
0,10	,	188071	,	-19303	,	-17177	,	46.400406	,	63
0,10	,	188103	,	-19300	,	-17175	,	38.186764	,	49
0,10	,	188119	,	-19305	,	-17170	,	29.626276	,	34
0,10	,	188135	,	-19306	,	-17155	,	21.386965	,	21
0,10	,	188167	,	-19314	,	-17158	,	13.922279	,	10
0,10	,	188183	,	-19315	,	-17168	,	7.45504	,	3
0,10	,	188199	,	-19305	,	-17168	,	2.12261	,	0
0,10	,	188231	,	-19318	,	-17170	,	-1.927444	,	0
0,10	,	188247	,	-19325	,	-17169	,	-4.741398	,	0
0,10	,	188263	,	-19333	,	-17183	,	-6.666238	,	0
0,10	,	188295	,	-19348	,	-17167	,	-8.176332	,	0
0,10	,	188311	,	-19354	,	-17176	,	-9.720981	,	0
0,10	,	188343	,	-19355	,	-17182	,	-11.545668	,	0
0,10	,	188360	,	-19367	,	-17184	,	-13.598451	,	0
0,10	,	188375	,	-19364	,	-17178	,	-15.673496	,	0
0,10	,	188407	,	-19386	,	-17188	,	-17.58715	,	0
0,10	,	188423	,	-19392	,	-17187	,	-19.324272	,	0
0,10	,	188439	,	-19390	,	-17192	,	-20.938173	,	0
0,10	,	188471	,	-19408	,	-17197	,	-22.348993	,	0
0,10	,	188487	,	-19402	,	-17188	,	-23.43972	,	0
0,10	,	188519	,	-19409	,	-17208	,	-24.099987	,	0
0,10	,	188535	,	-19424	,	-17188	,	-24.255089	,	0
0,10	,	188551	,	-19438	,	-17214	,	-24.08358	,	0
0,10	,	188583	,	-19436	,	-17209	,	-23.915247	,	0
0,10	,	188599	,	-19443	,	-17219	,	-23.872555	,	0
0,10	,	188614	,	-19452	,	-17225	,	-23.863436	,	0
0,10	,	188647	,	-19458	,	-17228	,	-23.819567	,	0
0,10	,	188663	,	-19465	,	-17238	,	-23.745485	,	0
0,10	,	188679	,	-19463	,	-17237	,	-23.608475	,	0
0,10	,	188711	,	-19474	,	-17240	,	-23.30506	,	0
0,10	,	188727	,	-19480	,	-17243	,	-22.7854	,	0
0,10	,	188758	,	-19491	,	-17254	,	-22.151472	,	0
0,10	,	188775	,	-19502	,	-17237	,	-21.61041	,	0
0,10	,	188790	,	-19500	,	-17247	,	-21.329441	,	0
0,10	,	188823	,	-19479	,	-17244	,	-21.149784	,	0
0,10	,	188839	,	-19434	,	-17227	,	-20.28365	,	0
0,10	,	188855	,	-19400	,	-17209	,	-17.407135	,	0
0,10	,	188887	,	-19389	,	-17205	,	-11.422735	,	2
0,10	,	188903	,	-19367	,	-17203	,	-2.2544355	,	7
0,10	,	188934	,	-19362	,	-17200	,	9.1494255	,	16
0,10	,	188950	,	-19344	,	-17194	,	21.331944	,	27
0,10	,	188966	,	-19338	,	-17194	,	32.8215	,	39
0,10	,	188999	,	-19341	,	-17197	,	42.377903	,	50
0,10	,	189015	,	-19329	,	-17176	,	49.07689	,	59
0,11	,	189031	,	-19319	,	-17193	,	52.53116	,	65
0,11	,	189063	,	-19323	,	-17188	,	52.935585	,	68
0,11	,	189078	,	-19325	,	-17198	,	50.720036	,	66
0,11	,	189094	,	-19320	,	-17194	,	46.356224	,	61
0,11	,	189126	,	-19320	,	-17192	,	40.4506	,	52
0,11	,	189142	,	-19308	,	-17185	,	33.770412	,	41
0,11	,	189175	,	-19304	,	-17179	,	27.154192	,	29
0,11	,	189191	,	-19301	,	-17185	,	21.320107	,	18
0,11	,	189207	,	-19299	,	-17190	,	16.666435	,	9
0,11	,	189238	,	-19309	,	-17194	,	13.214619	,	3
0,11	,	189254	,	-19304	,	-17171	,	10.689193	,	0
0,11	,	189270	,	-19318	,	-17187	,	8.694189	,	0
0,11	,	189302	,	-19327	,	-17201	,	6.795002	,	0
0,11	,	189318	,	-19338	,	-17196	,	4.5522094	,	0
0,11	,	189350	,	-19327	,	-17195	,	1.7642732	,	0
0,11	,	189366	,	-19341	,	-17205	,	-1.37381	,	0
0,11	,	189382	,	-19353	,	-17205	,	-4.57928	,	0
0,11	,	189415	,	-19369	,	-17206	,	-7.8237677	,	0
0,11	,	189430	,	-19364	,	-17216	,	-11.1733675	,	0
0,11	,	189446	,	-19374	,	-17209	,	-14.479805	,	0
0,11	,	189478	,	-19384	,	-17216	,	-17.465576	,	0
0,11	,	189494	,	-19390	,	-17192	,	-19.973148	,	0
0,11	,	189526	,	-19402	,	-17218	,	-21.986633	,	0
0,11	,	189542	,	-19408	,	-17217	,	-23.558815	,	0
0,11	,	189559	,	-19409	,	-17221	,	-24.72439	,	0
0,11	,	189590	,	-19410	,	-17221	,	-25.395084	,	0
0,11	,	189606	,	-19422	,	-17223	,	-25.45045	,	0
0,11	,	189622	,	-19432	,	-17226	,	-24.966562	,	0
0,11	,	189654	,	-19435	,	-17223	,	-24.203903	,	0
0,11	,	189670	,	-19444	,	-17224	,	-23.387878	,	0
0,11	,	189686	,	-19439	,	-17238	,	-22.592869	,	0
0,11	,	189718	,	-19452	,	-17249	,	-21.77543	,	0
0,11	,	189734	,	-19456	,	-17225	,	-20.921726	,	0
0,11	,	189766	,	-19472	,	-17237	,	-20.15955	,	0
0,11	,	189782	,	-19464	,	-17246	,	-19.642014	,	0
0,11	,	189798	,	-19432	,	-17224	,	-19.148205	,	0
0,11	,	189830	,	-19398	,	-17213	,	-17.768759	,	0
0,11	,	189846	,	-19382	,	-17200	,	-14.316833	,	1
0,11	,	189862	,	-19361	,	-17200	,	-8.14886	,	4
0,11	,	189894	,	-19359	,	-17195	,	0.45612526	,	10
0,11	,	189910	,	-19340	,	-17194	,	10.496712	,	18
0,11	,	189942	,	-19340	,	-17191	,	20.701302	,	28
0,11	,	189958	,	-19342	,	-17198	,	29.813076	,	38
0,11	,	189974	,	-19339	,	-17179	,	36.72724	,	47
0,11	,	190006	,	-19332	,	-17186	,	40.777992	,	53
0,11	,	190022	,	-19335	,	-17181	,	41.886192	,	57
0,12	,	190038	,	-19339	,	-17189	,	40.34052	,	57
0,12	,	190070	,	-19342	,	-17189	,	36.574722	,	54
0,12	,	190086	,	-19351	,	-17184	,	31.105692	,	48
0,12	,	190102	,	-19345	,	-17186	,	24.52823	,	40
0,12	,	190134	,	-19346	,	-17184	,	17.551374	,	30
0,12	,	190150	,	-19343	,	-17183	,	10.92986	,	20
0,12	,	190182	,	-19334	,	-17176	,	5.314913	,	11
0,12	,	190198	,	-19351	,	-17193	,	1.1047869	,	5
0,12	,	190214	,	-19342	,	-17185	,	-1.6972785	,	1
0,12	,	190246	,	-19349	,	-17188	,	-3.3466203	,	0
0,12	,	190262	,	-19364	,	-17191	,	-4.2042584	,	0
0,12	,	190278	,	-19370	,	-17199	,	-4.787333	,	0
0,12	,	190310	,	-19374	,	-17197	,	-5.5895405	,	0
0,12	,	190326	,	-19387	,	-17206	,	-6.858607	,	0
0,12	,	190358	,	-19391	,	-17206	,	-8.6495905	,	0
0,12	,	190374	,	-19404	,	-17211	,	-10.907368	,	0
0,12	,	190390	,	-19409	,	-17204	,	-13.498312	,	0
0,12	,	190422	,	-19402	,	-17217	,	-16.157856	,	0
0,12	,	190438	,	-19417	,	-17224	,	-18.482475	,	0
0,12	,	190454	,	-19434	,	-17218	,	-20.255417	,	0
0,12	,	190486	,	-19446	,	-17223	,	-21.664213	,	0
0,12	,	190502	,	-19449	,	-17224	,	-23.004372	,	0
0,12	,	190534	,	-19452	,	-17223	,	-24.32822	,	0
0,12	,	190550	,	-19472	,	-17221	,	-25.513298	,	0
0,12	,	190566	,	-19471	,	-17231	,	-26.50543	,	0
0,12	,	190598	,	-19464	,	-17222	,	-27.199413	,	0
0,12	,	190614	,	-19483	,	-17231	,	-27.340738	,	0
0,12	,	190630	,	-19487	,	-17226	,	-26.861042	,	0
0,12	,	190662	,	-19498	,	-17232	,	-25.996344	,	0
0,12	,	190678	,	-19508	,	-17231	,	-25.060104	,	0
0,12	,	190694	,	-19504	,	-17229	,	-24.256584	,	0
0,12	,	190726	,	-19527	,	-17236	,	-23.64116	,	0
0,12	,	190742	,	-19516	,	-17230	,	-23.219053	,	0
0,12	,	190774	,	-19492	,	-17215	,	-22.74382	,	0
0,12	,	190790	,	-19452	,	-17199	,	-21.35968	,	0
0,12	,	190806	,	-19418	,	-17187	,	-17.798847	,	1
0,12	,	190838	,	-19395	,	-17184	,	-11.074271	,	4
0,12	,	190854	,	-19395	,	-17174	,	-1.1770611	,	10
0,12	,	190870	,	-19387	,	-17168	,	10.735044	,	19
0,12	,	190902	,	-19365	,	-17179	,	22.95653	,	30
0,12	,	190918	,	-19369	,	-17162	,	34.00034	,	42
0,12	,	190949	,	-19359	,	-17172	,	42.771736	,	53
0,12	,	190965	,	-19346	,	-17171	,	48.605827	,	61
0,12	,	190982	,	-19348	,	-17166	,	51.38815	,	66
0,12	,	191014	,	-19351	,	-17162	,	51.332603	,	67
0,12	,	191030	,	-19341	,	-17172	,	48.78145	,	64
0,13	,	191046	,	-19353	,	-17180	,	44.240417	,	58
0,13	,	191078	,	-19345	,	-17177	,	38.296284	,	49
0,13	,	191094	,	-19345	,	-17169	,	31.573952	,	38
0,13	,	191109	,	-19343	,	-17184	,	24.746841	,	26
0,13	,	191142	,	-19353	,	-17187	,	18.351326	,	15
0,13	,	191158	,	-19352	,	-17152	,	12.646548	,	7
0,13	,	191190	,	-19357	,	-17176	,	7.712575	,	2
0,13	,	191206	,	-19355	,	-17179	,	3.587594	,	0
0,13	,	191222	,	-19363	,	-17184	,	0.27645683	,	0
0,13	,	191253	,	-19374	,	-17192	,	-2.3541954	,	0
0,13	,	191270	,	-19378	,	-17204	,	-4.5894737	,	0
0,13	,	191286	,	-19391	,	-17197	,	-6.711801	,	0
0,13	,	191318	,	-19393	,	-17200	,	-8.893341	,	0
0,13	,	191334	,	-19406	,	-17203	,	-11.188049	,	0
0,13	,	191365	,	-19397	,	-17206	,	-13.499002	,	0
0,13	,	191381	,	-19408	,	-17221	,	-15.561464	,	0
0,13	,	191397	,	-19416	,	-17197	,	-17.137169	,	0
0,13	,	191429	,	-19426	,	-17221	,	-18.237268	,	0
0,13	,	191446	,	-19422	,	-17216	,	-18.991783	,	0
0,13	,	191462	,	-19431	,	-17216	,	-19.424011	,	0
0,13	,	191494	,	-19432	,	-17226	,	-19.495914	,	0
0,13	,	191510	,	-19454	,	-17230	,	-19.294975	,	0
0,13	,	191541	,	-19456	,	-17229	,	-19.100063	,	0
0,13	,	191558	,	-19454	,	-17237	,	-19.133392	,	0
0,13	,	191573	,	-19464	,	-17237	,	-19.32873	,	0
0,13	,	191605	,	-19459	,	-17244	,	-19.474846	,	0
0,13	,	191621	,	-19478	,	-17248	,	-19.43343	,	0
0,13	,	191637	,	-19486	,	-17224	,	-19.275383	,	0
0,13	,	191669	,	-19508	,	-17252	,	-19.30893	,	0
0,13	,	191685	,	-19520	,	-17254	,	-19.933916	,	0
0,13	,	191701	,	-19517	,	-17261	,	-21.349758	,	0
0,13	,	191734	,	-19522	,	-17261	,	-23.296633	,	0
0,13	,	191749	,	-19535	,	-17257	,	-25.25459	,	0
0,13	,	191781	,	-19528	,	-17268	,	-26.802635	,	0
0,13	,	191797	,	-19547	,	-17269	,	-27.687561	,	0
0,13	,	191813	,	-19554	,	-17260	,	-27.895855	,	0
0,13	,	191845	,	-19533	,	-17259	,	-27.514702	,	0
0,13	,	191862	,	-19513	,	-17261	,	-26.257433	,	0
0,13	,	191878	,	-19467	,	-17219	,	-23.321758	,	1
0,13	,	191909	,	-19421	,	-17224	,	-17.638268	,	3
0,13	,	191925	,	-19414	,	-17222	,	-8.459183	,	8
0,13	,	191958	,	-19411	,	-17212	,	3.8069668	,	17
0,13	,	191974	,	-19407	,	-17209	,	17.48936	,	29
0,13	,	191989	,	-19394	,	-17207	,	30.515017	,	42
0,13	,	192021	,	-19388	,	-17207	,	41.26402	,	55
0,14	,	192037	,	-19379	,	-17198	,	48.845665	,	65
0,14	,	192053	,	-19366	,	-17201	,	53.044586	,	72
0,14	,	192085	,	-19374	,	-17199	,	54.118534	,	75
0,14	,	192103	,	-19360	,	-17205	,	52.520126	,	74
0,14	,	192117	,	-19376	,	-17187	,	48.75982	,	69
0,14	,	192149	,	-19372	,	-17205	,	43.317818	,	60
0,14	,	192165	,	-19375	,	-17205	,	36.647743	,	48
0,14	,	192197	,	-19378	,	-17196	,	29.283398	,	35
0,14	,	192213	,	-19365	,	-17197	,	21.856413	,	22
0,14	,	192229	,	-19362	,	-17202	,	15.084589	,	12
0,14	,	192261	,	-19374	,	-17195	,	9.538145	,	5
0,14	,	192277	,	-19377	,	-17208	,	5.3123655	,	1
0,14	,	192293	,	-19379	,	-17204	,	2.1408677	,	0
0,14	,	192325	,	-19386	,	-17207	,	-0.29035902	,	0
0,14	,	192343	,	-19397	,	-17223	,	-2.284076	,	0
0,14	,	192373	,	-19404	,	-17204	,	-4.166344	,	0
0,14	,	192389	,	-19418	,	-17222	,	-6.2295156	,	0
0,14	,	192405	,	-19431	,	-17221	,	-8.695299	,	0
0,14	,	192437	,	-19439	,	-17226	,	-11.672871	,	0
0,14	,	192453	,	-19444	,	-17228	,	-15.055783	,	0
0,14	,	192469	,	-19461	,	-17231	,	-18.569195	,	0
0,14	,	192501	,	-19466	,	-17223	,	-21.96047	,	0
0,14	,	192517	,	-19472	,	-17229	,	-25.013739	,	0
0,14	,	192533	,	-19482	,	-17229	,	-27.496895	,	0
0,14	,	192565	,	-19474	,	-17241	,	-29.18972	,	0
0,14	,	192581	,	-19490	,	-17245	,	-29.91017	,	0
0,14	,	192613	,	-19490	,	-17235	,	-29.63964	,	0
0,14	,	192629	,	-19506	,	-17247	,	-28.605776	,	0
0,14	,	192645	,	-19513	,	-17251	,	-27.197222	,	1
0,14	,	192677	,	-19517	,	-17256	,	-25.792927	,	2
0,14	,	192693	,	-19535	,	-17253	,	-24.642746	,	3
0,14	,	192709	,	-19535	,	-17256	,	-23.904104	,	4
0,14	,	192741	,	-19549	,	-17257	,	-23.633327	,	4
0,14	,	192757	,	-19535	,	-17259	,	-23.682281	,	4
0,14	,	192789	,	-19547	,	-17268	,	-23.693316	,	4
0,14	,	192805	,	-19562	,	-17268	,	-23.401056	,	4
0,14	,	192821	,	-19555	,	-17260	,	-22.845783	,	4
0,14	,	192853	,	-19582	,	-17267	,	-22.19226	,	3
0,14	,	192869	,	-19597	,	-17274	,	-21.741785	,	2
0,14	,	192885	,	-19573	,	-17276	,	-21.766785	,	1
0,14	,	192917	,	-19576	,	-17284	,	-21.975403	,	0
0,14	,	192933	,	-19597	,	-17280	,	-21.814148	,	0
0,14	,	192965	,	-19553	,	-17260	,	-20.984097	,	0
0,14	,	192981	,	-19543	,	-17241	,	-19.054024	,	0
0,14	,	192997	,	-19496	,	-17228	,	-15.258752	,	1
0,14	,	193029	,	-19475	,	-17214	,	-8.903482	,	4
0,15	,	193045	,	-19461	,	-17211	,	0.1728468	,	10
0,15	,	193061	,	-19465	,	-17200	,	11.215725	,	19
0,15	,	193093	,	-19455	,	-17203	,	22.692612	,	30
0,15	,	193109	,	-19433	,	-17193	,	33.052288	,	41
0,15	,	193125	,	-19433	,	-17187	,	41.327072	,	51
0,15	,	193157	,	-19412	,	-17185	,	47.11105	,	59
0,15	,	193173	,	-19421	,	-17177	,	50.33319	,	64
0,15	,	193205	,	-19413	,	-17184	,	51.07493	,	66
0,15	,	193221	,	-19412	,	-17183	,	49.516884	,	63
0,15	,	193237	,	-19402	,	-17184	,	46.064175	,	57
0,15	,	193269	,	-19417	,	-17188	,	41.26403	,	48
0,15	,	193285	,	-19412	,	-17182	,	35.550034	,	37
0,15	,	193301	,	-19409	,	-17183	,	29.29274	,	26
0,15	,	193333	,	-19407	,	-17185	,	22.981554	,	16
0,15	,	193349	,	-19393	,	-17168	,	17.191107	,	8
0,15	,	193381	,	-19397	,	-17184	,	12.4499	,	3
0,15	,	193397	,	-19398	,	-17187	,	9.02022	,	0
0,15	,	193413	,	-19419	,	-17192	,	6.684987	,	0
0,15	,	193445	,	-19410	,	-17191	,	4.8862634	,	0
0,15	,	193461	,	-19428	,	-17202	,	3.1192384	,	0
0,15	,	193477	,	-19432	,	-17201	,	1.070045	,	0
0,15	,	193509	,	-19431	,	-17206	,	-1.3932848	,	0
0,15	,	193525	,	-19439	,	-17214	,	-4.141218	,	0
0,15	,	193541	,	-19456	,	-17196	,	-6.976787	,	0
0,15	,	193573	,	-19458	,	-17216	,	-9.860107	,	0
0,15	,	193589	,	-19471	,	-17218	,	-12.78343	,	0
0,15	,	193621	,	-19474	,	-17220	,	-15.653631	,	0
0,15	,	193637	,	-19482	,	-17213	,	-18.313107	,	0
0,15	,	193653	,	-19466	,	-17220	,	-20.476662	,	0
0,15	,	193685	,	-19482	,	-17229	,	-21.751291	,	0
0,15	,	193701	,	-19485	,	-17220	,	-21.959793	,	0
0,15	,	193716	,	-19482	,	-17223	,	-21.259583	,	0
0,15	,	193749	,	-19474	,	-17222	,	-19.819637	,	0
0,15	,	193765	,	-19503	,	-17237	,	-17.803104	,	1
0,15	,	193797	,	-19505	,	-17215	,	-15.676215	,	3
0,15	,	193813	,	-19512	,	-17238	,	-14.034212	,	5
0,15	,	193829	,	-19509	,	-17237	,	-13.15057	,	6
0,15	,	193860	,	-19514	,	-17238	,	-12.911877	,	6
0,15	,	193876	,	-19525	,	-17244	,	-13.081875	,	6
0,15	,	193893	,	-19524	,	-17251	,	-13.507419	,	6
0,15	,	193925	,	-19533	,	-17253	,	-14.083369	,	6
0,15	,	193941	,	-19535	,	-17251	,	-14.697298	,	6
0,15	,	193956	,	-19551	,	-17253	,	-15.304683	,	5
0,15	,	193989	,	-19529	,	-17246	,	-15.861973	,	3
0,15	,	194004	,	-19510	,	-17244	,	-15.987924	,	1
0,16	,	194036	,	-19465	,	-17206	,	-14.77524	,	0
0,16	,	194052	,	-19415	,	-17210	,	-10.978439	,	1
0,16	,	194068	,	-19405	,	-17200	,	-3.6088986	,	4
0,16	,	194100	,	-19411	,	-17196	,	7.125503	,	11
0,16	,	194117	,	-19411	,	-17189	,	19.541761	,	21
0,16	,	194133	,	-19397	,	-17196	,	31.409035	,	33
0,16	,	194165	,	-19395	,	-17195	,	41.00999	,	44
0,16	,	194181	,	-19395	,	-17193	,	47.406853	,	53
0,16	,	194212	,	-19392	,	-17187	,	50.25646	,	59
0,16	,	194228	,	-19379	,	-17194	,	49.766937	,	61
0,16	,	194244	,	-19391	,	-17210	,	46.597977	,	60
0,16	,	194277	,	-19408	,	-17187	,	41.403664	,	57
0,16	,	194293	,	-19396	,	-17200	,	34.63394	,	50
0,16	,	194309	,	-19394	,	-17192	,	26.911364	,	40
0,16	,	194341	,	-19392	,	-17191	,	19.13984	,	28
0,16	,	194357	,	-19385	,	-17191	,	12.176207	,	17
0,16	,	194388	,	-19395	,	-17195	,	6.5880575	,	8
0,16	,	194404	,	-19395	,	-17193	,	2.5294857	,	2
0,16	,	194420	,	-19402	,	-17196	,	-0.21085072	,	0
0,16	,	194453	,	-19395	,	-17198	,	-1.9655366	,	0
0,16	,	194469	,	-19404	,	-17200	,	-3.0110576	,	0
0,16	,	194484	,	-19407	,	-17217	,	-3.5985532	,	0
0,16	,	194516	,	-19417	,	-17194	,	-4.0297437	,	0
0,16	,	194532	,	-19433	,	-17216	,	-4.668105	,	0
0,16	,	194548	,	-19433	,	-17218	,	-5.855564	,	0
0,16	,	194580	,	-19436	,	-17210	,	-7.6750736	,	0
0,16	,	194596	,	-19441	,	-17216	,	-9.877943	,	0
0,16	,	194628	,	-19447	,	-17212	,	-12.11842	,	0
0,16	,	194644	,	-19461	,	-17224	,	-14.185773	,	0
0,16	,	194660	,	-19468	,	-17226	,	-16.072155	,	0
0,16	,	194692	,	-19475	,	-17225	,	-17.849222	,	0
0,16	,	194708	,	-19470	,	-17217	,	-19.459696	,	0
0,16	,	194724	,	-19481	,	-17231	,	-20.688477	,	0
0,16	,	194756	,	-19490	,	-17222	,	-21.395023	,	0
0,16	,	194772	,	-19504	,	-17230	,	-21.69978	,	0
0,16	,	194804	,	-19501	,	-17231	,	-21.838964	,	0
0,16	,	194820	,	-19525	,	-17238	,	-21.98185	,	0
0,16	,	194837	,	-19521	,	-17243	,	-22.26331	,	0
0,16	,	194868	,	-19529	,	-17247	,	-22.720036	,	0
0,16	,	194884	,	-19533	,	-17244	,	-23.211174	,	0
0,16	,	194900	,	-19534	,	-17245	,	-23.535595	,	0
0,16	,	194932	,	-19566	,	-17252	,	-23.641628	,	0
0,16	,	194948	,	-19558	,	-17247	,	-23.739803	,	0
0,16	,	194965	,	-19538	,	-17252	,	-23.868195	,	0
0,16	,	194996	,	-19500	,	-17226	,	-23.328505	,	0
0,16	,	195012	,	-19438	,	-17206	,	-20.71202	,	0
0,17	,	195044	,	-19419	,	-17198	,	-14.521306	,	2
0,17	,	195060	,	-19407	,	-17190	,	-4.232934	,	8
0,17	,	195076	,	-19400	,	-17182	,	9.136559	,	18
0,17	,	195108	,	-19395	,	-17189	,	23.570568	,	31
0,17	,	195124	,	-19397	,	-17189	,	36.8877	,	45
0,17	,	195140	,	-19386	,	-17176	,	47.32271	,	58
0,17	,	195172	,	-19375	,	-17186	,	53.93787	,	68
0,17	,	195188	,	-19373	,	-17181	,	56.67779	,	74
0,17	,	195220	,	-19369	,	-17174	,	56.02015	,	76
0,17	,	195236	,	-19375	,	-17171	,	52.615765	,	74
0,17	,	195252	,	-19375	,	-17178	,	47.116943	,	68
0,17	,	195284	,	-19386	,	-17170	,	40.124237	,	58
0,17	,	195300	,	-19380	,	-17170	,	32.2153	,	45
0,17	,	195316	,	-19379	,	-17160	,	24.040398	,	31
0,17	,	195348	,	-19370	,	-17174	,	16.34832	,	18
0,17	,	195364	,	-19363	,	-17164	,	9.876526	,	8
0,17	,	195396	,	-19368	,	-17163	,	5.1342993	,	2
0,17	,	195412	,	-19376	,	-17169	,	2.147675	,	0
0,17	,	195428	,	-19384	,	-17170	,	0.45417738	,	0
0,17	,	195460	,	-19394	,	-17164	,	-0.62273955	,	0
0,17	,	195476	,	-19387	,	-17163	,	-1.636787	,	0
0,17	,	195492	,	-19418	,	-17178	,	-2.9070632	,	0
0,17	,	195524	,	-19420	,	-17172	,	-4.722059	,	0
0,17	,	195540	,	-19415	,	-17174	,	-7.2300453	,	0
0,17	,	195556	,	-19429	,	-17173	,	-10.167178	,	0
0,17	,	195588	,	-19428	,	-17177	,	-13.101254	,	0
0,17	,	195604	,	-19436	,	-17176	,	-15.69953	,	0
0,17	,	195636	,	-19446	,	-17183	,	-17.768457	,	0
0,17	,	195652	,	-19450	,	-17186	,	-19.295769	,	0
0,17	,	195668	,	-19453	,	-17186	,	-20.34388	,	0
0,17	,	195700	,	-19470	,	-17184	,	-20.984344	,	0
0,17	,	195716	,	-19461	,	-17192	,	-21.32769	,	0
0,17	,	195732	,	-19484	,	-17206	,	-21.457169	,	0
0,17	,	195764	,	-19481	,	-17213	,	-21.45969	,	0
0,17	,	195780	,	-19498	,	-17206	,	-21.470036	,	0
0,17	,	195812	,	-19502	,	-17211	,	-21.616718	,	0
0,17	,	195828	,	-19513	,	-17220	,	-21.98668	,	0
0,17	,	195844	,	-19508	,	-17213	,	-22.528137	,	0
0,17	,	195876	,	-19528	,	-17227	,	-23.06087	,	0
0,17	,	195892	,	-19528	,	-17226	,	-23.4816	,	0
0,17	,	195908	,	-19527	,	-17242	,	-23.740658	,	0
0,17	,	195940	,	-19533	,	-17221	,	-23.677376	,	0
0,17	,	195956	,	-19550	,	-17240	,	-23.210407	,	0
0,17	,	195972	,	-19503	,	-17222	,	-22.304243	,	0
0,17	,	196004	,	-19461	,	-17202	,	-20.301632	,	0
0,17	,	196020	,	-19424	,	-17186	,	-15.871761	,	2
0,18	,	196051	,	-19401	,	-17187	,	-7.994336	,	6
0,18	,	196068	,	-19391	,	-17176	,	3.2317514	,	13
0,18	,	196084	,	-19370	,	-17176	,	16.62117	,	24
0,18	,	196116	,	-19366	,	-17166	,	30.467	,	37
0,18	,	196132	,	-19357	,	-17168	,	43.0558	,	50
0,18	,	196148	,	-19344	,	-17177	,	53.02351	,	62
0,18	,	196180	,	-19339	,	-17151	,	59.619083	,	71
0,18	,	196196	,	-19320	,	-17160	,	62.73353	,	77
0,18	,	196228	,	-19307	,	-17160	,	62.81996	,	78
0,18	,	196244	,	-19315	,	-17158	,	60.603348	,	74
0,18	,	196260	,	-19319	,	-17156	,	56.598213	,	67
0,18	,	196291	,	-19314	,	-17164	,	51.0672	,	56
0,18	,	196307	,	-19322	,	-17158	,	44.331345	,	43
0,18	,	196325	,	-19309	,	-17155	,	36.87587	,	30
0,18	,	196356	,	-19306	,	-17153	,	29.345785	,	18
0,18	,	196372	,	-19306	,	-17162	,	22.423243	,	9
0,18	,	196388	,	-19304	,	-17168	,	16.567368	,	3
0,18	,	196420	,	-19316	,	-17149	,	11.894281	,	0
0,18	,	196436	,	-19321	,	-17166	,	8.189001	,	0
0,18	,	196467	,	-19333	,	-17169	,	5.030954	,	0
0,18	,	196483	,	-19340	,	-17169	,	2.0009794	,	0
0,18	,	196499	,	-19350	,	-17176	,	-1.1817546	,	0
0,18	,	196532	,	-19354	,	-17181	,	-4.6005898	,	0
0,18	,	196548	,	-19364	,	-17183	,	-8.160394	,	0
0,18	,	196564	,	-19374	,	-17190	,	-11.703841	,	0
0,18	,	196595	,	-19380	,	-17192	,	-15.101652	,	0
0,18	,	196611	,	-19398	,	-17193	,	-18.271908	,	0
0,18	,	196643	,	-19405	,	-17208	,	-21.206383	,	0
0,18	,	196660	,	-19409	,	-17191	,	-23.884405	,	0
0,18	,	196676	,	-19422	,	-17200	,	-26.184044	,	0
0,18	,	196708	,	-19426	,	-17205	,	-27.980995	,	0
0,18	,	196724	,	-19421	,	-17207	,	-29.143444	,	0
0,18	,	196740	,	-19446	,	-17214	,	-29.547228	,	0
0,18	,	196771	,	-19454	,	-17214	,	-29.341072	,	0
0,18	,	196787	,	-19444	,	-17223	,	-28.820963	,	0
0,18	,	196803	,	-19463	,	-17221	,	-28.060051	,	0
0,18	,	196835	,	-19468	,	-17225	,	-27.078903	,	0
0,18	,	196852	,	-19476	,	-17227	,	-26.04932	,	0
0,18	,	196884	,	-19486	,	-17247	,	-25.152607	,	1
0,18	,	196899	,	-19495	,	-17218	,	-24.517101	,	1
0,18	,	196915	,	-19506	,	-17234	,	-24.237286	,	1
0,18	,	196947	,	-19511	,	-17235	,	-24.337242	,	1
0,18	,	196963	,	-19519	,	-17253	,	-24.732216	,	1
0,18	,	196979	,	-19533	,	-17246	,	-25.295542	,	1
0,18	,	197011	,	-19537	,	-17250	,	-25.953962	,	1
0,18	,	197027	,	-19545	,	-17253	,	-26.631016	,	1
0,19	,	197059	,	-19532	,	-17253	,	-27.104008	,	1
0,19	,	197075	,	-19511	,	-17242	,	-26.857548	,	0
0,19	,	197091	,	-19469	,	-17216	,	-25.011093	,	0
0,19	,	197123	,	-19443	,	-17218	,	-20.53257	,	1
0,19	,	197140	,	-19414	,	-17196	,	-12.7622385	,	5
0,19	,	197156	,	-19395	,	-17191	,	-1.8304033	,	12
0,19	,	197187	,	-19385	,	-17198	,	11.312102	,	22
0,19	,	197203	,	-19372	,	-17192	,	25.146023	,	35
0,19	,	197219	,	-19375	,	-17186	,	37.97521	,	48
0,19	,	197251	,	-19366	,	-17180	,	48.2933	,	60
0,19	,	197267	,	-19356	,	-17182	,	55.130978	,	70
0,19	,	197299	,	-19355	,	-17174	,	58.238647	,	76
0,19	,	197315	,	-19353	,	-17170	,	57.891174	,	78
0,19	,	197331	,	-19350	,	-17179	,	54.6385	,	74
0,19	,	197363	,	-19353	,	-17183	,	49.18928	,	67
0,19	,	197379	,	-19348	,	-17163	,	42.306564	,	57
0,19	,	197395	,	-19354	,	-17172	,	34.724144	,	44
0,19	,	197427	,	-19354	,	-17173	,	27.06138	,	31
0,19	,	197443	,	-19356	,	-17185	,	19.785286	,	19
0,19	,	197475	,	-19358	,	-17173	,	13.24478	,	9
0,19	,	197491	,	-19353	,	-17179	,	7.700343	,	3
0,19	,	197507	,	-19358	,	-17173	,	3.328762	,	0
0,19	,	197539	,	-19359	,	-17174	,	0.15799522	,	0
0,19	,	197555	,	-19374	,	-17188	,	-2.023762	,	0
0,19	,	197571	,	-19375	,	-17191	,	-3.6255102	,	0
0,19	,	197603	,	-19390	,	-17200	,	-5.0735354	,	0
0,19	,	197619	,	-19391	,	-17178	,	-6.6738434	,	0
0,19	,	197651	,	-19410	,	-17195	,	-8.596183	,	0
0,19	,	197667	,	-19418	,	-17184	,	-10.941869	,	0
0,19	,	197683	,	-19418	,	-17195	,	-13.702024	,	0
0,19	,	197715	,	-19432	,	-17178	,	-16.650719	,	0
0,19	,	197731	,	-19445	,	-17196	,	-19.526724	,	0
0,19	,	197747	,	-19447	,	-17199	,	-22.201519	,	0
0,19	,	197779	,	-19442	,	-17195	,	-24.477829	,	0
0,19	,	197795	,	-19447	,	-17207	,	-25.97708	,	0
0,19	,	197811	,	-19455	,	-17195	,	-26.414238	,	0
0,19	,	197843	,	-19467	,	-17216	,	-25.873299	,	0
0,19	,	197859	,	-19471	,	-17199	,	-24.738106	,	0
0,19	,	197891	,	-19491	,	-17205	,	-23.477436	,	1
0,19	,	197907	,	-19492	,	-17198	,	-22.514736	,	2
0,19	,	197923	,	-19501	,	-17203	,	-22.078793	,	2
0,19	,	197955	,	-19502	,	-17209	,	-22.11279	,	2
0,19	,	197971	,	-19517	,	-17219	,	-22.418346	,	2
0,19	,	197987	,	-19521	,	-17213	,	-22.856218	,	2
0,19	,	198019	,	-19522	,	-17215	,	-23.325012	,	2
0,20	,	198035	,	-19541	,	-17225	,	-23.706959	,	2
0,20	,	198067	,	-19534	,	-17231	,	-23.95214	,	2
0,20	,	198083	,	-19536	,	-17238	,	-23.975914	,	1
0,20	,	198099	,	-19525	,	-17213	,	-23.50593	,	0
0,20	,	198131	,	-19450	,	-17191	,	-21.846386	,	0
0,20	,	198147	,	-19419	,	-17183	,	-17.637657	,	1
0,20	,	198163	,	-19411	,	-17184	,	-9.704124	,	5
0,20	,	198195	,	-19405	,	-17180	,	1.6913681	,	12
0,20	,	198211	,	-19391	,	-17172	,	14.954358	,	23
0,20	,	198227	,	-19392	,	-17174	,	28.10564	,	36
0,20	,	198259	,	-19381	,	-17177	,	39.40463	,	49
0,20	,	198275	,	-19384	,	-17174	,	47.635033	,	60
0,20	,	198307	,	-19376	,	-17176	,	52.209564	,	68
0,20	,	198325	,	-19364	,	-17183	,	53.19536	,	72
0,20	,	198339	,	-19383	,	-17167	,	51.131584	,	71
0,20	,	198371	,	-19373	,	-17174	,	46.62738	,	67
0,20	,	198387	,	-19380	,	-17170	,	40.29754	,	60
0,20	,	198403	,	-19376	,	-17170	,	32.884277	,	49
0,20	,	198435	,	-19362	,	-17178	,	25.23192	,	36
0,20	,	198451	,	-19371	,	-17172	,	18.183334	,	23
0,20	,	198483	,	-19364	,	-17166	,	12.316483	,	12
0,20	,	198499	,	-19362	,	-17170	,	7.8647175	,	4
0,20	,	198515	,	-19367	,	-17172	,	4.831687	,	0
0,20	,	198547	,	-19367	,	-17175	,	2.9835978	,	0
0,20	,	198563	,	-19374	,	-17187	,	1.9196658	,	0
0,20	,	198579	,	-19360	,	-17172	,	1.2991276	,	0
0,20	,	198611	,	-19390	,	-17184	,	0.88118446	,	0
0,20	,	198627	,	-19388	,	-17188	,	0.3037449	,	0
0,20	,	198658	,	-19394	,	-17193	,	-0.8185745	,	0
0,20	,	198675	,	-19395	,	-17189	,	-2.5597131	,	0
0,20	,	198691	,	-19405	,	-17194	,	-4.733622	,	0
0,20	,	198723	,	-19404	,	-17196	,	-7.1019807	,	0
0,20	,	198739	,	-19410	,	-17203	,	-9.418546	,	0
0,20	,	198755	,	-19426	,	-17192	,	-11.518505	,	0
0,20	,	198786	,	-19422	,	-17208	,	-13.397711	,	0
0,20	,	198803	,	-19428	,	-17201	,	-15.036991	,	0
0,20	,	198819	,	-19434	,	-17205	,	-16.31821	,	0
0,20	,	198851	,	-19462	,	-17212	,	-17.297585	,	0
0,20	,	198867	,	-19455	,	-17214	,	-18.289711	,	0
0,20	,	198898	,	-19464	,	-17222	,	-19.478317	,	0
0,20	,	198914	,	-19472	,	-17214	,	-20.740974	,	0
0,20	,	198931	,	-19487	,	-17221	,	-21.94912	,	0
0,20	,	198963	,	-19488	,	-17226	,	-23.101559	,	0
0,20	,	198979	,	-19503	,	-17229	,	-24.192879	,	0
0,20	,	198995	,	-19516	,	-17230	,	-25.23339	,	0
0,20	,	199027	,	-19501	,	-17235	,	-26.20114	,	0
0,21	,	199042	,	-19508	,	-17229	,	-26.80518	,	0
0,21	,	199074	,	-19495	,	-17217	,	-26.579649	,	0
0,21	,	199091	,	-19414	,	-17201	,	-24.784042	,	0
0,21	,	199107	,	-19409	,	-17181	,	-20.165144	,	1
0,21	,	199139	,	-19397	,	-17189	,	-11.9191475	,	5
0,21	,	199154	,	-19378	,	-17194	,	-0.6290798	,	13
0,21	,	199170	,	-19380	,	-17183	,	12.190959	,	24
0,21	,	199202	,	-19369	,	-17161	,	24.778053	,	36
0,21	,	199218	,	-19369	,	-17187	,	35.536297	,	48
0,21	,	199235	,	-19360	,	-17176	,	43.376278	,	58
0,21	,	199267	,	-19363	,	-17182	,	47.805668	,	65
0,21	,	199282	,	-19368	,	-17162	,	48.79158	,	69
0,21	,	199316	,	-19374	,	-17176	,	46.572563	,	68
0,21	,	199330	,	-19361	,	-17186	,	41.68389	,	64
0,21	,	199346	,	-19365	,	-17182	,	35.032974	,	56
0,21	,	199378	,	-19371	,	-17170	,	27.624142	,	45
0,21	,	199394	,	-19373	,	-17171	,	20.20793	,	33
0,21	,	199411	,	-19361	,	-17180	,	13.333361	,	21
0,21	,	199443	,	-19374	,	-17181	,	7.4776745	,	11
0,21	,	199458	,	-19373	,	-17174	,	2.8794737	,	4
0,21	,	199490	,	-19380	,	-17188	,	-0.53937054	,	0
0,21	,	199506	,	-19378	,	-17189	,	-2.98895	,	0
0,21	,	199522	,	-19393	,	-17177	,	-4.7163286	,	0
0,21	,	199554	,	-19389	,	-17195	,	-6.011206	,	0
0,21	,	199570	,	-19406	,	-17191	,	-7.1431804	,	0
0,21	,	199586	,	-19414	,	-17202	,	-8.368343	,	0
0,21	,	199618	,	-19425	,	-17201	,	-9.938475	,	0
0,21	,	199634	,	-19424	,	-17196	,	-11.935654	,	0
0,21	,	199651	,	-19437	,	-17206	,	-14.198072	,	0
0,21	,	199682	,	-19442	,	-17211	,	-16.492386	,	0
0,21	,	199698	,	-19449	,	-17215	,	-18.64469	,	0
0,21	,	199730	,	-19456	,	-17212	,	-20.522346	,	0
0,21	,	199746	,	-19466	,	-17210	,	-22.046185	,	0
0,21	,	199762	,	-19467	,	-17203	,	-23.194279	,	0
0,21	,	199794	,	-19478	,	-17213	,	-23.947239	,	0
0,21	,	199810	,	-19490	,	-17230	,	-24.348375	,	0
0,21	,	199826	,	-19494	,	-17226	,	-24.551529	,	0
0,21	,	199858	,	-19500	,	-17228	,	-24.6759	,	0
0,21	,	199874	,	-19530	,	-17234	,	-24.835377	,	0
0,21	,	199906	,	-19527	,	-17236	,	-25.279915	,	0
0,21	,	199922	,	-19537	,	-17236	,	-26.144104	,	0
0,21	,	199938	,	-19515	,	-17238	,	-27.120111	,	0
0,21	,	199970	,	-19540	,	-17241	,	-27.625443	,	0
0,21	,	199986	,	-19552	,	-17249	,	-27.395926	,	0
0,21	,	200002	,	-19553	,	-17235	,	-26.68129	,	0
0,22	,	200034	,	-19558	,	-17246	,	-25.780563	,	0
0,22	,	200050	,	-19553	,	-17231	,	-24.744038	,	0
0,22	,	200082	,	-19504	,	-17215	,	-23.20432	,	1
0,22	,	200098	,	-19473	,	-17196	,	-20.160753	,	2
0,22	,	200114	,	-19436	,	-17196	,	-14.400671	,	5
0,22	,	200146	,	-19429	,	-17188	,	-5.372283	,	10
0,22	,	200162	,	-19424	,	-17185	,	6.298585	,	19
0,22	,	200178	,	-19421	,	-17167	,	18.99429	,	30
0,22	,	200210	,	-19403	,	-17167	,	30.884672	,	42
0,22	,	200226	,	-19405	,	-17171	,	40.60476	,	53
0,22	,	200242	,	-19394	,	-17140	,	47.369953	,	62
0,22	,	200274	,	-19380	,	-17159	,	50.95512	,	67
0,22	,	200290	,	-19383	,	-17148	,	51.65254	,	69
0,22	,	200322	,	-19385	,	-17154	,	49.935448	,	66
0,22	,	200338	,	-19395	,	-17161	,	46.168015	,	61
0,22	,	200354	,	-19384	,	-17163	,	40.70441	,	52
0,22	,	200386	,	-19388	,	-17153	,	34.104065	,	41
0,22	,	200402	,	-19380	,	-17154	,	27.098715	,	29
0,22	,	200418	,	-19386	,	-17154	,	20.375013	,	18
0,22	,	200450	,	-19382	,	-17149	,	14.411463	,	9
0,22	,	200466	,	-19380	,	-17147	,	9.474386	,	3
0,22	,	200498	,	-19383	,	-17148	,	5.68114	,	0
0,22	,	200514	,	-19403	,	-17164	,	2.890709	,	0
0,22	,	200530	,	-19415	,	-17173	,	0.5951848	,	0
0,22	,	200562	,	-19413	,	-17172	,	-1.7787378	,	0
0,22	,	200578	,	-19420	,	-17177	,	-4.4436016	,	0
0,22	,	200594	,	-19428	,	-17185	,	-7.283547	,	0
0,22	,	200626	,	-19430	,	-17186	,	-10.109149	,	0
0,22	,	200642	,	-19442	,	-17188	,	-12.746311	,	0
0,22	,	200658	,	-19458	,	-17191	,	-15.14295	,	0
0,22	,	200690	,	-19464	,	-17197	,	-17.417343	,	0
0,22	,	200706	,	-19464	,	-17207	,	-19.627182	,	0
0,22	,	200738	,	-19475	,	-17194	,	-21.622742	,	0
0,22	,	200754	,	-19476	,	-17204	,	-23.200987	,	0
0,22	,	200770	,	-19488	,	-17215	,	-24.243862	,	0
0,22	,	200802	,	-19489	,	-17207	,	-24.73383	,	0
0,22	,	200818	,	-19486	,	-17218	,	-24.666891	,	0
0,22	,	200834	,	-19500	,	-17221	,	-24.011173	,	0
0,22	,	200866	,	-19510	,	-17226	,	-22.90176	,	0
0,22	,	200882	,	-19528	,	-17223	,	-21.749928	,	1
0,22	,	200914	,	-19525	,	-17219	,	-20.999792	,	2
0,22	,	200930	,	-19521	,	-17236	,	-20.743752	,	2
0,22	,	200946	,	-19531	,	-17243	,	-20.684172	,	2
0,22	,	200978	,	-19546	,	-17225	,	-20.572128	,	2
0,22	,	200994	,	-19552	,	-17238	,	-20.475964	,	2
0,22	,	201010	,	-19554	,	-17245	,	-20.542877	,	2
0,23	,	201042	,	-19563	,	-17243	,	-20.757872	,	2
0,23	,	201058	,	-19565	,	-17254	,	-21.002567	,	2
0,23	,	201074	,	-19576	,	-17252	,	-21.178278	,	1
0,23	,	201106	,	-19578	,	-17251	,	-21.249245	,	0
0,23	,	201122	,	-19554	,	-17249	,	-21.065998	,	0
0,23	,	201154	,	-19519	,	-17232	,	-20.005114	,	0
0,23	,	201170	,	-19479	,	-17213	,	-16.961504	,	1
0,23	,	201185	,	-19451	,	-17212	,	-10.888405	,	4
0,23	,	201217	,	-19429	,	-17194	,	-1.4421082	,	10
0,23	,	201234	,	-19415	,	-17195	,	10.748533	,	19
0,23	,	201250	,	-19406	,	-17192	,	24.278553	,	31
0,23	,	201282	,	-19409	,	-17181	,	37.35251	,	44
0,23	,	201298	,	-19408	,	-17193	,	48.18527	,	57
0,23	,	201329	,	-19399	,	-17192	,	55.465565	,	67
0,23	,	201346	,	-19399	,	-17182	,	58.684532	,	74
0,23	,	201361	,	-19396	,	-17182	,	58.05092	,	76
0,23	,	201393	,	-19394	,	-17185	,	54.213882	,	73
0,23	,	201409	,	-19398	,	-17191	,	48.037884	,	67
0,23	,	201426	,	-19411	,	-17200	,	40.34502	,	58
0,23	,	201458	,	-19403	,	-17183	,	31.80495	,	46
0,23	,	201474	,	-19408	,	-17190	,	23.093668	,	33
0,23	,	201489	,	-19398	,	-17188	,	14.956215	,	20
0,23	,	201522	,	-19401	,	-17184	,	8.057119	,	10
0,23	,	201538	,	-19410	,	-17186	,	2.7556925	,	3
0,23	,	201570	,	-19409	,	-17192	,	-1.0040455	,	0
0,23	,	201586	,	-19413	,	-17193	,	-3.5026522	,	0
0,23	,	201602	,	-19421	,	-17190	,	-5.0615206	,	0
0,23	,	201634	,	-19425	,	-17191	,	-6.0460625	,	0
0,23	,	201649	,	-19433	,	-17198	,	-6.822382	,	0
0,23	,	201666	,	-19442	,	-17208	,	-7.6846466	,	0
0,23	,	201698	,	-19453	,	-17197	,	-8.851261	,	0
0,23	,	201714	,	-19461	,	-17213	,	-10.45893	,	0
0,23	,	201745	,	-19475	,	-17210	,	-12.550602	,	0
0,23	,	201762	,	-19482	,	-17221	,	-15.089392	,	0
0,23	,	201778	,	-19482	,	-17223	,	-17.89498	,	0
0,23	,	201809	,	-19506	,	-17222	,	-20.676632	,	0
0,23	,	201825	,	-19508	,	-17221	,	-23.263107	,	0
0,23	,	201841	,	-19513	,	-17230	,	-25.567898	,	0
0,23	,	201873	,	-19515	,	-17230	,	-27.38537	,	0
0,23	,	201889	,	-19513	,	-17234	,	-28.422876	,	0
0,23	,	201921	,	-19532	,	-17235	,	-28.506695	,	0
0,23	,	201938	,	-19533	,	-17237	,	-27.776142	,	0
0,23	,	201953	,	-19548	,	-17244	,	-26.604473	,	0
0,23	,	201985	,	-19552	,	-17243	,	-25.371891	,	1
0,23	,	202001	,	-19561	,	-17250	,	-24.347462	,	2
0,23	,	202017	,	-19573	,	-17247	,	-23.678104	,	3
0,24	,	202049	,	-19575	,	-17253	,	-23.422276	,	3
0,24	,	202066	,	-19567	,	-17256	,	-23.437256	,	3
0,24	,	202082	,	-19595	,	-17258	,	-23.43144	,	3
0,24	,	202113	,	-19573	,	-17256	,	-23.228035	,	3
0,24	,	202129	,	-19585	,	-17261	,	-22.673088	,	3
0,24	,	202161	,	-19591	,	-17270	,	-21.622534	,	3
0,24	,	202177	,	-19590	,	-17265	,	-20.155937	,	3
0,24	,	202193	,	-19559	,	-17231	,	-18.283262	,	3
0,24	,	202225	,	-19530	,	-17221	,	-15.504613	,	3
0,24	,	202241	,	-19501	,	-17207	,	-10.976933	,	5
0,24	,	202257	,	-19473	,	-17199	,	-4.061943	,	9
0,24	,	202289	,	-19472	,	-17208	,	5.2085967	,	15
0,24	,	202308	,	-19463	,	-17203	,	15.9337635	,	24
0,24	,	202337	,	-19457	,	-17209	,	26.65977	,	34
0,24	,	202353	,	-19444	,	-17198	,	36.02097	,	44
0,24	,	202369	,	-19450	,	-17194	,	43.071842	,	52
0,24	,	202401	,	-19433	,	-17187	,	47.30358	,	58
0,24	,	202417	,	-19444	,	-17198	,	48.63382	,	61
0,24	,	202433	,	-19446	,	-17188	,	47.242893	,	60
0,24	,	202465	,	-19454	,	-17188	,	43.396255	,	56
0,24	,	202481	,	-19456	,	-17188	,	37.505917	,	50
0,24	,	202497	,	-19436	,	-17185	,	30.295425	,	41
0,24	,	202529	,	-19435	,	-17188	,	22.829609	,	31
0,24	,	202545	,	-19430	,	-17180	,	16.165638	,	21
0,24	,	202577	,	-19431	,	-17179	,	10.936425	,	12
0,24	,	202593	,	-19433	,	-17173	,	7.2829294	,	5
0,24	,	202609	,	-19434	,	-17183	,	4.9877515	,	1
0,24	,	202641	,	-19430	,	-17163	,	3.6866298	,	0
0,24	,	202657	,	-19447	,	-17180	,	2.9879942	,	0
0,24	,	202673	,	-19447	,	-17175	,	2.431053	,	0
0,24	,	202705	,	-19455	,	-17176	,	1.5906475	,	0
0,24	,	202721	,	-19470	,	-17173	,	0.19719219	,	0
0,24	,	202753	,	-19469	,	-17180	,	-1.889349	,	0
0,24	,	202769	,	-19469	,	-17185	,	-4.558972	,	0
0,24	,	202785	,	-19486	,	-17192	,	-7.473444	,	0
0,24	,	202817	,	-19487	,	-17188	,	-10.371399	,	0
0,24	,	202833	,	-19482	,	-17193	,	-13.0513935	,	0
0,24	,	202849	,	-19496	,	-17204	,	-15.233428	,	0
0,24	,	202881	,	-19504	,	-17176	,	-16.783491	,	0
0,24	,	202897	,	-19513	,	-17196	,	-17.846106	,	0
0,24	,	202913	,	-19509	,	-17199	,	-18.603113	,	0
0,24	,	202945	,	-19520	,	-17210	,	-19.085274	,	0
0,24	,	202961	,	-19518	,	-17208	,	-19.256996	,	0
0,24	,	202993	,	-19526	,	-17211	,	-19.112629	,	0
0,24	,	203009	,	-19526	,	-17216	,	-18.66917	,	0
0,24	,	203025	,	-19533	,	-17219	,	-17.971832	,	0
0,25	,	203057	,	-19531	,	-17222	,	-17.085331	,	0
0,25	,	203073	,	-19546	,	-17220	,	-16.09845	,	0
0,25	,	203089	,	-19555	,	-17226	,	-15.213458	,	0
0,25	,	203121	,	-19555	,	-17214	,	-14.687643	,	0
0,25	,	203137	,	-19532	,	-17213	,	-14.46755	,	0
0,25	,	203169	,	-19482	,	-17198	,	-13.788816	,	0
0,25	,	203185	,	-19454	,	-17188	,	-11.271633	,	0
0,25	,	203201	,	-19441	,	-17182	,	-5.785677	,	2
0,25	,	203233	,	-19434	,	-17175	,	2.6753426	,	7
0,25	,	203249	,	-19416	,	-17180	,	13.052244	,	15
0,25	,	203265	,	-19411	,	-17166	,	23.89435	,	25
0,25	,	203298	,	-19403	,	-17173	,	33.835274	,	35
0,25	,	203313	,	-19403	,	-17172	,	41.766872	,	44
0,25	,	203345	,	-19395	,	-17184	,	46.96359	,	51
0,25	,	203361	,	-19404	,	-17161	,	49.12289	,	56
0,25	,	203377	,	-19394	,	-17166	,	48.30609	,	58
0,25	,	203408	,	-19402	,	-17150	,	44.90384	,	56
0,25	,	203425	,	-19401	,	-17174	,	39.526855	,	51
0,25	,	203441	,	-19391	,	-17169	,	32.912216	,	43
0,25	,	203473	,	-19394	,	-17161	,	25.912174	,	33
0,25	,	203489	,	-19389	,	-17170	,	19.309095	,	23
0,25	,	203505	,	-19387	,	-17167	,	13.644244	,	14
0,25	,	203537	,	-19381	,	-17173	,	9.240991	,	7
0,25	,	203552	,	-19389	,	-17173	,	6.185751	,	2
0,25	,	203585	,	-19391	,	-17190	,	4.268182	,	0
0,25	,	203601	,	-19396	,	-17159	,	3.0764384	,	0
0,25	,	203617	,	-19410	,	-17177	,	2.1359463	,	0
0,25	,	203649	,	-19411	,	-17189	,	0.9910257	,	0
0,25	,	203665	,	-19419	,	-17179	,	-0.634673	,	0
0,25	,	203681	,	-19427	,	-17180	,	-2.7798517	,	0
0,25	,	203713	,	-19438	,	-17186	,	-5.387607	,	0
0,25	,	203729	,	-19452	,	-17195	,	-8.411241	,	0
0,25	,	203761	,	-19459	,	-17191	,	-11.801143	,	0
0,25	,	203777	,	-19458	,	-17193	,	-15.372463	,	0
0,25	,	203793	,	-19466	,	-17201	,	-18.737034	,	0
0,25	,	203825	,	-19473	,	-17209	,	-21.503279	,	0
0,25	,	203840	,	-19479	,	-17190	,	-23.480625	,	0
0,25	,	203856	,	-19499	,	-17212	,	-24.723646	,	0
0,25	,	203889	,	-19501	,	-17209	,	-25.490486	,	0
0,25	,	203905	,	-19513	,	-17218	,	-26.044607	,	0
0,25	,	203921	,	-19522	,	-17214	,	-26.522362	,	0
0,25	,	203953	,	-19508	,	-17218	,	-26.88681	,	0
0,25	,	203968	,	-19524	,	-17222	,	-26.88472	,	0
0,25	,	204000	,	-19531	,	-17217	,	-26.33493	,	0
0,25	,	204016	,	-19494	,	-17216	,	-25.1604	,	0
0,25	,	204032	,	-19472	,	-17197	,	-22.872055	,	1
0,26	,	204065	,	-19434	,	-17185	,	-18.56953	,	3
0,26	,	204081	,	-19417	,	-17168	,	-11.555538	,	7
0,26	,	204097	,	-19383	,	-17164	,	-1.7618752	,	14
0,26	,	204129	,	-19385	,	-17161	,	10.16584	,	23
0,26	,	204145	,	-19373	,	-17160	,	22.925152	,	34
0,26	,	204177	,	-19367	,	-17157	,	34.890316	,	46
0,26	,	204193	,	-19364	,	-17157	,	44.639328	,	57
0,26	,	204209	,	-19347	,	-17154	,	51.296944	,	66
0,26	,	204240	,	-19347	,	-17152	,	54.647064	,	71
0,26	,	204256	,	-19345	,	-17146	,	54.937504	,	72
0,26	,	204272	,	-19355	,	-17154	,	52.52883	,	68
0,26	,	204304	,	-19350	,	-17155	,	47.80531	,	61
0,26	,	204321	,	-19348	,	-17146	,	41.33351	,	52
0,26	,	204353	,	-19341	,	-17157	,	33.929832	,	41
0,26	,	204368	,	-19347	,	-17149	,	26.454258	,	29
0,26	,	204384	,	-19345	,	-17153	,	19.53505	,	18
0,26	,	204416	,	-19346	,	-17151	,	13.514795	,	9
0,26	,	204432	,	-19351	,	-17144	,	8.53921	,	3
0,26	,	204448	,	-19353	,	-17153	,	4.5915546	,	0
0,26	,	204480	,	-19357	,	-17150	,	1.5332665	,	0
0,26	,	204497	,	-19359	,	-17124	,	-0.8209915	,	0
0,26	,	204513	,	-19368	,	-17154	,	-2.6719174	,	0
0,26	,	204545	,	-19376	,	-17167	,	-4.253263	,	0
0,26	,	204561	,	-19394	,	-17159	,	-5.868381	,	0
0,26	,	204592	,	-19392	,	-17166	,	-7.8109717	,	0
0,26	,	204608	,	-19408	,	-17171	,	-10.181544	,	0
0,26	,	204624	,	-19414	,	-17165	,	-12.893665	,	0
0,26	,	204656	,	-19423	,	-17161	,	-15.794349	,	0
0,26	,	204672	,	-19425	,	-17183	,	-18.65835	,	0
0,26	,	204688	,	-19439	,	-17183	,	-21.225658	,	0
0,26	,	204720	,	-19441	,	-17185	,	-23.320723	,	0
0,26	,	204736	,	-19447	,	-17188	,	-24.847515	,	0
0,26	,	204768	,	-19452	,	-17192	,	-25.734146	,	0
0,26	,	204784	,	-19456	,	-17189	,	-25.961622	,	0
0,26	,	204800	,	-19465	,	-17196	,	-25.59788	,	0
0,26	,	204832	,	-19484	,	-17198	,	-24.866993	,	0
0,26	,	204848	,	-19488	,	-17195	,	-24.15343	,	0
0,26	,	204864	,	-19487	,	-17193	,	-23.718235	,	0
0,26	,	204896	,	-19476	,	-17187	,	-23.402027	,	0
0,26	,	204912	,	-19443	,	-17175	,	-22.561743	,	0
0,26	,	204928	,	-19405	,	-17162	,	-20.139503	,	0
0,26	,	204960	,	-19368	,	-17140	,	-14.971918	,	2
0,26	,	204976	,	-19341	,	-17142	,	-6.350853	,	7
0,26	,	205008	,	-19334	,	-17123	,	5.4727936	,	15
0,26	,	205024	,	-19321	,	-17119	,	19.203022	,	26
0,27	,	205040	,	-19320	,	-17110	,	32.957195	,	39
0,27	,	205072	,	-19294	,	-17117	,	44.978603	,	52
0,27	,	205088	,	-19286	,	-17117	,	54.185112	,	64
0,27	,	205104	,	-19274	,	-17100	,	60.20765	,	73
0,27	,	205136	,	-19273	,	-17106	,	63.070576	,	79
0,27	,	205152	,	-19276	,	-17108	,	62.940075	,	79
0,27	,	205184	,	-19281	,	-17070	,	60.01844	,	74
0,27	,	205200	,	-19278	,	-17106	,	54.618393	,	66
0,27	,	205216	,	-19274	,	-17103	,	47.337593	,	55
0,27	,	205248	,	-19277	,	-17092	,	39.0185	,	42
0,27	,	205264	,	-19279	,	-17074	,	30.472975	,	29
0,27	,	205280	,	-19277	,	-17103	,	22.318136	,	17
0,27	,	205312	,	-19275	,	-17114	,	15.029869	,	8
0,27	,	205328	,	-19287	,	-17119	,	8.917929	,	2
0,27	,	205344	,	-19292	,	-17126	,	3.9903526	,	0
0,27	,	205376	,	-19294	,	-17114	,	0.03412962	,	0
0,27	,	205392	,	-19300	,	-17112	,	-3.1614943	,	0
0,27	,	205424	,	-19308	,	-17136	,	-5.768241	,	0
0,27	,	205440	,	-19310	,	-17122	,	-7.949687	,	0
0,27	,	205456	,	-19313	,	-17140	,	-9.78578	,	0
0,27	,	205488	,	-19325	,	-17149	,	-11.292518	,	0
0,27	,	205504	,	-19328	,	-17122	,	-12.545987	,	0
0,27	,	205520	,	-19346	,	-17151	,	-13.708928	,	0
0,27	,	205552	,	-19352	,	-17160	,	-14.996672	,	0
0,27	,	205568	,	-19353	,	-17154	,	-16.533634	,	0
0,27	,	205600	,	-19364	,	-17165	,	-18.218164	,	0
0,27	,	205616	,	-19369	,	-17164	,	-19.854658	,	0
0,27	,	205632	,	-19374	,	-17165	,	-21.283382	,	0
0,27	,	205664	,	-19381	,	-17167	,	-22.36998	,	0
0,27	,	205680	,	-19382	,	-17175	,	-23.019192	,	0
0,27	,	205696	,	-19386	,	-17173	,	-23.168959	,	0
0,27	,	205728	,	-19387	,	-17187	,	-22.774326	,	0
0,27	,	205744	,	-19389	,	-17166	,	-21.827042	,	0
0,27	,	205776	,	-19395	,	-17186	,	-20.396921	,	0
0,27	,	205792	,	-19413	,	-17183	,	-18.734612	,	1
0,27	,	205808	,	-19417	,	-17188	,	-17.281597	,	2
0,27	,	205840	,	-19420	,	-17193	,	-16.400326	,	3
0,27	,	205856	,	-19430	,	-17191	,	-16.16299	,	3
0,27	,	205872	,	-19433	,	-17200	,	-16.457983	,	3
0,27	,	205904	,	-19412	,	-17185	,	-16.981901	,	3
0,27	,	205920	,	-19365	,	-17168	,	-16.9057	,	3
0,27	,	205936	,	-19326	,	-17160	,	-14.80728	,	3
0,27	,	205968	,	-19304	,	-17161	,	-9.372412	,	5
0,27	,	205984	,	-19292	,	-17137	,	-0.3107977	,	9
0,27	,	206016	,	-19262	,	-17139	,	11.521528	,	17
0,28	,	206032	,	-19252	,	-17140	,	24.721874	,	27
0,28	,	206048	,	-19252	,	-17136	,	37.71743	,	40
0,28	,	206079	,	-19248	,	-17133	,	48.866714	,	52
0,28	,	206095	,	-19244	,	-17136	,	56.818443	,	63
0,28	,	206112	,	-19232	,	-17128	,	60.922546	,	70
0,28	,	206144	,	-19230	,	-17130	,	61.29229	,	74
0,28	,	206160	,	-19238	,	-17128	,	58.4768	,	72
0,28	,	206192	,	-19246	,	-17130	,	53.056488	,	67
0,28	,	206208	,	-19251	,	-17146	,	45.56343	,	58
0,28	,	206224	,	-19249	,	-17120	,	36.647243	,	47
0,28	,	206256	,	-19251	,	-17143	,	27.145105	,	34
0,28	,	206272	,	-19244	,	-17142	,	17.968233	,	22
0,28	,	206289	,	-19242	,	-17136	,	9.943266	,	11
0,28	,	206319	,	-19255	,	-17145	,	3.5970917	,	4
0,28	,	206336	,	-19264	,	-17142	,	-1.0660114	,	0
0,28	,	206352	,	-19264	,	-17144	,	-4.4273324	,	0
0,28	,	206384	,	-19274	,	-17159	,	-6.8873796	,	0
0,28	,	206400	,	-19282	,	-17153	,	-8.774438	,	0
0,28	,	206431	,	-19282	,	-17155	,	-10.363989	,	0
0,28	,	206447	,	-19296	,	-17169	,	-11.812148	,	0
0,28	,	206463	,	-19296	,	-17141	,	-13.186174	,	0
0,28	,	206496	,	-19316	,	-17171	,	-14.55051	,	0
0,28	,	206512	,	-19312	,	-17172	,	-15.980434	,	0
0,28	,	206528	,	-19318	,	-17175	,	-17.44004	,	0
0,28	,	206560	,	-19336	,	-17178	,	-18.800203	,	0
0,28	,	206575	,	-19333	,	-17180	,	-20.027786	,	0
0,28	,	206608	,	-19345	,	-17183	,	-21.118114	,	0
0,28	,	206624	,	-19354	,	-17183	,	-22.033699	,	0
0,28	,	206640	,	-19364	,	-17191	,	-22.81528	,	0
0,28	,	206671	,	-19360	,	-17194	,	-23.495289	,	0
0,28	,	206687	,	-19372	,	-17200	,	-23.976772	,	0
0,28	,	206703	,	-19379	,	-17190	,	-24.169909	,	0
0,28	,	206735	,	-19391	,	-17203	,	-24.143747	,	0
0,28	,	206752	,	-19397	,	-17209	,	-24.061842	,	0
0,28	,	206784	,	-19407	,	-17211	,	-24.056938	,	0
0,28	,	206800	,	-19422	,	-17213	,	-24.230312	,	0
0,28	,	206816	,	-19432	,	-17219	,	-24.704979	,	0
0,28	,	206847	,	-19430	,	-17212	,	-25.504013	,	0
0,28	,	206864	,	-19449	,	-17225	,	-26.454706	,	0
0,28	,	206879	,	-19448	,	-17216	,	-27.359922	,	0
0,28	,	206912	,	-19455	,	-17222	,	-28.06734	,	0
0,28	,	206928	,	-19463	,	-17220	,	-28.424297	,	0
0,28	,	206944	,	-19457	,	-17214	,	-28.303185	,	0
0,28	,	206976	,	-19378	,	-17186	,	-27.160294	,	0
0,28	,	206992	,	-19349	,	-17176	,	-23.58126	,	1
0,28	,	207023	,	-19332	,	-17178	,	-16.181938	,	4
0,29	,	207039	,	-19322	,	-17171	,	-4.938217	,	11
0,29	,	207055	,	-19328	,	-17165	,	8.702168	,	22
0,29	,	207088	,	-19308	,	-17163	,	22.61063	,	35
0,29	,	207103	,	-19317	,	-17166	,	34.831017	,	48
0,29	,	207119	,	-19290	,	-17152	,	44.06768	,	60
0,29	,	207151	,	-19290	,	-17153	,	49.843246	,	69
0,29	,	207168	,	-19288	,	-17153	,	52.30877	,	74
0,29	,	207199	,	-19292	,	-17130	,	51.809273	,	75
0,29	,	207215	,	-19296	,	-17151	,	48.706207	,	72
0,29	,	207231	,	-19298	,	-17159	,	43.43623	,	65
0,29	,	207263	,	-19294	,	-17159	,	36.598854	,	54
0,29	,	207279	,	-19294	,	-17158	,	28.973898	,	41
0,29	,	207295	,	-19298	,	-17124	,	21.353226	,	28
0,29	,	207327	,	-19290	,	-17154	,	14.372978	,	16
0,29	,	207343	,	-19294	,	-17156	,	8.490207	,	7
0,29	,	207359	,	-19299	,	-17124	,	3.9206295	,	2
0,29	,	207391	,	-19301	,	-17153	,	0.58807516	,	0
0,29	,	207407	,	-19302	,	-17148	,	-1.7349021	,	0
0,29	,	207439	,	-19307	,	-17154	,	-3.2868671	,	0
0,29	,	207455	,	-19323	,	-17153	,	-4.369602	,	0
0,29	,	207471	,	-19326	,	-17164	,	-5.3917427	,	0
0,29	,	207503	,	-19334	,	-17156	,	-6.68853	,	0
0,29	,	207519	,	-19334	,	-17160	,	-8.337489	,	0
0,29	,	207535	,	-19342	,	-17162	,	-10.196403	,	0
0,29	,	207567	,	-19344	,	-17169	,	-12.051997	,	0
0,29	,	207583	,	-19358	,	-17164	,	-13.753682	,	0
0,29	,	207615	,	-19356	,	-17158	,	-15.255806	,	0
0,29	,	207631	,	-19360	,	-17170	,	-16.506172	,	0
0,29	,	207647	,	-19369	,	-17157	,	-17.40719	,	0
0,29	,	207679	,	-19370	,	-17171	,	-17.93187	,	0
0,29	,	207695	,	-19387	,	-17184	,	-18.173054	,	0
0,29	,	207711	,	-19400	,	-17177	,	-18.373741	,	0
0,29	,	207743	,	-19403	,	-17185	,	-18.8377	,	0
0,29	,	207759	,	-19413	,	-17191	,	-19.685513	,	0
0,29	,	207775	,	-19421	,	-17191	,	-20.834255	,	0
0,29	,	207807	,	-19423	,	-17197	,	-22.118216	,	0
0,29	,	207823	,	-19437	,	-17197	,	-23.34404	,	0
0,29	,	207855	,	-19439	,	-17209	,	-24.370571	,	0
0,29	,	207871	,	-19445	,	-17218	,	-25.109306	,	0
0,29	,	207887	,	-19441	,	-17202	,	-25.428093	,	0
0,29	,	207919	,	-19444	,	-17210	,	-25.1377	,	0
0,29	,	207935	,	-19383	,	-17190	,	-23.805824	,	0
0,29	,	207951	,	-19352	,	-17177	,	-20.433104	,	1
0,29	,	207983	,	-19330	,	-17168	,	-13.92246	,	4
0,29	,	207999	,	-19337	,	-17162	,	-4.1761913	,	10
0,29	,	208031	,	-19322	,	-17166	,	7.598337	,	19
0,30	,	208047	,	-19314	,	-17169	,	19.646091	,	30
0,30	,	208063	,	-19311	,	-17164	,	30.431938	,	42
0,30	,	208095	,	-19304	,	-17166	,	38.859104	,	52
0,30	,	208111	,	-19301	,	-17166	,	44.308674	,	60
0,30	,	208127	,	-19305	,	-17152	,	46.60989	,	65
0,30	,	208159	,	-19290	,	-17160	,	45.96757	,	66
0,30	,	208175	,	-19297	,	-17162	,	42.95077	,	63
0,30	,	208191	,	-19300	,	-17175	,	38.258297	,	57
0,30	,	208223	,	-19299	,	-17166	,	32.469273	,	48
0,30	,	208239	,	-19297	,	-17165	,	26.124285	,	37
0,30	,	208271	,	-19294	,	-17164	,	19.81288	,	25
0,30	,	208287	,	-19294	,	-17163	,	14.078228	,	15
0,30	,	208303	,	-19299	,	-17165	,	9.264679	,	7
0,30	,	208335	,	-19297	,	-17174	,	5.455225	,	2
0,30	,	208351	,	-19303	,	-17180	,	2.5617542	,	0
0,30	,	208367	,	-19310	,	-17175	,	0.39219522	,	0
0,30	,	208399	,	-19324	,	-17185	,	-1.3776047	,	0
0,30	,	208415	,	-19332	,	-17183	,	-3.1666305	,	0
0,30	,	208447	,	-19337	,	-17190	,	-5.2999454	,	0
0,30	,	208463	,	-19340	,	-17193	,	-7.8202686	,	0
0,30	,	208479	,	-19351	,	-17194	,	-10.534696	,	0
0,30	,	208511	,	-19352	,	-17194	,	-13.204962	,	0
0,30	,	208527	,	-19364	,	-17191	,	-15.640375	,	0
0,30	,	208543	,	-19368	,	-17199	,	-17.725311	,	0
0,30	,	208575	,	-19373	,	-17201	,	-19.398848	,	0
0,30	,	208591	,	-19385	,	-17221	,	-20.633898	,	0
0,30	,	208607	,	-19400	,	-17195	,	-21.540554	,	0
0,30	,	208639	,	-19413	,	-17218	,	-22.4049	,	0
0,30	,	208655	,	-19417	,	-17206	,	-23.488186	,	0
0,30	,	208687	,	-19432	,	-17212	,	-24.84214	,	0
0,30	,	208702	,	-19432	,	-17223	,	-26.338062	,	0
0,30	,	208718	,	-19436	,	-17224	,	-27.71375	,	0
0,30	,	208751	,	-19450	,	-17224	,	-28.678009	,	0
0,30	,	208767	,	-19440	,	-17228	,	-29.049969	,	0
0,30	,	208783	,	-19460	,	-17230	,	-28.74743	,	0
0,30	,	208815	,	-19466	,	-17235	,	-27.874641	,	0
0,30	,	208831	,	-19473	,	-17247	,	-26.739641	,	0
0,30	,	208863	,	-19500	,	-17224	,	-25.711765	,	1
0,30	,	208879	,	-19508	,	-17253	,	-25.217033	,	2
0,30	,	208894	,	-19516	,	-17248	,	-25.558674	,	2
0,30	,	208927	,	-19494	,	-17237	,	-26.523891	,	2
0,30	,	208943	,	-19462	,	-17230	,	-27.166788	,	2
0,30	,	208959	,	-19418	,	-17212	,	-25.966152	,	2
0,30	,	208991	,	-19405	,	-17205	,	-21.504528	,	3
0,30	,	209007	,	-19394	,	-17206	,	-13.354894	,	7
0,31	,	209038	,	-19383	,	-17203	,	-2.3429403	,	15
0,31	,	209055	,	-19376	,	-17193	,	9.985915	,	25
0,31	,	209070	,	-19368	,	-17201	,	21.99205	,	36
0,31	,	209103	,	-19367	,	-17174	,	32.28505	,	48
0,31	,	209119	,	-19362	,	-17187	,	39.883156	,	58
0,31	,	209135	,	-19358	,	-17183	,	44.303997	,	65
0,31	,	209167	,	-19353	,	-17189	,	45.58763	,	69
0,31	,	209182	,	-19356	,	-17180	,	44.15457	,	69
0,31	,	209199	,	-19353	,	-17188	,	40.588345	,	65
0,31	,	209230	,	-19360	,	-17192	,	35.500626	,	57
0,31	,	209246	,	-19365	,	-17186	,	29.439968	,	46
0,31	,	209281	,	-19372	,	-17196	,	22.839893	,	34
0,31	,	209295	,	-19359	,	-17192	,	16.132423	,	22
0,31	,	209311	,	-19367	,	-17203	,	9.865213	,	12
0,31	,	209343	,	-19365	,	-17180	,	4.5392513	,	5
0,31	,	209359	,	-19372	,	-17196	,	0.38882256	,	1
0,31	,	209374	,	-19390	,	-17200	,	-2.7028718	,	0
0,31	,	209406	,	-19391	,	-17196	,	-5.1495285	,	0
0,31	,	209423	,	-19402	,	-17207	,	-7.3735433	,	0
0,31	,	209454	,	-19401	,	-17198	,	-9.566732	,	0
0,31	,	209470	,	-19414	,	-17203	,	-11.722136	,	0
0,31	,	209486	,	-19421	,	-17210	,	-13.790198	,	0
0,31	,	209519	,	-19424	,	-17214	,	-15.741665	,	0
0,31	,	209534	,	-19430	,	-17222	,	-17.49089	,	0
0,31	,	209550	,	-19431	,	-17219	,	-18.886541	,	0
0,31	,	209582	,	-19450	,	-17211	,	-19.849728	,	0
0,31	,	209598	,	-19463	,	-17229	,	-20.547037	,	0
0,31	,	209614	,	-19467	,	-17231	,	-21.296791	,	0
0,31	,	209646	,	-19469	,	-17235	,	-22.224716	,	0
0,31	,	209662	,	-19484	,	-17232	,	-23.208324	,	0
0,31	,	209694	,	-19490	,	-17236	,	-24.128244	,	0
0,31	,	209710	,	-19504	,	-17236	,	-24.976595	,	0
0,31	,	209726	,	-19494	,	-17230	,	-25.715641	,	0
0,31	,	209758	,	-19508	,	-17232	,	-26.157526	,	0
0,31	,	209774	,	-19517	,	-17228	,	-26.16074	,	0
0,31	,	209790	,	-19508	,	-17255	,	-25.746233	,	0
0,31	,	209822	,	-19517	,	-17227	,	-24.886742	,	0
0,31	,	209838	,	-19556	,	-17238	,	-23.712147	,	0
0,31	,	209870	,	-19549	,	-17242	,	-22.783787	,	1
0,31	,	209886	,	-19568	,	-17245	,	-22.613445	,	1
0,31	,	209902	,	-19555	,	-17242	,	-23.196566	,	1
0,31	,	209934	,	-19583	,	-17244	,	-24.182484	,	1
0,31	,	209950	,	-19564	,	-17246	,	-25.191437	,	1
0,31	,	209966	,	-19577	,	-17249	,	-25.85009	,	1
0,31	,	209998	,	-19550	,	-17225	,	-25.711601	,	1
0,31	,	210014	,	-19513	,	-17220	,	-24.117722	,	1
0,32	,	210030	,	-19481	,	-17210	,	-20.134228	,	2
0,32	,	210062	,	-19465	,	-17189	,	-13.051401	,	4
0,32	,	210078	,	-19442	,	-17190	,	-2.9724283	,	11
0,32	,	210110	,	-19440	,	-17199	,	9.160062	,	21
0,32	,	210126	,	-19424	,	-17192	,	21.878056	,	33
0,32	,	210142	,	-19422	,	-17191	,	33.62379	,	45
0,32	,	210174	,	-19421	,	-17192	,	43.090633	,	56
0,32	,	210190	,	-19425	,	-17184	,	49.3359	,	65
0,32	,	210206	,	-19406	,	-17192	,	51.95634	,	71
0,32	,	210238	,	-19412	,	-17190	,	51.23963	,	72
0,32	,	210254	,	-19407	,	-17184	,	47.89627	,	69
0,32	,	210286	,	-19411	,	-17197	,	42.687958	,	62
0,32	,	210302	,	-19411	,	-17189	,	36.309387	,	52
0,32	,	210318	,	-19423	,	-17198	,	29.32904	,	40
0,32	,	210350	,	-19416	,	-17200	,	22.181837	,	28
0,32	,	210366	,	-19421	,	-17198	,	15.287111	,	17
0,32	,	210382	,	-19408	,	-17199	,	9.119739	,	8
0,32	,	210414	,	-19412	,	-17196	,	4.138895	,	2
0,32	,	210430	,	-19429	,	-17192	,	0.52487373	,	0
0,32	,	210462	,	-19428	,	-17204	,	-1.9893627	,	0
0,32	,	210478	,	-19435	,	-17207	,	-3.8416088	,	0
0,32	,	210494	,	-19430	,	-17204	,	-5.3050885	,	0
0,32	,	210526	,	-19444	,	-17213	,	-6.489096	,	0
0,32	,	210542	,	-19444	,	-17214	,	-7.5025826	,	0
0,32	,	210558	,	-19466	,	-17217	,	-8.546384	,	0
0,32	,	210590	,	-19463	,	-17214	,	-9.860126	,	0
0,32	,	210606	,	-19468	,	-17221	,	-11.514459	,	0
0,32	,	210622	,	-19471	,	-17221	,	-13.309128	,	0
0,32	,	210654	,	-19470	,	-17222	,	-14.927568	,	0
0,32	,	210670	,	-19487	,	-17231	,	-16.139788	,	0
0,32	,	210702	,	-19489	,	-17235	,	-16.94602	,	0
0,32	,	210718	,	-19484	,	-17233	,	-17.440796	,	0
0,32	,	210734	,	-19494	,	-17238	,	-17.592007	,	0
0,32	,	210766	,	-19503	,	-17231	,	-17.393078	,	0
0,32	,	210782	,	-19503	,	-17252	,	-16.992088	,	0
0,32	,	210798	,	-19513	,	-17249	,	-16.543829	,	0
0,32	,	210830	,	-19512	,	-17253	,	-16.131943	,	0
0,32	,	210846	,	-19538	,	-17252	,	-15.867195	,	0
0,32	,	210878	,	-19542	,	-17252	,	-15.999504	,	0
0,32	,	210894	,	-19557	,	-17257	,	-16.793327	,	0
0,32	,	210910	,	-19536	,	-17257	,	-18.179943	,	0
0,32	,	210942	,	-19564	,	-17264	,	-19.710957	,	0
0,32	,	210958	,	-19568	,	-17265	,	-21.039783	,	0
0,32	,	210974	,	-19572	,	-17273	,	-22.136658	,	0
0,32	,	211006	,	-19569	,	-17260	,	-22.945457	,	0
0,32	,	211022	,	-19575	,	-17272	,	-23.260777	,	0
0,33	,	211038	,	-19562	,	-17265	,	-22.867264	,	0
0,33	,	211070	,	-19531	,	-17241	,	-21.419357	,	0
0,33	,	211086	,	-19495	,	-17240	,	-18.22245	,	1
0,33	,	211118	,	-19485	,	-17226	,	-12.534416	,	4
0,33	,	211134	,	-19459	,	-17227	,	-4.2090607	,	9
0,33	,	211150	,	-19460	,	-17227	,	6.0974665	,	17
0,33	,	211182	,	-19457	,	-17220	,	17.114136	,	27
0,33	,	211198	,	-19453	,	-17223	,	27.30362	,	38
0,33	,	211214	,	-19446	,	-17219	,	35.383045	,	48
0,33	,	211245	,	-19441	,	-17196	,	40.66716	,	56
0,33	,	211262	,	-19430	,	-17213	,	43.08548	,	61
0,33	,	211294	,	-19432	,	-17213	,	43.005314	,	62
0,33	,	211310	,	-19441	,	-17208	,	40.884544	,	59
0,33	,	211326	,	-19436	,	-17210	,	37.07161	,	54
0,33	,	211357	,	-19432	,	-17211	,	31.993301	,	46
0,33	,	211374	,	-19437	,	-17209	,	26.250679	,	36
0,33	,	211390	,	-19433	,	-17207	,	20.41575	,	25
0,33	,	211422	,	-19423	,	-17209	,	14.985546	,	15
0,33	,	211438	,	-19417	,	-17202	,	10.473846	,	7
0,33	,	211453	,	-19429	,	-17217	,	7.222085	,	2
0,33	,	211485	,	-19438	,	-17202	,	5.091281	,	0
0,33	,	211501	,	-19436	,	-17215	,	3.585723	,	0
0,33	,	211534	,	-19439	,	-17212	,	2.2885113	,	0
0,33	,	211550	,	-19450	,	-17225	,	0.9774618	,	0
0,33	,	211566	,	-19460	,	-17217	,	-0.55646026	,	0
0,33	,	211597	,	-19469	,	-17216	,	-2.5368953	,	0
0,33	,	211613	,	-19472	,	-17222	,	-5.051255	,	0
0,33	,	211629	,	-19475	,	-17224	,	-7.9440165	,	0
0,33	,	211661	,	-19485	,	-17223	,	-10.9025345	,	0
0,33	,	211677	,	-19480	,	-17225	,	-13.612724	,	0
0,33	,	211709	,	-19488	,	-17239	,	-15.793061	,	0
0,33	,	211725	,	-19484	,	-17218	,	-17.219332	,	0
0,33	,	211741	,	-19516	,	-17238	,	-17.902222	,	0
0,33	,	211774	,	-19529	,	-17235	,	-18.288645	,	0
0,33	,	211790	,	-19518	,	-17235	,	-18.935429	,	0
0,33	,	211806	,	-19526	,	-17242	,	-19.90424	,	0
0,33	,	211838	,	-19531	,	-17236	,	-20.86221	,	0
0,33	,	211853	,	-19535	,	-17243	,	-21.532413	,	0
0,33	,	211885	,	-19542	,	-17238	,	-21.792652	,	0
0,33	,	211902	,	-19553	,	-17252	,	-21.673687	,	0
0,33	,	211917	,	-19553	,	-17245	,	-21.329174	,	0
0,33	,	211949	,	-19557	,	-17257	,	-20.861006	,	0
0,33	,	211965	,	-19557	,	-17234	,	-20.237873	,	0
0,33	,	211981	,	-19573	,	-17255	,	-19.44442	,	0
0,33	,	212013	,	-19562	,	-17260	,	-18.557497	,	0
0,33	,	212030	,	-19566	,	-17252	,	-17.56824	,	0
0,34	,	212045	,	-19570	,	-17246	,	-16.366928	,	0
0,34	,	212077	,	-19530	,	-17233	,	-14.755244	,	1
0,34	,	212093	,	-19497	,	-17217	,	-12.10271	,	2
0,34	,	212125	,	-19471	,	-17212	,	-7.4393272	,	4
0,34	,	212141	,	-19464	,	-17202	,	-0.25361013	,	8
0,34	,	212157	,	-19457	,	-17203	,	8.976387	,	15
0,34	,	212190	,	-19465	,	-17209	,	18.93547	,	24
0,34	,	212205	,	-19452	,	-17185	,	28.03531	,	33
0,34	,	212221	,	-19450	,	-17196	,	35.05463	,	42
0,34	,	212253	,	-19446	,	-17194	,	39.41448	,	49
0,34	,	212269	,	-19434	,	-17182	,	41.086197	,	52
0,34	,	212301	,	-19450	,	-17174	,	40.376137	,	52
0,34	,	212317	,	-19441	,	-17185	,	37.65535	,	50
0,34	,	212333	,	-19444	,	-17177	,	33.348824	,	46
0,34	,	212365	,	-19440	,	-17176	,	28.042278	,	39
0,34	,	212381	,	-19433	,	-17176	,	22.401857	,	30
0,34	,	212397	,	-19423	,	-17171	,	17.118917	,	21
0,34	,	212429	,	-19427	,	-17196	,	12.786752	,	12
0,34	,	212445	,	-19426	,	-17137	,	9.652793	,	5
0,34	,	212461	,	-19443	,	-17175	,	7.5259867	,	1
0,34	,	212493	,	-19441	,	-17177	,	5.920493	,	0
0,34	,	212509	,	-19450	,	-17174	,	4.3515606	,	0
0,34	,	212541	,	-19456	,	-17183	,	2.5206118	,	0
0,34	,	212557	,	-19455	,	-17187	,	0.32871413	,	0
0,34	,	212573	,	-19470	,	-17192	,	-2.1561272	,	0
0,34	,	212605	,	-19475	,	-17190	,	-4.8454523	,	0
0,34	,	212621	,	-19487	,	-17194	,	-7.7160935	,	0
0,34	,	212637	,	-19479	,	-17201	,	-10.667743	,	0
0,34	,	212669	,	-19487	,	-17211	,	-13.402866	,	0
0,34	,	212685	,	-19490	,	-17193	,	-15.579111	,	0
0,34	,	212717	,	-19508	,	-17219	,	-17.087467	,	0
0,34	,	212733	,	-19513	,	-17220	,	-18.121124	,	0
0,34	,	212749	,	-19517	,	-17218	,	-18.950115	,	0
0,34	,	212781	,	-19513	,	-17230	,	-19.634869	,	0
0,34	,	212797	,	-19524	,	-17225	,	-20.027458	,	0
0,34	,	212813	,	-19532	,	-17232	,	-20.048637	,	0
0,34	,	212845	,	-19546	,	-17234	,	-19.85602	,	0
0,34	,	212861	,	-19535	,	-17236	,	-19.65946	,	0
0,34	,	212877	,	-19541	,	-17227	,	-19.432112	,	0
0,34	,	212909	,	-19556	,	-17249	,	-19.037992	,	0
0,34	,	212925	,	-19561	,	-17227	,	-18.557848	,	0
0,34	,	212957	,	-19560	,	-17241	,	-18.17274	,	0
0,34	,	212973	,	-19573	,	-17243	,	-17.927471	,	0
0,34	,	212989	,	-19570	,	-17248	,	-17.78864	,	0
0,34	,	213021	,	-19569	,	-17239	,	-17.654797	,	0
0,35	,	213037	,	-19549	,	-17244	,	-17.215225	,	0
0,35	,	213053	,	-19514	,	-17218	,	-15.818113	,	0
0,35	,	213085	,	-19475	,	-17208	,	-12.481954	,	1
0,35	,	213101	,	-19453	,	-17202	,	-6.3120985	,	4
0,35	,	213133	,	-19437	,	-17198	,	2.8571286	,	10
0,35	,	213149	,	-19421	,	-17201	,	14.248497	,	19
0,35	,	213165	,	-19410	,	-17182	,	26.502426	,	30
0,35	,	213197	,	-19400	,	-17181	,	38.146236	,	42
0,35	,	213213	,	-19389	,	-17179	,	47.92395	,	53
0,35	,	213229	,	-19385	,	-17183	,	54.98752	,	62
0,35	,	213262	,	-19380	,	-17176	,	58.91697	,	69
0,35	,	213277	,	-19385	,	-17169	,	59.630165	,	71
0,35	,	213293	,	-19387	,	-17177	,	57.28311	,	68
0,35	,	213325	,	-19383	,	-17180	,	52.279526	,	62
0,35	,	213341	,	-19383	,	-17181	,	45.324203	,	53
0,35	,	213373	,	-19389	,	-17181	,	37.27221	,	42
0,35	,	213389	,	-19381	,	-17181	,	28.92297	,	30
0,35	,	213405	,	-19388	,	-17173	,	20.968893	,	19
0,35	,	213437	,	-19390	,	-17172	,	13.907774	,	10
0,35	,	213453	,	-19390	,	-17180	,	7.975543	,	3
0,35	,	213469	,	-19399	,	-17178	,	3.2135868	,	0
0,35	,	213501	,	-19399	,	-17179	,	-0.48394156	,	0
0,35	,	213517	,	-19413	,	-17187	,	-3.3422139	,	0
0,35	,	213549	,	-19423	,	-17186	,	-5.695597	,	0
0,35	,	213565	,	-19424	,	-17195	,	-7.887828	,	0
0,35	,	213581	,	-19437	,	-17195	,	-10.093011	,	0
0,35	,	213613	,	-19445	,	-17202	,	-12.354351	,	0
0,35	,	213629	,	-19448	,	-17196	,	-14.65763	,	0
0,35	,	213645	,	-19451	,	-17202	,	-16.853607	,	0
0,35	,	213677	,	-19471	,	-17214	,	-18.76588	,	0
0,35	,	213693	,	-19474	,	-17212	,	-20.404297	,	0
0,35	,	213725	,	-19489	,	-17212	,	-21.894157	,	0
0,35	,	213741	,	-19495	,	-17219	,	-23.321896	,	0
0,35	,	213757	,	-19494	,	-17218	,	-24.660526	,	0
0,35	,	213789	,	-19500	,	-17219	,	-25.710302	,	0
0,35	,	213805	,	-19510	,	-17220	,	-26.251646	,	0
0,35	,	213821	,	-19509	,	-17232	,	-26.223577	,	0
0,35	,	213853	,	-19508	,	-17236	,	-25.615211	,	0
0,35	,	213868	,	-19528	,	-17232	,	-24.44974	,	0
0,35	,	213885	,	-19532	,	-17236	,	-22.982399	,	1
0,35	,	213917	,	-19538	,	-17239	,	-21.595171	,	2
0,35	,	213933	,	-19541	,	-17244	,	-20.50092	,	3
0,35	,	213965	,	-19560	,	-17247	,	-19.774117	,	4
0,35	,	213981	,	-19573	,	-17240	,	-19.56844	,	4
0,35	,	213997	,	-19579	,	-17251	,	-20.07447	,	4
0,35	,	214028	,	-19589	,	-17242	,	-21.286877	,	4
0,36	,	214044	,	-19562	,	-17248	,	-22.823797	,	4
0,36	,	214061	,	-19556	,	-17239	,	-23.855328	,	4
0,36	,	214092	,	-19518	,	-17234	,	-23.309496	,	3
0,36	,	214108	,	-19481	,	-17205	,	-20.134083	,	2
0,36	,	214140	,	-19449	,	-17206	,	-13.510352	,	4
0,36	,	214157	,	-19426	,	-17192	,	-3.2642756	,	9
0,36	,	214173	,	-19414	,	-17190	,	9.848946	,	19
0,36	,	214205	,	-19409	,	-17191	,	24.269886	,	32
0,36	,	214221	,	-19397	,	-17172	,	38.088818	,	46
0,36	,	214236	,	-19390	,	-17171	,	49.63188	,	59
0,36	,	214269	,	-19383	,	-17169	,	57.81908	,	70
0,36	,	214285	,	-19384	,	-17169	,	62.175564	,	78
0,36	,	214300	,	-19389	,	-17167	,	62.664616	,	82
0,36	,	214332	,	-19378	,	-17184	,	59.61857	,	79
0,36	,	214348	,	-19386	,	-17164	,	53.76382	,	73
0,36	,	214380	,	-19389	,	-17163	,	46.001762	,	63
0,36	,	214396	,	-19382	,	-17176	,	37.193462	,	50
0,36	,	214412	,	-19389	,	-17178	,	28.18841	,	36
0,36	,	214445	,	-19390	,	-17165	,	19.718964	,	23
0,36	,	214460	,	-19382	,	-17165	,	12.296713	,	12
0,36	,	214476	,	-19387	,	-17170	,	6.2874784	,	4
0,36	,	214509	,	-19388	,	-17171	,	1.855299	,	0
0,36	,	214524	,	-19395	,	-17184	,	-1.1292686	,	0
0,36	,	214556	,	-19403	,	-17177	,	-3.0319884	,	0
0,36	,	214574	,	-19411	,	-17185	,	-4.3423924	,	0
0,36	,	214588	,	-19420	,	-17165	,	-5.5376697	,	0
0,36	,	214621	,	-19419	,	-17183	,	-6.9214115	,	0
0,36	,	214637	,	-19437	,	-17184	,	-8.578446	,	0
0,36	,	214652	,	-19443	,	-17175	,	-10.531685	,	0
0,36	,	214684	,	-19457	,	-17182	,	-12.826257	,	0
0,36	,	214700	,	-19470	,	-17178	,	-15.478195	,	0
0,36	,	214732	,	-19470	,	-17184	,	-18.410435	,	0
0,36	,	214748	,	-19479	,	-17189	,	-21.363253	,	0
0,36	,	214764	,	-19471	,	-17179	,	-23.912807	,	0
0,36	,	214796	,	-19479	,	-17185	,	-25.607397	,	0
0,36	,	214813	,	-19502	,	-17180	,	-26.26386	,	0
0,36	,	214828	,	-19506	,	-17178	,	-26.181843	,	0
0,36	,	214860	,	-19518	,	-17195	,	-25.852661	,	0
0,36	,	214876	,	-19517	,	-17191	,	-25.568447	,	0
0,36	,	214892	,	-19514	,	-17194	,	-25.296606	,	0
0,36	,	214924	,	-19518	,	-17194	,	-24.767973	,	0
0,36	,	214940	,	-19535	,	-17212	,	-23.818058	,	0
0,36	,	214972	,	-19538	,	-17205	,	-22.614841	,	0
0,36	,	214988	,	-19549	,	-17210	,	-21.471554	,	1
0,36	,	215004	,	-19556	,	-17214	,	-20.62513	,	2
0,37	,	215036	,	-19550	,	-17218	,	-20.135998	,	2
0,37	,	215052	,	-19571	,	-17241	,	-19.896858	,	2
0,37	,	215068	,	-19559	,	-17213	,	-19.787403	,	2
0,37	,	215100	,	-19579	,	-17230	,	-19.708378	,	2
0,37	,	215116	,	-19560	,	-17215	,	-19.520023	,	2
0,37	,	215148	,	-19522	,	-17204	,	-18.786148	,	2
0,37	,	215164	,	-19463	,	-17188	,	-16.378975	,	2
0,37	,	215180	,	-19450	,	-17182	,	-10.875964	,	3
0,37	,	215212	,	-19425	,	-17177	,	-1.6806269	,	7
0,37	,	215228	,	-19431	,	-17171	,	10.41979	,	16
0,37	,	215244	,	-19422	,	-17168	,	23.615107	,	28
0,37	,	215276	,	-19409	,	-17166	,	35.887093	,	41
0,37	,	215292	,	-19395	,	-17176	,	45.78476	,	53
0,37	,	215308	,	-19396	,	-17153	,	52.603443	,	62
0,37	,	215340	,	-19384	,	-17160	,	56.137375	,	68
0,37	,	215356	,	-19381	,	-17166	,	56.56172	,	71
0,37	,	215388	,	-19375	,	-17167	,	54.373528	,	69
0,37	,	215404	,	-19386	,	-17166	,	50.168297	,	64
0,37	,	215420	,	-19373	,	-17171	,	44.486176	,	55
0,37	,	215452	,	-19383	,	-17156	,	37.880466	,	43
0,37	,	215468	,	-19378	,	-17158	,	30.90333	,	30
0,37	,	215484	,	-19372	,	-17160	,	24.064901	,	18
0,37	,	215516	,	-19368	,	-17159	,	17.89565	,	9
0,37	,	215532	,	-19365	,	-17161	,	12.84854	,	3
0,37	,	215564	,	-19374	,	-17147	,	9.091672	,	0
0,37	,	215580	,	-19378	,	-17168	,	6.432827	,	0
0,37	,	215596	,	-19371	,	-17171	,	4.5137625	,	0
0,37	,	215628	,	-19386	,	-17171	,	3.0387292	,	0
0,37	,	215644	,	-19395	,	-17179	,	1.6924651	,	0
0,37	,	215660	,	-19395	,	-17179	,	0.12688637	,	0
0,37	,	215692	,	-19403	,	-17177	,	-1.8132015	,	0
0,37	,	215708	,	-19407	,	-17186	,	-4.064166	,	0
0,37	,	215740	,	-19411	,	-17187	,	-6.468751	,	0
0,37	,	215756	,	-19429	,	-17184	,	-8.892056	,	0
0,37	,	215772	,	-19432	,	-17202	,	-11.327749	,	0
0,37	,	215804	,	-19434	,	-17183	,	-13.7684765	,	0
0,37	,	215820	,	-19447	,	-17202	,	-16.07494	,	0
0,37	,	215836	,	-19452	,	-17198	,	-18.11815	,	0
0,37	,	215868	,	-19463	,	-17200	,	-19.869503	,	0
0,37	,	215884	,	-19472	,	-17197	,	-21.36384	,	0
0,37	,	215900	,	-19469	,	-17198	,	-22.61131	,	0
0,37	,	215932	,	-19474	,	-17202	,	-23.480446	,	0
0,37	,	215948	,	-19486	,	-17205	,	-23.82113	,	0
0,37	,	215979	,	-19483	,	-17204	,	-23.644644	,	0
0,37	,	215996	,	-19488	,	-17201	,	-23.018068	,	0
0,37	,	216012	,	-19510	,	-17219	,	-22.069036	,	0
0,38	,	216044	,	-19517	,	-17216	,	-21.16079	,	0
0,38	,	216060	,	-19508	,	-17224	,	-20.623497	,	0
0,38	,	216076	,	-19530	,	-17220	,	-20.44265	,	0
0,38	,	216108	,	-19534	,	-17212	,	-20.529995	,	0
0,38	,	216123	,	-19535	,	-17221	,	-20.872751	,	0
0,38	,	216156	,	-19511	,	-17218	,	-21.186285	,	0
0,38	,	216172	,	-19469	,	-17200	,	-20.609455	,	0
0,38	,	216188	,	-19430	,	-17183	,	-17.814451	,	0
0,38	,	216220	,	-19411	,	-17178	,	-11.673983	,	2
0,38	,	216236	,	-19393	,	-17177	,	-2.0280333	,	8
0,38	,	216253	,	-19388	,	-17182	,	10.157498	,	17
0,38	,	216284	,	-19388	,	-17164	,	23.161	,	29
0,38	,	216300	,	-19383	,	-17163	,	35.048203	,	42
0,38	,	216316	,	-19372	,	-17159	,	44.285732	,	53
0,38	,	216347	,	-19368	,	-17162	,	50.119156	,	62
0,38	,	216363	,	-19367	,	-17164	,	52.46732	,	67
0,38	,	216395	,	-19371	,	-17166	,	51.60674	,	69
0,38	,	216411	,	-19376	,	-17165	,	47.967514	,	67
0,38	,	216427	,	-19377	,	-17162	,	42.094273	,	61
0,38	,	216460	,	-19366	,	-17158	,	34.74391	,	52
0,38	,	216476	,	-19368	,	-17160	,	26.892181	,	40
0,38	,	216492	,	-19367	,	-17156	,	19.451433	,	27
0,38	,	216523	,	-19365	,	-17156	,	13.024614	,	16
0,38	,	216540	,	-19374	,	-17151	,	7.8787937	,	7
0,38	,	216571	,	-19376	,	-17146	,	3.9607468	,	2
0,38	,	216587	,	-19378	,	-17151	,	1.0301905	,	0
0,38	,	216603	,	-19378	,	-17152	,	-1.1351845	,	0
0,38	,	216635	,	-19380	,	-17161	,	-2.6807876	,	0
0,38	,	216652	,	-19388	,	-17162	,	-3.7469635	,	0
0,38	,	216668	,	-19404	,	-17165	,	-4.598213	,	0
0,38	,	216699	,	-19410	,	-17166	,	-5.6316853	,	0
0,38	,	216715	,	-19414	,	-17173	,	-7.137756	,	0
0,38	,	216731	,	-19422	,	-17167	,	-9.120015	,	0
0,38	,	216763	,	-19435	,	-17170	,	-11.433509	,	0
0,38	,	216779	,	-19443	,	-17173	,	-13.972254	,	0
0,38	,	216811	,	-19447	,	-17176	,	-16.625755	,	0
0,38	,	216827	,	-19459	,	-17176	,	-19.206856	,	0
0,38	,	216844	,	-19466	,	-17194	,	-21.542772	,	0
0,38	,	216875	,	-19472	,	-17196	,	-23.522108	,	0
0,38	,	216891	,	-19484	,	-17190	,	-25.07254	,	0
