Data recorded on Wed Jun 28 08-48-07 CAT 2017
Time: 8:48:20
Time		Millis		IR PPG		Red PPG		Filtered		SSF
48,29	,	35498	,	-23543	,	-20695	,	-1.0878918	,	0
48,29	,	35514	,	-23540	,	-20669	,	-0.5298333	,	0
48,29	,	35546	,	-23528	,	-20677	,	0.06472844	,	0
48,29	,	35562	,	-23543	,	-20675	,	0.6473849	,	0
48,29	,	35594	,	-23542	,	-20673	,	1.1280707	,	0
48,29	,	35610	,	-23554	,	-20683	,	1.2598174	,	0
48,29	,	35626	,	-23535	,	-20673	,	0.90394187	,	0
48,29	,	35658	,	-23547	,	-20674	,	0.22049195	,	0
48,29	,	35674	,	-23538	,	-20697	,	-0.50668204	,	0
48,29	,	35690	,	-23545	,	-20680	,	-1.0943413	,	0
48,29	,	35722	,	-23550	,	-20676	,	-1.5124846	,	0
48,29	,	35738	,	-23558	,	-20676	,	-1.9046195	,	0
48,29	,	35754	,	-23540	,	-20693	,	-2.4035363	,	0
48,29	,	35786	,	-23557	,	-20684	,	-2.92432	,	0
48,29	,	35801	,	-23560	,	-20688	,	-3.3893747	,	0
48,29	,	35834	,	-23552	,	-20680	,	-3.8633323	,	0
48,29	,	35850	,	-23547	,	-20677	,	-4.2762446	,	0
48,29	,	35866	,	-23531	,	-20679	,	-4.3089647	,	0
48,29	,	35898	,	-23528	,	-20673	,	-3.574004	,	0
48,29	,	35914	,	-23519	,	-20698	,	-1.8556662	,	0
48,29	,	35930	,	-23528	,	-20681	,	0.71405816	,	1
48,29	,	35961	,	-23536	,	-20685	,	3.6073885	,	3
48,29	,	35978	,	-23531	,	-20679	,	6.1137037	,	5
48,29	,	36010	,	-23532	,	-20671	,	7.750221	,	7
48,29	,	36026	,	-23522	,	-20664	,	8.447401	,	8
48,29	,	36042	,	-23543	,	-20675	,	8.348256	,	8
48,29	,	36073	,	-23527	,	-20680	,	7.5627246	,	8
48,29	,	36089	,	-23539	,	-20687	,	6.224228	,	8
48,29	,	36105	,	-23539	,	-20681	,	4.530753	,	8
48,29	,	36138	,	-23521	,	-20677	,	2.7284374	,	7
48,29	,	36154	,	-23520	,	-20699	,	1.2441485	,	5
48,29	,	36170	,	-23534	,	-20664	,	0.43368292	,	3
48,29	,	36201	,	-23531	,	-20691	,	0.20223475	,	1
48,29	,	36218	,	-23533	,	-20681	,	0.21906248	,	0
48,29	,	36250	,	-23525	,	-20682	,	0.29310107	,	0
48,29	,	36266	,	-23516	,	-20674	,	0.46995187	,	0
48,29	,	36282	,	-23538	,	-20688	,	0.8354229	,	0
48,29	,	36314	,	-23543	,	-20687	,	1.1675208	,	0
48,29	,	36330	,	-23538	,	-20686	,	1.0654799	,	0
48,29	,	36346	,	-23541	,	-20677	,	0.4085313	,	0
48,29	,	36377	,	-23535	,	-20675	,	-0.60602254	,	0
48,29	,	36393	,	-23561	,	-20690	,	-1.7880912	,	0
48,29	,	36425	,	-23558	,	-20682	,	-3.1925507	,	0
48,29	,	36441	,	-23547	,	-20674	,	-4.8653545	,	0
48,29	,	36457	,	-23554	,	-20692	,	-6.521701	,	0
48,30	,	36489	,	-23554	,	-20687	,	-7.7962418	,	0
48,30	,	36505	,	-23547	,	-20696	,	-8.494652	,	0
48,30	,	36521	,	-23567	,	-20695	,	-8.599309	,	0
48,30	,	36553	,	-23563	,	-20692	,	-8.338077	,	0
48,30	,	36569	,	-23570	,	-20690	,	-8.036424	,	0
48,30	,	36585	,	-23571	,	-20683	,	-7.875616	,	0
48,30	,	36617	,	-23558	,	-20687	,	-7.8203697	,	0
48,30	,	36633	,	-23556	,	-20704	,	-7.599037	,	0
48,30	,	36665	,	-23556	,	-20676	,	-6.903446	,	0
48,30	,	36681	,	-23538	,	-20693	,	-5.576174	,	0
48,30	,	36697	,	-23543	,	-20687	,	-3.5508654	,	1
48,30	,	36729	,	-23547	,	-20695	,	-0.97089386	,	3
48,30	,	36745	,	-23528	,	-20680	,	1.7949097	,	5
48,30	,	36761	,	-23538	,	-20681	,	4.4581337	,	7
48,30	,	36793	,	-23538	,	-20697	,	6.7911973	,	9
48,30	,	36809	,	-23554	,	-20686	,	8.424863	,	11
48,30	,	36841	,	-23542	,	-20690	,	9.002268	,	12
48,30	,	36857	,	-23539	,	-20691	,	8.515192	,	12
48,30	,	36873	,	-23543	,	-20700	,	7.317211	,	12
48,30	,	36905	,	-23549	,	-20681	,	5.7621355	,	11
48,30	,	36921	,	-23545	,	-20688	,	4.0344954	,	9
48,30	,	36937	,	-23553	,	-20683	,	2.2598524	,	7
48,30	,	36969	,	-23562	,	-20694	,	0.48671436	,	5
48,30	,	36985	,	-23553	,	-20687	,	-1.3040946	,	3
48,30	,	37017	,	-23545	,	-20689	,	-2.9502192	,	1
48,30	,	37033	,	-23540	,	-20694	,	-4.0580482	,	0
48,30	,	37049	,	-23555	,	-20689	,	-4.3743563	,	0
48,30	,	37081	,	-23560	,	-20697	,	-4.09687	,	0
48,30	,	37097	,	-23549	,	-20694	,	-3.6354308	,	0
48,30	,	37113	,	-23564	,	-20705	,	-3.2289515	,	0
48,30	,	37145	,	-23560	,	-20696	,	-2.994657	,	0
48,30	,	37161	,	-23561	,	-20696	,	-3.0030193	,	0
48,30	,	37177	,	-23557	,	-20704	,	-3.1813955	,	0
48,30	,	37209	,	-23560	,	-20703	,	-3.3723526	,	0
48,30	,	37225	,	-23566	,	-20709	,	-3.4880414	,	0
48,30	,	37257	,	-23567	,	-20702	,	-3.572589	,	0
48,30	,	37273	,	-23573	,	-20699	,	-3.7350588	,	0
48,30	,	37289	,	-23558	,	-20702	,	-3.9916093	,	0
48,30	,	37321	,	-23567	,	-20708	,	-4.1804056	,	0
48,30	,	37337	,	-23555	,	-20698	,	-4.0921955	,	0
48,30	,	37353	,	-23576	,	-20713	,	-3.6824546	,	0
48,30	,	37385	,	-23580	,	-20704	,	-3.2091427	,	0
48,30	,	37401	,	-23583	,	-20716	,	-3.0842037	,	0
48,30	,	37433	,	-23574	,	-20704	,	-3.466722	,	0
48,30	,	37449	,	-23558	,	-20702	,	-4.0482173	,	0
48,30	,	37465	,	-23558	,	-20700	,	-4.2402754	,	0
48,31	,	37497	,	-23550	,	-20707	,	-3.5961204	,	0
48,31	,	37513	,	-23548	,	-20703	,	-2.0287905	,	0
48,31	,	37529	,	-23566	,	-20697	,	0.18032324	,	1
48,31	,	37561	,	-23563	,	-20701	,	2.4141495	,	3
48,31	,	37577	,	-23550	,	-20711	,	4.1183753	,	5
48,31	,	37593	,	-23560	,	-20708	,	5.1630898	,	6
48,31	,	37625	,	-23561	,	-20709	,	5.6048994	,	7
48,31	,	37641	,	-23563	,	-20707	,	5.4481683	,	7
48,31	,	37673	,	-23588	,	-20699	,	4.6216526	,	7
48,31	,	37689	,	-23575	,	-20702	,	2.987393	,	7
48,31	,	37705	,	-23560	,	-20703	,	0.71753883	,	7
48,31	,	37737	,	-23581	,	-20702	,	-1.603003	,	6
48,31	,	37753	,	-23578	,	-20710	,	-3.5687063	,	4
48,31	,	37769	,	-23581	,	-20708	,	-5.135708	,	2
48,31	,	37801	,	-23564	,	-20706	,	-6.233967	,	1
48,31	,	37817	,	-23559	,	-20705	,	-6.587116	,	0
48,31	,	37849	,	-23564	,	-20716	,	-5.9485817	,	0
48,31	,	37864	,	-23563	,	-20698	,	-4.4243603	,	0
48,31	,	37880	,	-23572	,	-20711	,	-2.45821	,	1
48,31	,	37913	,	-23571	,	-20702	,	-0.58409214	,	2
48,31	,	37929	,	-23586	,	-20698	,	0.73550606	,	3
48,31	,	37945	,	-23578	,	-20702	,	1.1956816	,	4
48,31	,	37977	,	-23585	,	-20702	,	0.76712966	,	4
48,31	,	37993	,	-23582	,	-20712	,	-0.31143925	,	4
48,31	,	38009	,	-23588	,	-20707	,	-1.7174182	,	4
48,31	,	38041	,	-23595	,	-20705	,	-3.221004	,	4
48,31	,	38057	,	-23585	,	-20712	,	-4.6916547	,	4
48,31	,	38088	,	-23600	,	-20709	,	-5.9950876	,	3
48,31	,	38104	,	-23583	,	-20704	,	-6.9913197	,	2
48,31	,	38120	,	-23594	,	-20716	,	-7.541698	,	1
48,31	,	38153	,	-23592	,	-20712	,	-7.57432	,	0
48,31	,	38169	,	-23592	,	-20713	,	-7.161174	,	0
48,31	,	38185	,	-23593	,	-20712	,	-6.4228983	,	0
48,31	,	38217	,	-23583	,	-20708	,	-5.4354315	,	0
48,31	,	38232	,	-23588	,	-20705	,	-4.2216625	,	0
48,31	,	38265	,	-23571	,	-20704	,	-2.7738135	,	1
48,31	,	38281	,	-23575	,	-20701	,	-1.0519419	,	2
48,31	,	38297	,	-23570	,	-20705	,	0.93344676	,	3
48,31	,	38329	,	-23576	,	-20707	,	2.9928026	,	4
48,31	,	38345	,	-23571	,	-20703	,	4.8264747	,	6
48,31	,	38360	,	-23553	,	-20706	,	6.2943254	,	7
48,31	,	38392	,	-23569	,	-20704	,	7.4923706	,	8
48,31	,	38408	,	-23568	,	-20709	,	8.406866	,	9
48,31	,	38424	,	-23578	,	-20714	,	8.766723	,	9
48,31	,	38456	,	-23580	,	-20701	,	8.301759	,	8
48,31	,	38472	,	-23580	,	-20705	,	6.94695	,	7
48,32	,	38504	,	-23578	,	-20703	,	4.9025784	,	6
48,32	,	38520	,	-23575	,	-20699	,	2.569382	,	5
48,32	,	38537	,	-23585	,	-20713	,	0.3374343	,	3
48,32	,	38568	,	-23580	,	-20707	,	-1.586524	,	2
48,32	,	38584	,	-23568	,	-20706	,	-3.0446656	,	1
48,32	,	38600	,	-23580	,	-20703	,	-3.8256104	,	0
48,32	,	38632	,	-23574	,	-20711	,	-3.893624	,	0
48,32	,	38648	,	-23578	,	-20705	,	-3.4338584	,	0
48,32	,	38680	,	-23584	,	-20697	,	-2.7034965	,	0
48,32	,	38696	,	-23584	,	-20708	,	-1.9992923	,	0
48,32	,	38712	,	-23577	,	-20707	,	-1.5202621	,	0
48,32	,	38744	,	-23581	,	-20702	,	-1.2422321	,	0
48,32	,	38760	,	-23581	,	-20706	,	-1.0614264	,	0
48,32	,	38776	,	-23570	,	-20706	,	-0.88459796	,	0
48,32	,	38808	,	-23580	,	-20700	,	-0.5935818	,	0
48,32	,	38824	,	-23587	,	-20711	,	-0.21257648	,	0
48,32	,	38840	,	-23577	,	-20709	,	0.0550915	,	0
48,32	,	38872	,	-23588	,	-20704	,	0.08555636	,	0
48,32	,	38888	,	-23585	,	-20704	,	-0.12810193	,	0
48,32	,	38920	,	-23589	,	-20711	,	-0.57011396	,	0
48,32	,	38936	,	-23602	,	-20711	,	-1.2521491	,	0
48,32	,	38952	,	-23597	,	-20716	,	-2.2482026	,	0
48,32	,	38984	,	-23593	,	-20712	,	-3.4983904	,	0
48,32	,	39000	,	-23580	,	-20712	,	-4.6334667	,	0
48,32	,	39016	,	-23586	,	-20701	,	-5.1864233	,	0
48,32	,	39048	,	-23579	,	-20698	,	-4.931446	,	0
48,32	,	39064	,	-23567	,	-20704	,	-3.8696654	,	0
48,32	,	39096	,	-23560	,	-20702	,	-2.0017438	,	1
48,32	,	39112	,	-23562	,	-20708	,	0.60346055	,	2
48,32	,	39128	,	-23562	,	-20707	,	3.615345	,	4
48,32	,	39160	,	-23559	,	-20708	,	6.5388536	,	7
48,32	,	39176	,	-23566	,	-20706	,	8.927282	,	9
48,32	,	39192	,	-23576	,	-20706	,	10.400299	,	11
48,32	,	39224	,	-23560	,	-20707	,	10.717779	,	12
48,32	,	39240	,	-23574	,	-20702	,	9.967434	,	12
48,32	,	39272	,	-23571	,	-20705	,	8.430176	,	12
48,32	,	39288	,	-23571	,	-20686	,	6.3859725	,	11
48,32	,	39304	,	-23571	,	-20698	,	4.1487646	,	10
48,32	,	39336	,	-23576	,	-20690	,	2.0044644	,	8
48,32	,	39352	,	-23582	,	-20704	,	0.075306416	,	5
48,32	,	39368	,	-23581	,	-20694	,	-1.6564279	,	3
48,32	,	39400	,	-23580	,	-20698	,	-3.1879058	,	1
48,32	,	39416	,	-23582	,	-20701	,	-4.424391	,	0
48,32	,	39432	,	-23567	,	-20702	,	-5.2030883	,	0
48,32	,	39464	,	-23572	,	-20696	,	-5.3149643	,	0
48,32	,	39480	,	-23577	,	-20701	,	-4.7067385	,	0
48,33	,	39512	,	-23574	,	-20711	,	-3.6153345	,	0
48,33	,	39528	,	-23578	,	-20702	,	-2.3712468	,	1
48,33	,	39544	,	-23573	,	-20701	,	-1.2183344	,	2
48,33	,	39576	,	-23588	,	-20717	,	-0.3414775	,	3
48,33	,	39592	,	-23579	,	-20708	,	0.08936918	,	3
48,33	,	39608	,	-23595	,	-20701	,	-0.022785366	,	3
48,33	,	39640	,	-23589	,	-20705	,	-0.6833513	,	3
48,33	,	39656	,	-23592	,	-20710	,	-1.7848368	,	3
48,33	,	39688	,	-23601	,	-20701	,	-3.1229932	,	3
48,33	,	39704	,	-23610	,	-20712	,	-4.594273	,	3
48,33	,	39720	,	-23603	,	-20703	,	-6.1890874	,	2
48,33	,	39752	,	-23589	,	-20713	,	-7.6815815	,	1
48,33	,	39768	,	-23603	,	-20702	,	-8.642412	,	0
48,33	,	39784	,	-23601	,	-20709	,	-8.8673115	,	0
48,33	,	39815	,	-23589	,	-20710	,	-8.426689	,	0
48,33	,	39831	,	-23575	,	-20712	,	-7.2853885	,	0
48,33	,	39847	,	-23582	,	-20706	,	-5.3108788	,	1
48,33	,	39880	,	-23554	,	-20707	,	-2.5124705	,	2
48,33	,	39896	,	-23575	,	-20714	,	0.94057083	,	4
48,33	,	39927	,	-23594	,	-20710	,	4.4946966	,	7
48,33	,	39943	,	-23574	,	-20712	,	7.2624083	,	10
48,33	,	39959	,	-23575	,	-20704	,	8.772928	,	12
48,33	,	39992	,	-23583	,	-20709	,	9.1456375	,	13
48,33	,	40008	,	-23567	,	-20692	,	8.662012	,	13
48,33	,	40024	,	-23572	,	-20720	,	7.6833572	,	13
48,33	,	40056	,	-23583	,	-20712	,	6.5141654	,	12
48,33	,	40072	,	-23592	,	-20716	,	5.1377945	,	11
48,33	,	40103	,	-23582	,	-20702	,	3.416988	,	9
48,33	,	40119	,	-23581	,	-20707	,	1.4765263	,	6
48,33	,	40135	,	-23583	,	-20712	,	-0.34523654	,	3
48,33	,	40167	,	-23575	,	-20707	,	-1.7555119	,	1
48,33	,	40183	,	-23579	,	-20702	,	-2.5807462	,	0
48,33	,	40199	,	-23580	,	-20709	,	-2.8042302	,	0
48,33	,	40232	,	-23573	,	-20714	,	-2.541482	,	0
48,33	,	40248	,	-23576	,	-20697	,	-1.9112021	,	0
48,33	,	40263	,	-23580	,	-20707	,	-1.0592576	,	0
48,33	,	40295	,	-23584	,	-20701	,	-0.22627616	,	0
48,33	,	40311	,	-23581	,	-20716	,	0.35622025	,	0
48,33	,	40343	,	-23584	,	-20710	,	0.59311223	,	0
48,33	,	40359	,	-23588	,	-20712	,	0.49293143	,	0
48,33	,	40376	,	-23591	,	-20716	,	0.06712054	,	0
48,33	,	40407	,	-23598	,	-20719	,	-0.6949024	,	0
48,33	,	40423	,	-23603	,	-20716	,	-1.8135507	,	0
48,33	,	40439	,	-23591	,	-20718	,	-3.2102113	,	0
48,33	,	40471	,	-23591	,	-20730	,	-4.5734987	,	0
48,33	,	40487	,	-23603	,	-20715	,	-5.5691996	,	0
48,34	,	40519	,	-23589	,	-20722	,	-6.0920043	,	0
48,34	,	40535	,	-23603	,	-20707	,	-6.163246	,	0
48,34	,	40552	,	-23594	,	-20720	,	-5.85728	,	0
48,34	,	40583	,	-23606	,	-20716	,	-5.3265243	,	0
48,34	,	40599	,	-23591	,	-20718	,	-4.707733	,	0
48,34	,	40615	,	-23601	,	-20722	,	-4.032827	,	0
48,34	,	40647	,	-23566	,	-20719	,	-3.156313	,	0
48,34	,	40663	,	-23579	,	-20709	,	-1.7604935	,	0
48,34	,	40679	,	-23580	,	-20717	,	0.27068877	,	1
48,34	,	40711	,	-23571	,	-20719	,	2.6297064	,	3
48,34	,	40727	,	-23569	,	-20709	,	4.951525	,	5
48,34	,	40759	,	-23584	,	-20714	,	6.9543734	,	7
48,34	,	40775	,	-23565	,	-20711	,	8.345568	,	9
48,34	,	40791	,	-23565	,	-20719	,	9.059498	,	10
48,34	,	40823	,	-23573	,	-20711	,	9.259552	,	10
48,34	,	40839	,	-23590	,	-20711	,	8.926245	,	10
48,34	,	40855	,	-23581	,	-20710	,	7.8354278	,	10
48,34	,	40887	,	-23579	,	-20709	,	5.9978876	,	9
48,34	,	40903	,	-23577	,	-20722	,	3.7941618	,	7
48,34	,	40935	,	-23568	,	-20716	,	1.719784	,	5
48,34	,	40951	,	-23584	,	-20715	,	0.13333106	,	3
48,34	,	40967	,	-23585	,	-20698	,	-0.94401443	,	1
48,34	,	40999	,	-23585	,	-20720	,	-1.7434344	,	0
48,34	,	41015	,	-23578	,	-20718	,	-2.3979957	,	0
48,34	,	41031	,	-23580	,	-20719	,	-2.837844	,	0
48,34	,	41063	,	-23582	,	-20710	,	-2.9759429	,	0
48,34	,	41079	,	-23582	,	-20722	,	-2.8394618	,	0
48,34	,	41095	,	-23601	,	-20715	,	-2.6108894	,	0
48,34	,	41127	,	-23588	,	-20710	,	-2.5719655	,	0
48,34	,	41143	,	-23585	,	-20710	,	-2.7980328	,	0
48,34	,	41175	,	-23589	,	-20720	,	-3.0733323	,	0
48,34	,	41191	,	-23600	,	-20727	,	-3.2628918	,	0
48,34	,	41207	,	-23599	,	-20696	,	-3.4783506	,	0
48,34	,	41239	,	-23585	,	-20712	,	-3.7778344	,	0
48,34	,	41255	,	-23590	,	-20713	,	-3.9624414	,	0
48,34	,	41271	,	-23594	,	-20726	,	-3.8430123	,	0
48,34	,	41303	,	-23611	,	-20724	,	-3.5523896	,	0
48,34	,	41319	,	-23601	,	-20719	,	-3.4279757	,	0
48,34	,	41351	,	-23593	,	-20711	,	-3.5785532	,	0
48,34	,	41367	,	-23594	,	-20707	,	-3.7477903	,	0
48,34	,	41383	,	-23593	,	-20717	,	-3.6527529	,	0
48,34	,	41415	,	-23586	,	-20713	,	-3.1735773	,	0
48,34	,	41431	,	-23587	,	-20713	,	-2.2750607	,	0
48,34	,	41447	,	-23569	,	-20700	,	-0.94022715	,	0
48,34	,	41479	,	-23558	,	-20697	,	0.93392515	,	1
48,35	,	41495	,	-23570	,	-20705	,	3.4123287	,	2
48,35	,	41511	,	-23562	,	-20696	,	6.213426	,	4
48,35	,	41543	,	-23564	,	-20698	,	8.8357725	,	6
48,35	,	41559	,	-23560	,	-20704	,	10.890703	,	8
48,35	,	41591	,	-23569	,	-20693	,	12.143967	,	10
48,35	,	41607	,	-23571	,	-20694	,	12.429899	,	11
48,35	,	41623	,	-23571	,	-20688	,	11.681971	,	11
48,35	,	41655	,	-23553	,	-20693	,	10.122145	,	11
48,35	,	41671	,	-23563	,	-20714	,	8.264346	,	10
48,35	,	41687	,	-23566	,	-20686	,	6.5116367	,	9
48,35	,	41719	,	-23553	,	-20705	,	4.991837	,	7
48,35	,	41735	,	-23558	,	-20694	,	3.8131866	,	5
48,35	,	41767	,	-23553	,	-20706	,	3.0859883	,	3
48,35	,	41783	,	-23566	,	-20704	,	2.741378	,	1
48,35	,	41799	,	-23575	,	-20699	,	2.46676	,	0
48,35	,	41831	,	-23550	,	-20706	,	1.9668683	,	0
48,35	,	41847	,	-23559	,	-20700	,	1.3432204	,	0
48,35	,	41863	,	-23567	,	-20702	,	0.836656	,	0
48,35	,	41895	,	-23559	,	-20695	,	0.44021183	,	0
48,35	,	41911	,	-23580	,	-20721	,	0.011248112	,	0
48,35	,	41942	,	-23574	,	-20699	,	-0.6377727	,	0
48,35	,	41959	,	-23572	,	-20708	,	-1.6061572	,	0
48,35	,	41974	,	-23581	,	-20702	,	-2.770763	,	0
48,35	,	42007	,	-23577	,	-20710	,	-3.9603076	,	0
48,35	,	42023	,	-23597	,	-20713	,	-5.1168833	,	0
48,35	,	42039	,	-23580	,	-20709	,	-6.2606626	,	0
48,35	,	42071	,	-23588	,	-20708	,	-7.3027344	,	0
48,35	,	42087	,	-23579	,	-20714	,	-8.00889	,	0
48,35	,	42103	,	-23584	,	-20717	,	-8.188149	,	0
48,35	,	42134	,	-23573	,	-20711	,	-7.753311	,	0
48,35	,	42150	,	-23582	,	-20709	,	-6.7097225	,	0
48,35	,	42183	,	-23594	,	-20702	,	-5.2860403	,	1
48,35	,	42199	,	-23588	,	-20709	,	-3.9257376	,	2
48,35	,	42215	,	-23589	,	-20704	,	-2.9438636	,	3
48,35	,	42247	,	-23576	,	-20695	,	-2.3044746	,	3
48,35	,	42262	,	-23569	,	-20708	,	-1.7002189	,	3
48,35	,	42278	,	-23569	,	-20695	,	-0.77989435	,	3
48,35	,	42311	,	-23560	,	-20700	,	0.6202388	,	3
48,35	,	42327	,	-23550	,	-20695	,	2.5089931	,	4
48,35	,	42358	,	-23549	,	-20698	,	4.8399734	,	5
48,35	,	42374	,	-23542	,	-20697	,	7.4520864	,	6
48,35	,	42390	,	-23542	,	-20714	,	10.072271	,	7
48,35	,	42422	,	-23545	,	-20684	,	12.366331	,	8
48,35	,	42438	,	-23548	,	-20711	,	13.958653	,	10
48,35	,	42455	,	-23546	,	-20693	,	14.557985	,	11
48,35	,	42487	,	-23555	,	-20702	,	14.064392	,	11
48,36	,	42502	,	-23559	,	-20707	,	12.50838	,	11
48,36	,	42518	,	-23544	,	-20689	,	10.093412	,	10
48,36	,	42550	,	-23555	,	-20698	,	7.2750225	,	9
48,36	,	42566	,	-23537	,	-20697	,	4.5851336	,	7
48,36	,	42598	,	-23533	,	-20691	,	2.514505	,	5
48,36	,	42614	,	-23535	,	-20688	,	1.4262524	,	3
48,36	,	42630	,	-23543	,	-20708	,	1.2978523	,	1
48,36	,	42662	,	-23549	,	-20681	,	1.6978703	,	0
48,36	,	42678	,	-23551	,	-20692	,	2.0800438	,	0
48,36	,	42694	,	-23551	,	-20691	,	2.0721514	,	0
48,36	,	42726	,	-23551	,	-20694	,	1.584671	,	0
48,36	,	42742	,	-23559	,	-20703	,	0.7042257	,	0
48,36	,	42774	,	-23556	,	-20689	,	-0.45744932	,	0
48,36	,	42790	,	-23554	,	-20693	,	-1.7435071	,	0
48,36	,	42806	,	-23565	,	-20694	,	-2.9621122	,	0
48,36	,	42838	,	-23565	,	-20692	,	-4.0461755	,	0
48,36	,	42854	,	-23555	,	-20692	,	-4.9754295	,	0
48,36	,	42870	,	-23568	,	-20713	,	-5.633668	,	0
48,36	,	42902	,	-23569	,	-20675	,	-5.994895	,	0
48,36	,	42918	,	-23567	,	-20699	,	-6.1767316	,	0
48,36	,	42934	,	-23563	,	-20683	,	-6.207576	,	0
48,36	,	42966	,	-23565	,	-20685	,	-5.993264	,	0
48,36	,	42982	,	-23578	,	-20696	,	-5.5375204	,	0
48,36	,	43014	,	-23585	,	-20700	,	-5.0983133	,	0
48,36	,	43030	,	-23568	,	-20702	,	-4.942959	,	0
48,36	,	43046	,	-23567	,	-20692	,	-4.961194	,	0
48,36	,	43078	,	-23571	,	-20696	,	-4.817009	,	0
48,36	,	43094	,	-23558	,	-20694	,	-4.3008986	,	0
48,36	,	43110	,	-23558	,	-20706	,	-3.310984	,	0
48,36	,	43142	,	-23562	,	-20677	,	-1.8561518	,	0
48,36	,	43158	,	-23546	,	-20680	,	-0.093025684	,	1
48,36	,	43190	,	-23534	,	-20686	,	1.9255941	,	2
48,36	,	43206	,	-23529	,	-20682	,	4.323633	,	4
48,36	,	43222	,	-23530	,	-20672	,	7.095229	,	6
48,36	,	43254	,	-23534	,	-20677	,	9.9172	,	8
48,36	,	43270	,	-23537	,	-20678	,	12.268989	,	10
48,36	,	43286	,	-23532	,	-20681	,	13.701875	,	12
48,36	,	43318	,	-23550	,	-20675	,	13.977761	,	13
48,36	,	43334	,	-23539	,	-20688	,	13.026154	,	13
48,36	,	43350	,	-23544	,	-20694	,	11.009396	,	12
48,36	,	43382	,	-23538	,	-20661	,	8.34799	,	11
48,36	,	43398	,	-23531	,	-20689	,	5.5807576	,	9
48,36	,	43430	,	-23535	,	-20675	,	3.2125525	,	7
48,36	,	43446	,	-23532	,	-20677	,	1.5267849	,	5
48,36	,	43462	,	-23520	,	-20677	,	0.60736036	,	3
48,37	,	43494	,	-23542	,	-20673	,	0.417915	,	1
48,37	,	43510	,	-23539	,	-20683	,	0.6457762	,	0
48,37	,	43526	,	-23544	,	-20686	,	0.822562	,	0
48,37	,	43558	,	-23527	,	-20674	,	0.7407149	,	0
48,37	,	43574	,	-23537	,	-20680	,	0.5384517	,	0
48,37	,	43606	,	-23544	,	-20706	,	0.34768417	,	0
48,37	,	43622	,	-23540	,	-20670	,	0.08366442	,	0
48,37	,	43638	,	-23536	,	-20685	,	-0.31326228	,	0
48,37	,	43670	,	-23533	,	-20682	,	-0.7081991	,	0
48,37	,	43686	,	-23539	,	-20690	,	-0.93752486	,	0
48,37	,	43702	,	-23551	,	-20691	,	-1.0365443	,	0
48,37	,	43734	,	-23543	,	-20682	,	-1.2174093	,	0
48,37	,	43750	,	-23533	,	-20678	,	-1.5291489	,	0
48,37	,	43766	,	-23548	,	-20688	,	-1.7885942	,	0
48,37	,	43798	,	-23554	,	-20685	,	-1.971231	,	0
48,37	,	43814	,	-23545	,	-20694	,	-2.2576804	,	0
48,37	,	43846	,	-23553	,	-20697	,	-2.6989353	,	0
48,37	,	43862	,	-23547	,	-20664	,	-3.1883116	,	0
48,37	,	43878	,	-23555	,	-20687	,	-3.624581	,	0
48,37	,	43910	,	-23545	,	-20679	,	-3.9341304	,	0
48,37	,	43926	,	-23543	,	-20687	,	-3.9979582	,	0
48,37	,	43942	,	-23528	,	-20678	,	-3.60179	,	0
48,37	,	43974	,	-23511	,	-20673	,	-2.4326267	,	0
48,37	,	43989	,	-23523	,	-20670	,	-0.26611328	,	1
48,37	,	44022	,	-23544	,	-20669	,	2.5640655	,	3
48,37	,	44038	,	-23518	,	-20674	,	5.2421055	,	5
48,37	,	44054	,	-23516	,	-20671	,	7.287016	,	7
48,37	,	44086	,	-23528	,	-20700	,	8.713632	,	9
48,37	,	44102	,	-23534	,	-20662	,	9.453406	,	10
48,37	,	44118	,	-23527	,	-20678	,	9.303196	,	10
48,37	,	44149	,	-23537	,	-20682	,	8.256851	,	10
48,37	,	44165	,	-23517	,	-20680	,	6.5752354	,	10
48,37	,	44181	,	-23541	,	-20679	,	4.6440887	,	9
48,37	,	44214	,	-23524	,	-20677	,	2.7389035	,	7
48,37	,	44229	,	-23527	,	-20680	,	1.0379117	,	5
48,37	,	44261	,	-23536	,	-20672	,	-0.30107856	,	3
48,37	,	44277	,	-23528	,	-20679	,	-1.2652164	,	1
48,37	,	44293	,	-23526	,	-20685	,	-1.8842949	,	0
48,37	,	44326	,	-23529	,	-20688	,	-2.1207206	,	0
48,37	,	44342	,	-23536	,	-20668	,	-2.0358586	,	0
48,37	,	44358	,	-23519	,	-20675	,	-1.7713668	,	0
48,37	,	44389	,	-23529	,	-20666	,	-1.350704	,	0
48,37	,	44406	,	-23526	,	-20673	,	-0.7671827	,	0
48,37	,	44437	,	-23523	,	-20685	,	-0.11139244	,	0
48,37	,	44453	,	-23530	,	-20669	,	0.5166009	,	0
48,37	,	44469	,	-23541	,	-20667	,	0.95548165	,	0
48,38	,	44501	,	-23531	,	-20680	,	0.9808062	,	0
48,38	,	44517	,	-23534	,	-20682	,	0.560728	,	0
48,38	,	44533	,	-23535	,	-20678	,	-0.11414182	,	0
48,38	,	44565	,	-23538	,	-20693	,	-0.8635816	,	0
48,38	,	44581	,	-23540	,	-20670	,	-1.6137773	,	0
48,38	,	44598	,	-23548	,	-20685	,	-2.373218	,	0
48,38	,	44630	,	-23555	,	-20680	,	-3.2347548	,	0
48,38	,	44645	,	-23541	,	-20688	,	-4.2473335	,	0
48,38	,	44677	,	-23565	,	-20679	,	-5.31198	,	0
48,38	,	44693	,	-23563	,	-20683	,	-6.399104	,	0
48,38	,	44709	,	-23530	,	-20679	,	-7.4190884	,	0
48,38	,	44741	,	-23532	,	-20666	,	-7.8325033	,	0
48,38	,	44757	,	-23534	,	-20671	,	-7.084628	,	0
48,38	,	44773	,	-23516	,	-20658	,	-5.1230717	,	0
48,38	,	44805	,	-23518	,	-20674	,	-2.1742442	,	1
48,38	,	44821	,	-23526	,	-20663	,	1.3652649	,	3
48,38	,	44853	,	-23502	,	-20663	,	4.95089	,	6
48,38	,	44869	,	-23504	,	-20663	,	8.249147	,	9
48,38	,	44885	,	-23511	,	-20663	,	11.105815	,	12
48,38	,	44917	,	-23507	,	-20660	,	13.239393	,	14
48,38	,	44933	,	-23513	,	-20665	,	14.35698	,	16
48,38	,	44949	,	-23516	,	-20673	,	14.328127	,	17
48,38	,	44981	,	-23511	,	-20663	,	13.204325	,	17
48,38	,	44997	,	-23506	,	-20667	,	11.278202	,	16
48,38	,	45029	,	-23503	,	-20661	,	9.028467	,	14
48,38	,	45045	,	-23513	,	-20687	,	6.865804	,	11
48,38	,	45061	,	-23511	,	-20662	,	4.939629	,	8
48,38	,	45093	,	-23500	,	-20662	,	3.2936926	,	5
48,38	,	45109	,	-23524	,	-20674	,	1.9831295	,	3
48,38	,	45125	,	-23519	,	-20666	,	0.8710258	,	1
48,38	,	45157	,	-23509	,	-20674	,	-0.22343731	,	0
48,38	,	45173	,	-23501	,	-20659	,	-1.1422265	,	0
48,38	,	45189	,	-23513	,	-20671	,	-1.5841769	,	0
48,38	,	45221	,	-23507	,	-20672	,	-1.5101855	,	0
48,38	,	45237	,	-23518	,	-20669	,	-1.1361246	,	0
48,38	,	45269	,	-23514	,	-20663	,	-0.74127424	,	0
48,38	,	45285	,	-23523	,	-20682	,	-0.55627173	,	0
48,38	,	45301	,	-23529	,	-20671	,	-0.75414014	,	0
48,38	,	45333	,	-23523	,	-20678	,	-1.4198937	,	0
48,38	,	45349	,	-23520	,	-20670	,	-2.407633	,	0
48,38	,	45365	,	-23532	,	-20667	,	-3.4347777	,	0
48,38	,	45397	,	-23525	,	-20682	,	-4.341262	,	0
48,38	,	45413	,	-23529	,	-20666	,	-5.0537233	,	0
48,38	,	45445	,	-23523	,	-20668	,	-5.469597	,	0
48,38	,	45461	,	-23532	,	-20678	,	-5.530793	,	0
48,38	,	45477	,	-23539	,	-20666	,	-5.3481965	,	0
48,39	,	45509	,	-23535	,	-20672	,	-5.148104	,	0
48,39	,	45525	,	-23543	,	-20678	,	-5.081148	,	0
48,39	,	45541	,	-23529	,	-20673	,	-5.134021	,	0
48,39	,	45573	,	-23528	,	-20664	,	-5.105089	,	0
48,39	,	45589	,	-23504	,	-20664	,	-4.614968	,	0
48,39	,	45605	,	-23504	,	-20662	,	-3.244223	,	0
48,39	,	45637	,	-23509	,	-20673	,	-0.86461043	,	1
48,39	,	45653	,	-23506	,	-20674	,	2.150404	,	3
48,39	,	45685	,	-23512	,	-20673	,	5.1722565	,	6
48,39	,	45701	,	-23500	,	-20671	,	7.6809278	,	9
48,39	,	45717	,	-23509	,	-20670	,	9.420137	,	11
48,39	,	45749	,	-23498	,	-20675	,	10.347238	,	12
48,39	,	45765	,	-23506	,	-20681	,	10.5343685	,	12
48,39	,	45781	,	-23510	,	-20656	,	10.064744	,	12
48,39	,	45813	,	-23523	,	-20665	,	8.903725	,	12
48,39	,	45829	,	-23502	,	-20669	,	7.046999	,	11
48,39	,	45861	,	-23506	,	-20674	,	4.8215694	,	9
48,39	,	45877	,	-23523	,	-20665	,	2.6497788	,	6
48,39	,	45893	,	-23503	,	-20676	,	0.6942723	,	3
48,39	,	45924	,	-23517	,	-20671	,	-0.94374824	,	1
48,39	,	45940	,	-23505	,	-20667	,	-2.1166563	,	0
48,39	,	45973	,	-23515	,	-20670	,	-2.7750611	,	0
48,39	,	45989	,	-23503	,	-20672	,	-2.949327	,	0
48,39	,	46005	,	-23524	,	-20660	,	-2.7536933	,	0
48,39	,	46037	,	-23504	,	-20675	,	-2.3963485	,	0
48,39	,	46053	,	-23522	,	-20662	,	-2.0368066	,	0
48,39	,	46069	,	-23519	,	-20668	,	-1.7882266	,	0
48,39	,	46100	,	-23517	,	-20658	,	-1.7588513	,	0
48,39	,	46117	,	-23529	,	-20664	,	-1.9715866	,	0
48,39	,	46132	,	-23523	,	-20672	,	-2.423047	,	0
48,39	,	46164	,	-23532	,	-20682	,	-3.0992732	,	0
48,39	,	46180	,	-23528	,	-20669	,	-3.9181285	,	0
48,39	,	46213	,	-23530	,	-20681	,	-4.74113	,	0
48,39	,	46229	,	-23534	,	-20664	,	-5.424104	,	0
48,39	,	46245	,	-23530	,	-20673	,	-5.888817	,	0
48,39	,	46276	,	-23527	,	-20676	,	-6.0678005	,	0
48,39	,	46292	,	-23541	,	-20673	,	-5.927047	,	0
48,39	,	46308	,	-23536	,	-20674	,	-5.598896	,	0
48,39	,	46340	,	-23540	,	-20682	,	-5.2630606	,	0
48,39	,	46356	,	-23554	,	-20683	,	-5.056848	,	0
48,39	,	46389	,	-23541	,	-20680	,	-5.113937	,	0
48,39	,	46405	,	-23523	,	-20670	,	-5.2943125	,	0
48,39	,	46421	,	-23526	,	-20659	,	-5.098836	,	0
48,39	,	46452	,	-23514	,	-20682	,	-4.1106157	,	0
48,39	,	46468	,	-23497	,	-20660	,	-2.1613278	,	0
48,39	,	46484	,	-23499	,	-20664	,	0.7896972	,	1
48,40	,	46516	,	-23519	,	-20663	,	4.406352	,	3
48,40	,	46533	,	-23511	,	-20668	,	7.8598585	,	6
48,40	,	46549	,	-23530	,	-20666	,	10.287465	,	9
48,40	,	46580	,	-23509	,	-20669	,	11.234763	,	11
48,40	,	46597	,	-23517	,	-20668	,	10.800708	,	11
48,40	,	46628	,	-23524	,	-20668	,	9.386754	,	11
48,40	,	46644	,	-23528	,	-20678	,	7.2833095	,	11
48,40	,	46660	,	-23513	,	-20666	,	4.7497516	,	11
48,40	,	46692	,	-23518	,	-20670	,	2.2381272	,	10
48,40	,	46708	,	-23525	,	-20655	,	0.14672017	,	8
48,40	,	46724	,	-23512	,	-20667	,	-1.385603	,	5
48,40	,	46756	,	-23513	,	-20667	,	-2.2795293	,	2
48,40	,	46772	,	-23530	,	-20668	,	-2.5463865	,	0
48,40	,	46804	,	-23518	,	-20673	,	-2.4554365	,	0
48,40	,	46820	,	-23527	,	-20668	,	-2.2917075	,	0
48,40	,	46836	,	-23516	,	-20680	,	-2.1462154	,	0
48,40	,	46868	,	-23520	,	-20670	,	-1.9729252	,	0
48,40	,	46884	,	-23528	,	-20672	,	-1.7385724	,	0
48,40	,	46900	,	-23520	,	-20672	,	-1.5182885	,	0
48,40	,	46932	,	-23530	,	-20679	,	-1.3964932	,	0
48,40	,	46948	,	-23525	,	-20667	,	-1.4091008	,	0
48,40	,	46964	,	-23517	,	-20681	,	-1.5000312	,	0
48,40	,	46996	,	-23527	,	-20673	,	-1.5117533	,	0
48,40	,	47012	,	-23535	,	-20681	,	-1.4367232	,	0
48,40	,	47044	,	-23532	,	-20668	,	-1.4800916	,	0
48,40	,	47060	,	-23526	,	-20672	,	-1.7389474	,	0
48,40	,	47076	,	-23526	,	-20682	,	-2.0625901	,	0
48,40	,	47108	,	-23523	,	-20677	,	-2.2369733	,	0
48,40	,	47124	,	-23532	,	-20678	,	-2.1727293	,	0
48,40	,	47140	,	-23536	,	-20689	,	-1.9879489	,	0
48,40	,	47172	,	-23552	,	-20691	,	-1.9862763	,	0
48,40	,	47188	,	-23535	,	-20663	,	-2.4338758	,	0
48,40	,	47220	,	-23518	,	-20677	,	-3.1567245	,	0
48,40	,	47236	,	-23529	,	-20676	,	-3.5825589	,	0
48,40	,	47252	,	-23531	,	-20676	,	-3.3799288	,	0
48,40	,	47284	,	-23515	,	-20677	,	-2.618365	,	0
48,40	,	47300	,	-23515	,	-20676	,	-1.3654884	,	0
48,40	,	47316	,	-23515	,	-20675	,	0.3346902	,	1
48,40	,	47348	,	-23516	,	-20679	,	2.2595496	,	2
48,40	,	47364	,	-23519	,	-20687	,	4.062204	,	3
48,40	,	47380	,	-23499	,	-20679	,	5.5152273	,	4
48,40	,	47412	,	-23519	,	-20678	,	6.6143045	,	5
48,40	,	47428	,	-23524	,	-20665	,	7.2695312	,	6
48,40	,	47460	,	-23531	,	-20678	,	7.1559887	,	6
48,40	,	47476	,	-23522	,	-20677	,	6.0923643	,	6
48,41	,	47492	,	-23515	,	-20674	,	4.343672	,	6
48,41	,	47524	,	-23528	,	-20681	,	2.409216	,	5
48,41	,	47540	,	-23539	,	-20676	,	0.5394056	,	4
48,41	,	47556	,	-23523	,	-20674	,	-1.2788887	,	3
48,41	,	47588	,	-23526	,	-20683	,	-2.9068036	,	2
48,41	,	47604	,	-23513	,	-20673	,	-4.0037546	,	1
48,41	,	47636	,	-23526	,	-20674	,	-4.325842	,	0
48,41	,	47652	,	-23529	,	-20685	,	-3.9579382	,	0
48,41	,	47668	,	-23526	,	-20665	,	-3.2444057	,	0
48,41	,	47700	,	-23534	,	-20683	,	-2.5129063	,	0
48,41	,	47716	,	-23537	,	-20678	,	-2.0052183	,	0
48,41	,	47732	,	-23524	,	-20685	,	-1.8367281	,	0
48,41	,	47763	,	-23527	,	-20681	,	-1.8641503	,	0
48,41	,	47780	,	-23518	,	-20675	,	-1.802639	,	0
48,41	,	47812	,	-23539	,	-20676	,	-1.5183644	,	0
48,41	,	47828	,	-23547	,	-20676	,	-1.2429981	,	0
48,41	,	47844	,	-23539	,	-20679	,	-1.3743906	,	0
48,41	,	47876	,	-23539	,	-20694	,	-1.9974644	,	0
48,41	,	47891	,	-23537	,	-20700	,	-2.8443108	,	0
48,41	,	47908	,	-23549	,	-20674	,	-3.654964	,	0
48,41	,	47940	,	-23553	,	-20678	,	-4.407299	,	0
48,41	,	47956	,	-23543	,	-20674	,	-5.1676755	,	0
48,41	,	47972	,	-23537	,	-20687	,	-5.7845254	,	0
48,41	,	48004	,	-23533	,	-20672	,	-5.9222937	,	0
48,41	,	48020	,	-23538	,	-20677	,	-5.3760343	,	0
48,41	,	48052	,	-23528	,	-20679	,	-4.198091	,	0
48,41	,	48068	,	-23516	,	-20681	,	-2.490168	,	1
48,41	,	48084	,	-23523	,	-20670	,	-0.29889703	,	2
48,41	,	48116	,	-23508	,	-20677	,	2.231917	,	4
48,41	,	48132	,	-23524	,	-20684	,	4.819973	,	6
48,41	,	48148	,	-23513	,	-20664	,	7.100408	,	8
48,41	,	48179	,	-23509	,	-20669	,	8.795334	,	10
48,41	,	48195	,	-23513	,	-20669	,	9.852918	,	11
48,41	,	48227	,	-23512	,	-20679	,	10.290546	,	12
48,41	,	48243	,	-23526	,	-20671	,	10.048946	,	12
48,41	,	48259	,	-23522	,	-20671	,	9.031739	,	11
48,41	,	48291	,	-23513	,	-20666	,	7.3201084	,	10
48,41	,	48308	,	-23528	,	-20680	,	5.2413497	,	8
48,41	,	48323	,	-23504	,	-20665	,	3.1664848	,	6
48,41	,	48355	,	-23508	,	-20665	,	1.4952071	,	4
48,41	,	48371	,	-23520	,	-20682	,	0.50937533	,	2
48,41	,	48387	,	-23518	,	-20654	,	0.08432865	,	1
48,41	,	48419	,	-23522	,	-20671	,	-0.10951346	,	0
48,41	,	48435	,	-23521	,	-20671	,	-0.2992906	,	0
48,41	,	48468	,	-23506	,	-20662	,	-0.50799316	,	0
48,41	,	48484	,	-23515	,	-20667	,	-0.5639466	,	0
48,42	,	48500	,	-23518	,	-20670	,	-0.37405476	,	0
48,42	,	48532	,	-23517	,	-20666	,	-0.07913791	,	0
48,42	,	48547	,	-23519	,	-20666	,	0.14802536	,	0
48,42	,	48563	,	-23513	,	-20658	,	0.25879982	,	0
48,42	,	48595	,	-23514	,	-20664	,	0.3138734	,	0
48,42	,	48611	,	-23534	,	-20676	,	0.29651082	,	0
48,42	,	48643	,	-23527	,	-20662	,	-0.015612379	,	0
48,42	,	48659	,	-23525	,	-20675	,	-0.7569341	,	0
48,42	,	48675	,	-23526	,	-20676	,	-1.7472997	,	0
48,42	,	48707	,	-23527	,	-20670	,	-2.705031	,	0
48,42	,	48723	,	-23533	,	-20675	,	-3.4725049	,	0
48,42	,	48739	,	-23541	,	-20675	,	-4.0813274	,	0
48,42	,	48771	,	-23537	,	-20672	,	-4.6706533	,	0
48,42	,	48787	,	-23535	,	-20675	,	-5.262967	,	0
48,42	,	48803	,	-23530	,	-20677	,	-5.6837525	,	0
48,42	,	48835	,	-23524	,	-20670	,	-5.6894026	,	0
48,42	,	48851	,	-23521	,	-20676	,	-5.0877295	,	0
48,42	,	48883	,	-23504	,	-20659	,	-3.7488348	,	0
48,42	,	48899	,	-23509	,	-20661	,	-1.614713	,	1
48,42	,	48915	,	-23497	,	-20656	,	1.1892042	,	3
48,42	,	48947	,	-23501	,	-20663	,	4.3389306	,	5
48,42	,	48963	,	-23494	,	-20657	,	7.4337387	,	8
48,42	,	48979	,	-23496	,	-20661	,	10.102061	,	11
48,42	,	49011	,	-23496	,	-20663	,	12.05915	,	13
48,42	,	49027	,	-23487	,	-20656	,	13.163851	,	14
48,42	,	49059	,	-23500	,	-20659	,	13.427584	,	15
48,42	,	49075	,	-23504	,	-20658	,	12.8493185	,	15
48,42	,	49091	,	-23501	,	-20667	,	11.402473	,	14
48,42	,	49123	,	-23492	,	-20644	,	9.2906	,	12
48,42	,	49139	,	-23500	,	-20655	,	6.9422092	,	10
48,42	,	49155	,	-23494	,	-20664	,	4.728333	,	7
48,42	,	49187	,	-23501	,	-20659	,	2.839713	,	4
48,42	,	49203	,	-23501	,	-20665	,	1.3166308	,	2
48,42	,	49219	,	-23497	,	-20670	,	0.13215756	,	1
48,42	,	49251	,	-23509	,	-20657	,	-0.752525	,	0
48,42	,	49267	,	-23507	,	-20667	,	-1.4567996	,	0
48,42	,	49299	,	-23512	,	-20665	,	-2.1376204	,	0
48,42	,	49315	,	-23492	,	-20672	,	-2.7750447	,	0
48,42	,	49331	,	-23507	,	-20685	,	-3.1483305	,	0
48,42	,	49363	,	-23516	,	-20655	,	-3.192617	,	0
48,42	,	49379	,	-23515	,	-20659	,	-3.1678333	,	0
48,42	,	49395	,	-23518	,	-20656	,	-3.3288927	,	0
48,42	,	49427	,	-23514	,	-20671	,	-3.698361	,	0
48,42	,	49443	,	-23516	,	-20673	,	-4.1350107	,	0
48,42	,	49475	,	-23530	,	-20662	,	-4.5397067	,	0
48,43	,	49491	,	-23514	,	-20665	,	-4.9413033	,	0
48,43	,	49507	,	-23508	,	-20651	,	-5.2241116	,	0
48,43	,	49539	,	-23521	,	-20667	,	-5.121513	,	0
48,43	,	49555	,	-23521	,	-20671	,	-4.619398	,	0
48,43	,	49571	,	-23530	,	-20684	,	-4.002533	,	0
48,43	,	49603	,	-23524	,	-20657	,	-3.5581918	,	0
48,43	,	49619	,	-23502	,	-20663	,	-3.2629018	,	0
48,43	,	49635	,	-23511	,	-20663	,	-2.7428331	,	0
48,43	,	49667	,	-23498	,	-20653	,	-1.6822891	,	0
48,43	,	49683	,	-23497	,	-20658	,	-0.041923404	,	1
48,43	,	49715	,	-23478	,	-20650	,	2.129972	,	2
48,43	,	49730	,	-23482	,	-20663	,	4.784968	,	4
48,43	,	49746	,	-23481	,	-20656	,	7.716941	,	6
48,43	,	49779	,	-23475	,	-20654	,	10.525636	,	8
48,43	,	49795	,	-23477	,	-20663	,	12.838396	,	10
48,43	,	49811	,	-23496	,	-20667	,	14.319292	,	12
48,43	,	49843	,	-23507	,	-20645	,	14.499334	,	13
48,43	,	49859	,	-23486	,	-20653	,	13.082066	,	13
48,43	,	49890	,	-23499	,	-20649	,	10.374048	,	12
48,43	,	49906	,	-23496	,	-20654	,	7.0211444	,	11
48,43	,	49922	,	-23495	,	-20652	,	3.5894299	,	9
48,43	,	49955	,	-23485	,	-20654	,	0.57900476	,	7
48,43	,	49971	,	-23481	,	-20647	,	-1.5465536	,	5
48,43	,	49987	,	-23492	,	-20655	,	-2.5586338	,	3
48,43	,	50018	,	-23483	,	-20651	,	-2.5975668	,	1
48,43	,	50034	,	-23481	,	-20652	,	-1.9553516	,	0
48,43	,	50067	,	-23482	,	-20664	,	-0.86397827	,	0
48,43	,	50083	,	-23482	,	-20646	,	0.44100153	,	1
48,43	,	50099	,	-23493	,	-20651	,	1.6511977	,	2
48,43	,	50130	,	-23493	,	-20658	,	2.4216833	,	3
48,43	,	50146	,	-23497	,	-20654	,	2.5120869	,	3
48,43	,	50163	,	-23503	,	-20659	,	1.8760576	,	3
48,43	,	50194	,	-23497	,	-20648	,	0.633062	,	3
48,43	,	50210	,	-23494	,	-20654	,	-0.91374457	,	3
48,43	,	50226	,	-23498	,	-20655	,	-2.3708687	,	3
48,43	,	50258	,	-23491	,	-20649	,	-3.4523277	,	3
48,43	,	50274	,	-23491	,	-20659	,	-3.9982948	,	2
48,43	,	50307	,	-23507	,	-20674	,	-4.0198727	,	1
48,43	,	50323	,	-23507	,	-20647	,	-3.8062353	,	0
48,43	,	50338	,	-23500	,	-20659	,	-3.6765058	,	0
48,43	,	50370	,	-23510	,	-20655	,	-3.70404	,	0
48,43	,	50386	,	-23513	,	-20661	,	-3.8746061	,	0
48,43	,	50402	,	-23508	,	-20656	,	-4.1963835	,	0
48,43	,	50435	,	-23506	,	-20657	,	-4.557726	,	0
48,43	,	50451	,	-23496	,	-20663	,	-4.708789	,	0
48,43	,	50482	,	-23476	,	-20648	,	-4.2874217	,	0
48,44	,	50498	,	-23477	,	-20652	,	-2.8954945	,	0
48,44	,	50514	,	-23462	,	-20646	,	-0.3687501	,	1
48,44	,	50546	,	-23477	,	-20666	,	3.0404224	,	3
48,44	,	50562	,	-23481	,	-20634	,	6.6626673	,	6
48,44	,	50578	,	-23488	,	-20649	,	9.631983	,	9
48,44	,	50610	,	-23472	,	-20635	,	11.361546	,	11
48,44	,	50626	,	-23474	,	-20645	,	11.834026	,	12
48,44	,	50642	,	-23469	,	-20655	,	11.402281	,	12
48,44	,	50674	,	-23485	,	-20656	,	10.382299	,	12
48,44	,	50690	,	-23479	,	-20650	,	8.885821	,	12
48,44	,	50722	,	-23482	,	-20649	,	6.9935045	,	11
48,44	,	50738	,	-23479	,	-20646	,	4.9049587	,	9
48,44	,	50754	,	-23478	,	-20647	,	2.8763857	,	6
48,44	,	50786	,	-23483	,	-20672	,	1.112844	,	3
48,44	,	50802	,	-23473	,	-20637	,	-0.26038146	,	1
48,44	,	50818	,	-23474	,	-20647	,	-1.126572	,	0
48,44	,	50850	,	-23490	,	-20646	,	-1.4807205	,	0
48,44	,	50866	,	-23480	,	-20642	,	-1.5700945	,	0
48,44	,	50898	,	-23495	,	-20658	,	-1.6936055	,	0
48,44	,	50914	,	-23491	,	-20658	,	-2.0378895	,	0
48,44	,	50930	,	-23480	,	-20656	,	-2.6032817	,	0
48,44	,	50962	,	-23490	,	-20657	,	-3.1626105	,	0
48,44	,	50978	,	-23485	,	-20655	,	-3.5078292	,	0
48,44	,	50994	,	-23484	,	-20660	,	-3.5808742	,	0
48,44	,	51026	,	-23507	,	-20660	,	-3.473424	,	0
48,44	,	51042	,	-23493	,	-20659	,	-3.4548202	,	0
48,44	,	51058	,	-23496	,	-20647	,	-3.6740923	,	0
48,44	,	51090	,	-23504	,	-20659	,	-4.0316334	,	0
48,44	,	51106	,	-23516	,	-20662	,	-4.518195	,	0
48,44	,	51138	,	-23504	,	-20651	,	-5.239707	,	0
48,44	,	51154	,	-23505	,	-20660	,	-6.0857205	,	0
48,44	,	51170	,	-23503	,	-20659	,	-6.7404294	,	0
48,44	,	51202	,	-23510	,	-20670	,	-6.9936347	,	0
48,44	,	51218	,	-23493	,	-20646	,	-6.7852297	,	0
48,44	,	51234	,	-23476	,	-20652	,	-5.934568	,	0
48,44	,	51266	,	-23482	,	-20671	,	-4.1578126	,	0
48,44	,	51282	,	-23474	,	-20645	,	-1.460341	,	1
48,44	,	51314	,	-23467	,	-20639	,	1.8302109	,	3
48,44	,	51330	,	-23470	,	-20639	,	5.3181963	,	6
48,44	,	51346	,	-23466	,	-20632	,	8.578913	,	9
48,44	,	51378	,	-23453	,	-20630	,	11.273719	,	12
48,44	,	51394	,	-23479	,	-20636	,	13.2089	,	14
48,44	,	51410	,	-23482	,	-20635	,	14.061592	,	15
48,44	,	51442	,	-23473	,	-20633	,	13.505555	,	15
48,44	,	51458	,	-23483	,	-20637	,	11.6377945	,	15
48,44	,	51474	,	-23477	,	-20631	,	8.882888	,	14
48,45	,	51506	,	-23474	,	-20631	,	5.7571144	,	12
48,45	,	51522	,	-23479	,	-20625	,	2.7731576	,	9
48,45	,	51554	,	-23474	,	-20631	,	0.28324223	,	6
48,45	,	51570	,	-23476	,	-20635	,	-1.5420938	,	3
48,45	,	51586	,	-23476	,	-20630	,	-2.654482	,	1
48,45	,	51618	,	-23483	,	-20632	,	-3.1556737	,	0
48,45	,	51634	,	-23477	,	-20649	,	-3.2557118	,	0
48,45	,	51650	,	-23476	,	-20641	,	-3.1071453	,	0
48,45	,	51682	,	-23483	,	-20629	,	-2.779857	,	0
48,45	,	51698	,	-23476	,	-20634	,	-2.3650157	,	0
48,45	,	51730	,	-23486	,	-20625	,	-1.9657574	,	0
48,45	,	51746	,	-23505	,	-20645	,	-1.7817441	,	0
48,45	,	51762	,	-23493	,	-20626	,	-2.1216826	,	0
48,45	,	51794	,	-23491	,	-20644	,	-3.0182068	,	0
48,45	,	51809	,	-23491	,	-20630	,	-4.104934	,	0
48,45	,	51825	,	-23503	,	-20646	,	-5.039118	,	0
48,45	,	51857	,	-23480	,	-20636	,	-5.665538	,	0
48,45	,	51874	,	-23498	,	-20636	,	-5.8342605	,	0
48,45	,	51890	,	-23495	,	-20642	,	-5.517937	,	0
48,45	,	51922	,	-23496	,	-20649	,	-4.9071856	,	0
48,45	,	51938	,	-23500	,	-20644	,	-4.2065372	,	0
48,45	,	51970	,	-23505	,	-20641	,	-3.5973988	,	0
48,45	,	51986	,	-23490	,	-20648	,	-3.18988	,	0
48,45	,	52002	,	-23478	,	-20621	,	-2.7904992	,	0
48,45	,	52033	,	-23466	,	-20637	,	-1.9313588	,	0
48,45	,	52049	,	-23459	,	-20635	,	-0.19843829	,	0
48,45	,	52066	,	-23472	,	-20630	,	2.421342	,	1
48,45	,	52098	,	-23456	,	-20633	,	5.480043	,	3
48,45	,	52114	,	-23456	,	-20628	,	8.46277	,	6
48,45	,	52145	,	-23447	,	-20621	,	11.094944	,	8
48,45	,	52161	,	-23453	,	-20625	,	13.225528	,	10
48,45	,	52177	,	-23475	,	-20626	,	14.558714	,	12
48,45	,	52209	,	-23457	,	-20635	,	14.678104	,	13
48,45	,	52225	,	-23454	,	-20638	,	13.540593	,	13
48,45	,	52241	,	-23466	,	-20622	,	11.561312	,	13
48,45	,	52273	,	-23457	,	-20614	,	9.148365	,	12
48,45	,	52289	,	-23449	,	-20627	,	6.6582084	,	10
48,45	,	52306	,	-23446	,	-20633	,	4.5422087	,	7
48,45	,	52337	,	-23449	,	-20629	,	3.1345263	,	5
48,45	,	52353	,	-23441	,	-20647	,	2.494101	,	3
48,45	,	52385	,	-23446	,	-20639	,	2.5057113	,	1
48,45	,	52402	,	-23447	,	-20630	,	2.9304605	,	0
48,45	,	52418	,	-23440	,	-20636	,	3.475785	,	0
48,45	,	52449	,	-23459	,	-20640	,	3.8945274	,	0
48,45	,	52465	,	-23464	,	-20660	,	3.8775418	,	0
48,45	,	52481	,	-23455	,	-20637	,	3.1549191	,	0
48,46	,	52513	,	-23467	,	-20644	,	1.7776761	,	0
48,46	,	52529	,	-23469	,	-20650	,	-0.026598215	,	0
48,46	,	52561	,	-23468	,	-20650	,	-2.0529103	,	0
48,46	,	52577	,	-23462	,	-20641	,	-4.0216503	,	0
48,46	,	52593	,	-23478	,	-20650	,	-5.647339	,	0
48,46	,	52625	,	-23488	,	-20657	,	-6.929828	,	0
48,46	,	52641	,	-23478	,	-20658	,	-8.072059	,	0
48,46	,	52657	,	-23476	,	-20646	,	-9.056038	,	0
48,46	,	52689	,	-23482	,	-20638	,	-9.640764	,	0
48,46	,	52706	,	-23494	,	-20651	,	-9.762903	,	0
48,46	,	52721	,	-23485	,	-20643	,	-9.604412	,	0
48,46	,	52753	,	-23490	,	-20655	,	-9.293095	,	0
48,46	,	52769	,	-23484	,	-20651	,	-8.799568	,	0
48,46	,	52801	,	-23478	,	-20645	,	-8.027562	,	0
48,46	,	52817	,	-23461	,	-20642	,	-6.7871113	,	0
48,46	,	52833	,	-23444	,	-20631	,	-4.748405	,	1
48,46	,	52865	,	-23453	,	-20642	,	-1.6737103	,	3
48,46	,	52881	,	-23461	,	-20646	,	2.1447787	,	6
48,46	,	52897	,	-23456	,	-20633	,	5.9245934	,	9
48,46	,	52929	,	-23447	,	-20639	,	9.00494	,	12
48,46	,	52945	,	-23453	,	-20636	,	11.151358	,	15
48,46	,	52977	,	-23440	,	-20625	,	12.379479	,	17
48,46	,	52993	,	-23438	,	-20635	,	12.8632345	,	18
48,46	,	53009	,	-23436	,	-20641	,	12.870928	,	18
48,46	,	53041	,	-23439	,	-20633	,	12.570997	,	17
48,46	,	53057	,	-23461	,	-20629	,	11.874756	,	15
48,46	,	53073	,	-23436	,	-20630	,	10.567745	,	12
48,46	,	53105	,	-23426	,	-20635	,	8.81416	,	9
48,46	,	53121	,	-23443	,	-20627	,	7.1416006	,	6
48,46	,	53153	,	-23438	,	-20629	,	5.7995996	,	3
48,46	,	53169	,	-23432	,	-20640	,	4.7252426	,	1
48,46	,	53185	,	-23437	,	-20637	,	3.8997629	,	0
48,46	,	53217	,	-23442	,	-20625	,	3.2818916	,	0
48,46	,	53233	,	-23441	,	-20633	,	2.7146719	,	0
48,46	,	53249	,	-23437	,	-20624	,	2.094028	,	0
48,46	,	53281	,	-23435	,	-20632	,	1.4758322	,	0
48,46	,	53297	,	-23442	,	-20633	,	0.9568001	,	0
48,46	,	53313	,	-23447	,	-20625	,	0.49827772	,	0
48,46	,	53345	,	-23450	,	-20638	,	-0.06381667	,	0
48,46	,	53361	,	-23448	,	-20628	,	-0.8378994	,	0
48,46	,	53393	,	-23461	,	-20638	,	-1.8219265	,	0
48,46	,	53409	,	-23461	,	-20642	,	-3.0206156	,	0
48,46	,	53425	,	-23456	,	-20643	,	-4.389643	,	0
48,46	,	53457	,	-23457	,	-20634	,	-5.6924343	,	0
48,46	,	53473	,	-23463	,	-20646	,	-6.6615314	,	0
48,46	,	53489	,	-23463	,	-20641	,	-7.2231894	,	0
48,47	,	53521	,	-23461	,	-20637	,	-7.4186506	,	0
48,47	,	53537	,	-23457	,	-20645	,	-7.2400904	,	0
48,47	,	53569	,	-23457	,	-20644	,	-6.648328	,	0
48,47	,	53585	,	-23463	,	-20649	,	-5.698162	,	0
48,47	,	53601	,	-23465	,	-20647	,	-4.592145	,	0
48,47	,	53632	,	-23454	,	-20638	,	-3.528244	,	1
48,47	,	53649	,	-23457	,	-20643	,	-2.5227075	,	2
48,47	,	53665	,	-23437	,	-20648	,	-1.4243376	,	3
48,47	,	53697	,	-23440	,	-20631	,	-0.006195307	,	4
48,47	,	53713	,	-23431	,	-20641	,	1.8694826	,	5
48,47	,	53729	,	-23424	,	-20640	,	4.1570864	,	6
48,47	,	53761	,	-23426	,	-20633	,	6.6926	,	8
48,47	,	53777	,	-23434	,	-20632	,	9.143591	,	10
48,47	,	53808	,	-23425	,	-20629	,	11.057576	,	12
48,47	,	53824	,	-23425	,	-20621	,	12.165294	,	12
48,47	,	53841	,	-23437	,	-20640	,	12.414446	,	12
48,47	,	53873	,	-23428	,	-20628	,	11.788183	,	11
48,47	,	53889	,	-23435	,	-20641	,	10.369264	,	10
48,47	,	53905	,	-23443	,	-20638	,	8.340098	,	9
48,47	,	53937	,	-23437	,	-20632	,	5.8689857	,	8
48,47	,	53953	,	-23425	,	-20617	,	3.270381	,	6
48,47	,	53984	,	-23434	,	-20624	,	1.0271654	,	4
48,47	,	54001	,	-23435	,	-20620	,	-0.57012653	,	2
48,47	,	54016	,	-23425	,	-20636	,	-1.5119357	,	1
48,47	,	54049	,	-23423	,	-20628	,	-1.8002145	,	0
48,47	,	54065	,	-23421	,	-20640	,	-1.409289	,	0
48,47	,	54081	,	-23428	,	-20617	,	-0.4690838	,	0
48,47	,	54113	,	-23427	,	-20629	,	0.70094943	,	0
48,47	,	54128	,	-23424	,	-20635	,	1.770035	,	1
48,47	,	54144	,	-23436	,	-20632	,	2.512536	,	2
48,47	,	54176	,	-23434	,	-20620	,	2.7535224	,	2
48,47	,	54192	,	-23430	,	-20632	,	2.4352899	,	2
48,47	,	54225	,	-23438	,	-20629	,	1.6859796	,	2
48,47	,	54241	,	-23438	,	-20631	,	0.6624538	,	2
48,47	,	54256	,	-23446	,	-20648	,	-0.5546212	,	2
48,47	,	54288	,	-23446	,	-20639	,	-1.9227426	,	2
48,47	,	54304	,	-23445	,	-20641	,	-3.356899	,	2
48,47	,	54320	,	-23450	,	-20631	,	-4.6987824	,	1
48,47	,	54352	,	-23454	,	-20638	,	-5.830292	,	0
48,47	,	54369	,	-23441	,	-20636	,	-6.6713343	,	0
48,47	,	54400	,	-23450	,	-20633	,	-7.0717835	,	0
48,47	,	54416	,	-23457	,	-20639	,	-6.9876137	,	0
48,47	,	54432	,	-23448	,	-20645	,	-6.592735	,	0
48,47	,	54465	,	-23453	,	-20635	,	-6.035283	,	0
48,47	,	54480	,	-23440	,	-20629	,	-5.3014097	,	0
48,48	,	54496	,	-23428	,	-20637	,	-4.2196074	,	0
48,48	,	54528	,	-23424	,	-20638	,	-2.5275657	,	1
48,48	,	54544	,	-23435	,	-20630	,	-0.19100761	,	2
48,48	,	54560	,	-23422	,	-20636	,	2.4445882	,	4
48,48	,	54592	,	-23418	,	-20628	,	4.9965944	,	6
48,48	,	54608	,	-23428	,	-20641	,	7.236314	,	8
48,48	,	54640	,	-23436	,	-20633	,	8.861111	,	10
48,48	,	54656	,	-23441	,	-20636	,	9.468428	,	11
48,48	,	54672	,	-23439	,	-20632	,	8.848619	,	11
48,48	,	54704	,	-23444	,	-20630	,	7.1382904	,	11
48,48	,	54720	,	-23442	,	-20635	,	4.7011166	,	10
48,48	,	54736	,	-23434	,	-20642	,	2.0124974	,	9
48,48	,	54768	,	-23434	,	-20644	,	-0.39555907	,	7
48,48	,	54785	,	-23433	,	-20633	,	-2.113665	,	5
48,48	,	54816	,	-23440	,	-20637	,	-3.0281453	,	3
48,48	,	54832	,	-23432	,	-20641	,	-3.2671285	,	1
48,48	,	54848	,	-23443	,	-20642	,	-3.0417604	,	0
48,48	,	54880	,	-23438	,	-20644	,	-2.586061	,	0
48,48	,	54896	,	-23436	,	-20642	,	-2.0824442	,	0
48,48	,	54912	,	-23451	,	-20647	,	-1.6497062	,	0
48,48	,	54944	,	-23445	,	-20636	,	-1.4514515	,	0
48,48	,	54960	,	-23450	,	-20642	,	-1.6011754	,	0
48,48	,	54976	,	-23450	,	-20648	,	-2.0554326	,	0
48,48	,	55008	,	-23451	,	-20654	,	-2.6975389	,	0
48,48	,	55024	,	-23457	,	-20636	,	-3.4149005	,	0
48,48	,	55056	,	-23464	,	-20642	,	-4.1807694	,	0
48,48	,	55072	,	-23463	,	-20649	,	-5.0446754	,	0
48,48	,	55088	,	-23468	,	-20651	,	-5.9986176	,	0
48,48	,	55120	,	-23468	,	-20652	,	-6.9482756	,	0
48,48	,	55136	,	-23461	,	-20645	,	-7.7374644	,	0
48,48	,	55152	,	-23467	,	-20657	,	-8.16827	,	0
48,48	,	55184	,	-23467	,	-20649	,	-8.134119	,	0
48,48	,	55200	,	-23458	,	-20645	,	-7.6457853	,	0
48,48	,	55232	,	-23457	,	-20653	,	-6.6945143	,	0
48,48	,	55248	,	-23454	,	-20652	,	-5.271777	,	0
48,48	,	55264	,	-23443	,	-20648	,	-3.4262025	,	1
48,48	,	55296	,	-23441	,	-20647	,	-1.1982903	,	2
48,48	,	55312	,	-23441	,	-20648	,	1.3251357	,	4
48,48	,	55328	,	-23449	,	-20655	,	3.8636742	,	6
48,48	,	55360	,	-23441	,	-20645	,	6.010625	,	8
48,48	,	55376	,	-23448	,	-20642	,	7.4640102	,	10
48,48	,	55392	,	-23437	,	-20643	,	8.142667	,	11
48,48	,	55424	,	-23466	,	-20652	,	8.050101	,	11
48,48	,	55440	,	-23453	,	-20646	,	7.1020484	,	11
48,48	,	55472	,	-23455	,	-20651	,	5.339932	,	10
48,48	,	55488	,	-23448	,	-20659	,	3.1533046	,	9
48,49	,	55503	,	-23452	,	-20656	,	1.0467837	,	7
48,49	,	55536	,	-23450	,	-20654	,	-0.6348059	,	5
48,49	,	55552	,	-23449	,	-20653	,	-1.7519549	,	3
48,49	,	55568	,	-23445	,	-20648	,	-2.2842917	,	1
48,49	,	55600	,	-23452	,	-20648	,	-2.2838304	,	0
48,49	,	55616	,	-23445	,	-20649	,	-1.8945572	,	0
48,49	,	55648	,	-23446	,	-20649	,	-1.2734573	,	0
48,49	,	55663	,	-23456	,	-20653	,	-0.57432365	,	0
48,49	,	55680	,	-23458	,	-20649	,	-0.04300648	,	0
48,49	,	55712	,	-23461	,	-20656	,	0.07231313	,	0
48,49	,	55728	,	-23452	,	-20662	,	-0.26920742	,	0
48,49	,	55744	,	-23469	,	-20656	,	-0.9251943	,	0
48,49	,	55776	,	-23465	,	-20666	,	-1.7995795	,	0
48,49	,	55792	,	-23453	,	-20653	,	-2.7882917	,	0
48,49	,	55823	,	-23453	,	-20670	,	-3.5753222	,	0
48,49	,	55839	,	-23475	,	-20649	,	-3.93382	,	0
48,49	,	55855	,	-23464	,	-20654	,	-4.034649	,	0
48,49	,	55888	,	-23483	,	-20659	,	-4.187026	,	0
48,49	,	55904	,	-23491	,	-20659	,	-4.669277	,	0
48,49	,	55920	,	-23484	,	-20668	,	-5.6854734	,	0
48,49	,	55952	,	-23483	,	-20666	,	-7.096749	,	0
48,49	,	55968	,	-23471	,	-20658	,	-8.40785	,	0
48,49	,	55983	,	-23463	,	-20668	,	-9.035081	,	0
48,49	,	56015	,	-23450	,	-20668	,	-8.498993	,	0
48,49	,	56031	,	-23451	,	-20658	,	-6.585663	,	0
48,49	,	56063	,	-23454	,	-20670	,	-3.511097	,	1
48,49	,	56080	,	-23452	,	-20654	,	0.12616086	,	4
48,49	,	56096	,	-23448	,	-20652	,	3.677299	,	7
48,49	,	56128	,	-23447	,	-20655	,	6.704454	,	10
48,49	,	56143	,	-23453	,	-20661	,	8.948364	,	13
48,49	,	56159	,	-23447	,	-20665	,	10.24839	,	15
48,49	,	56191	,	-23449	,	-20661	,	10.592591	,	16
48,49	,	56207	,	-23455	,	-20664	,	10.091236	,	16
48,49	,	56240	,	-23453	,	-20664	,	8.877082	,	16
48,49	,	56255	,	-23452	,	-20660	,	7.143885	,	15
48,49	,	56272	,	-23451	,	-20658	,	5.179775	,	12
48,49	,	56304	,	-23466	,	-20655	,	3.2069297	,	9
48,49	,	56320	,	-23469	,	-20657	,	1.2201366	,	6
48,49	,	56336	,	-23473	,	-20651	,	-0.8909333	,	3
48,49	,	56367	,	-23459	,	-20658	,	-3.0514317	,	1
48,49	,	56383	,	-23463	,	-20657	,	-4.9161005	,	0
48,49	,	56399	,	-23461	,	-20650	,	-6.119806	,	0
48,49	,	56431	,	-23462	,	-20659	,	-6.531021	,	0
48,49	,	56447	,	-23460	,	-20642	,	-6.2249327	,	0
48,49	,	56479	,	-23466	,	-20664	,	-5.3873396	,	0
48,50	,	56495	,	-23466	,	-20659	,	-4.290058	,	0
48,50	,	56511	,	-23464	,	-20648	,	-3.1963718	,	1
48,50	,	56543	,	-23467	,	-20660	,	-2.256489	,	2
48,50	,	56559	,	-23473	,	-20647	,	-1.5679524	,	2
48,50	,	56575	,	-23478	,	-20657	,	-1.2669132	,	2
48,50	,	56607	,	-23470	,	-20653	,	-1.4252436	,	2
48,50	,	56623	,	-23476	,	-20660	,	-1.9214061	,	2
48,50	,	56655	,	-23468	,	-20654	,	-2.5136533	,	2
48,50	,	56671	,	-23480	,	-20657	,	-3.0061548	,	2
48,50	,	56687	,	-23473	,	-20663	,	-3.3444629	,	2
48,50	,	56719	,	-23481	,	-20654	,	-3.5656087	,	1
48,50	,	56735	,	-23478	,	-20654	,	-3.7094433	,	0
48,50	,	56751	,	-23487	,	-20655	,	-3.8268943	,	0
48,50	,	56783	,	-23486	,	-20666	,	-3.9994025	,	0
48,50	,	56799	,	-23483	,	-20650	,	-4.2578306	,	0
48,50	,	56815	,	-23457	,	-20653	,	-4.3810287	,	0
48,50	,	56847	,	-23451	,	-20638	,	-3.841719	,	0
48,50	,	56863	,	-23445	,	-20651	,	-2.1704545	,	0
48,50	,	56895	,	-23440	,	-20646	,	0.6669197	,	1
48,50	,	56911	,	-23445	,	-20636	,	4.2679453	,	3
48,50	,	56927	,	-23438	,	-20638	,	7.998201	,	6
48,50	,	56959	,	-23430	,	-20639	,	11.305052	,	9
48,50	,	56975	,	-23434	,	-20638	,	13.898734	,	12
48,50	,	56991	,	-23442	,	-20640	,	15.573204	,	14
48,50	,	57023	,	-23436	,	-20661	,	16.110283	,	15
48,50	,	57039	,	-23457	,	-20648	,	15.391148	,	15
48,50	,	57071	,	-23457	,	-20648	,	13.375348	,	15
48,50	,	57087	,	-23451	,	-20646	,	10.202202	,	14
48,50	,	57103	,	-23442	,	-20641	,	6.4229856	,	12
48,50	,	57135	,	-23440	,	-20642	,	2.8395872	,	9
48,50	,	57151	,	-23447	,	-20637	,	0.05241394	,	6
48,50	,	57167	,	-23440	,	-20643	,	-1.7468302	,	3
48,50	,	57199	,	-23442	,	-20636	,	-2.6163235	,	1
48,50	,	57215	,	-23439	,	-20645	,	-2.6989112	,	0
48,50	,	57231	,	-23446	,	-20642	,	-2.2144496	,	0
48,50	,	57264	,	-23456	,	-20660	,	-1.5060896	,	0
48,50	,	57279	,	-23444	,	-20638	,	-0.94419277	,	0
48,50	,	57311	,	-23452	,	-20641	,	-0.683359	,	0
48,50	,	57327	,	-23442	,	-20660	,	-0.6467476	,	0
48,50	,	57343	,	-23450	,	-20643	,	-0.69716036	,	0
48,50	,	57375	,	-23448	,	-20636	,	-0.74814993	,	0
48,50	,	57391	,	-23458	,	-20659	,	-0.8286916	,	0
48,50	,	57407	,	-23458	,	-20644	,	-1.0680687	,	0
48,50	,	57439	,	-23453	,	-20652	,	-1.541206	,	0
48,50	,	57455	,	-23459	,	-20652	,	-2.1568875	,	0
48,50	,	57487	,	-23458	,	-20640	,	-2.7802148	,	0
48,51	,	57503	,	-23458	,	-20663	,	-3.3274508	,	0
48,51	,	57519	,	-23458	,	-20642	,	-3.719098	,	0
48,51	,	57551	,	-23474	,	-20651	,	-3.9648824	,	0
48,51	,	57567	,	-23468	,	-20651	,	-4.238403	,	0
48,51	,	57582	,	-23470	,	-20643	,	-4.6627645	,	0
48,51	,	57615	,	-23462	,	-20652	,	-5.128609	,	0
48,51	,	57631	,	-23444	,	-20646	,	-5.3059473	,	0
48,51	,	57647	,	-23464	,	-20650	,	-4.8384953	,	0
48,51	,	57679	,	-23430	,	-20636	,	-3.5965595	,	0
48,51	,	57695	,	-23440	,	-20648	,	-1.5727603	,	1
48,51	,	57726	,	-23427	,	-20644	,	1.1705616	,	3
48,51	,	57742	,	-23432	,	-20653	,	4.342508	,	5
48,51	,	57759	,	-23428	,	-20625	,	7.4940786	,	8
48,51	,	57791	,	-23430	,	-20644	,	10.175119	,	11
48,51	,	57807	,	-23428	,	-20640	,	12.047731	,	13
48,51	,	57822	,	-23440	,	-20635	,	12.903896	,	14
48,51	,	57855	,	-23439	,	-20633	,	12.615629	,	14
48,51	,	57870	,	-23439	,	-20637	,	11.216274	,	14
48,51	,	57903	,	-23434	,	-20633	,	8.998442	,	13
48,51	,	57919	,	-23441	,	-20635	,	6.397527	,	11
48,51	,	57935	,	-23428	,	-20645	,	3.8286943	,	9
48,51	,	57967	,	-23433	,	-20643	,	1.6638975	,	6
48,51	,	57982	,	-23427	,	-20658	,	0.1677792	,	3
48,51	,	58014	,	-23426	,	-20627	,	-0.5703721	,	1
48,51	,	58031	,	-23430	,	-20640	,	-0.6224783	,	0
48,51	,	58047	,	-23429	,	-20640	,	-0.21036573	,	0
48,51	,	58079	,	-23429	,	-20638	,	0.39117166	,	0
48,51	,	58095	,	-23440	,	-20634	,	0.9244551	,	0
48,51	,	58111	,	-23454	,	-20637	,	1.0555481	,	0
48,51	,	58142	,	-23432	,	-20635	,	0.52486145	,	0
48,51	,	58158	,	-23447	,	-20637	,	-0.53625154	,	0
48,51	,	58190	,	-23448	,	-20638	,	-1.816273	,	0
48,51	,	58207	,	-23456	,	-20646	,	-3.185331	,	0
48,51	,	58223	,	-23443	,	-20633	,	-4.562238	,	0
48,51	,	58254	,	-23453	,	-20639	,	-5.7363367	,	0
48,51	,	58270	,	-23457	,	-20644	,	-6.548706	,	0
48,51	,	58286	,	-23469	,	-20646	,	-7.0972376	,	0
48,51	,	58318	,	-23459	,	-20654	,	-7.582973	,	0
48,51	,	58334	,	-23470	,	-20637	,	-8.055218	,	0
48,51	,	58350	,	-23458	,	-20646	,	-8.421246	,	0
48,51	,	58383	,	-23470	,	-20644	,	-8.566465	,	0
48,51	,	58399	,	-23469	,	-20649	,	-8.462186	,	0
48,51	,	58430	,	-23467	,	-20648	,	-8.167093	,	0
48,51	,	58446	,	-23465	,	-20663	,	-7.687868	,	0
48,51	,	58462	,	-23474	,	-20639	,	-7.012431	,	0
48,52	,	58494	,	-23442	,	-20639	,	-6.104348	,	0
48,52	,	58510	,	-23449	,	-20637	,	-4.723088	,	0
48,52	,	58526	,	-23442	,	-20638	,	-2.6460643	,	1
48,52	,	58558	,	-23432	,	-20626	,	0.056556225	,	3
48,52	,	58574	,	-23439	,	-20628	,	3.1355824	,	5
48,52	,	58606	,	-23432	,	-20627	,	6.2277865	,	8
48,52	,	58622	,	-23433	,	-20633	,	8.93359	,	11
48,52	,	58638	,	-23428	,	-20641	,	10.984678	,	13
48,52	,	58670	,	-23424	,	-20629	,	12.295639	,	15
48,52	,	58686	,	-23428	,	-20644	,	12.904828	,	16
48,52	,	58702	,	-23437	,	-20620	,	12.804619	,	16
48,52	,	58734	,	-23443	,	-20632	,	11.865581	,	15
48,52	,	58750	,	-23433	,	-20633	,	10.047241	,	13
48,52	,	58766	,	-23434	,	-20639	,	7.6197934	,	11
48,52	,	58798	,	-23439	,	-20636	,	5.016372	,	8
48,52	,	58814	,	-23433	,	-20635	,	2.5710568	,	5
48,52	,	58846	,	-23446	,	-20633	,	0.46612835	,	3
48,52	,	58862	,	-23437	,	-20634	,	-1.2466018	,	1
48,52	,	58878	,	-23432	,	-20629	,	-2.5147603	,	0
48,52	,	58910	,	-23433	,	-20630	,	-3.1984425	,	0
48,52	,	58926	,	-23439	,	-20645	,	-3.2588735	,	0
48,52	,	58942	,	-23440	,	-20629	,	-2.8831086	,	0
48,52	,	58974	,	-23441	,	-20641	,	-2.3470275	,	0
48,52	,	58990	,	-23431	,	-20641	,	-1.8098848	,	0
48,52	,	59022	,	-23451	,	-20634	,	-1.3246623	,	0
48,52	,	59038	,	-23455	,	-20640	,	-1.0825539	,	0
48,52	,	59054	,	-23459	,	-20646	,	-1.3907866	,	0
48,52	,	59086	,	-23447	,	-20639	,	-2.3063507	,	0
48,52	,	59102	,	-23460	,	-20648	,	-3.5453014	,	0
48,52	,	59118	,	-23448	,	-20645	,	-4.7592144	,	0
48,52	,	59150	,	-23457	,	-20649	,	-5.695405	,	0
48,52	,	59166	,	-23465	,	-20652	,	-6.2697115	,	0
48,52	,	59182	,	-23460	,	-20636	,	-6.5902076	,	0
48,52	,	59214	,	-23469	,	-20650	,	-6.7797623	,	0
48,52	,	59230	,	-23458	,	-20649	,	-6.8644075	,	0
48,52	,	59262	,	-23458	,	-20653	,	-6.7573223	,	0
48,52	,	59278	,	-23444	,	-20633	,	-6.2465677	,	0
48,52	,	59294	,	-23443	,	-20649	,	-5.0959435	,	0
48,52	,	59326	,	-23442	,	-20654	,	-3.2347648	,	1
48,52	,	59342	,	-23449	,	-20645	,	-0.89529705	,	2
48,52	,	59358	,	-23430	,	-20643	,	1.5485027	,	4
48,52	,	59390	,	-23424	,	-20643	,	3.9337451	,	6
48,52	,	59406	,	-23431	,	-20641	,	6.270162	,	8
48,52	,	59438	,	-23433	,	-20647	,	8.377925	,	10
48,52	,	59454	,	-23439	,	-20636	,	9.866827	,	12
48,52	,	59470	,	-23445	,	-20632	,	10.379679	,	13
48,53	,	59502	,	-23442	,	-20643	,	9.7579	,	13
48,53	,	59518	,	-23450	,	-20651	,	8.107219	,	12
48,53	,	59534	,	-23450	,	-20640	,	5.70138	,	11
48,53	,	59566	,	-23450	,	-20652	,	2.8772802	,	9
48,53	,	59582	,	-23438	,	-20636	,	0.07567477	,	7
48,53	,	59598	,	-23460	,	-20642	,	-2.2809234	,	5
48,53	,	59630	,	-23437	,	-20653	,	-4.0033903	,	3
48,53	,	59646	,	-23445	,	-20649	,	-4.999476	,	1
48,53	,	59678	,	-23452	,	-20643	,	-5.2342224	,	0
48,53	,	59694	,	-23457	,	-20651	,	-4.947432	,	0
48,53	,	59710	,	-23450	,	-20646	,	-4.4945836	,	0
48,53	,	59742	,	-23456	,	-20648	,	-4.056279	,	0
48,53	,	59758	,	-23448	,	-20657	,	-3.649929	,	0
48,53	,	59774	,	-23462	,	-20650	,	-3.2744694	,	0
48,53	,	59805	,	-23464	,	-20646	,	-3.0383039	,	0
48,53	,	59822	,	-23464	,	-20658	,	-3.094871	,	0
48,53	,	59853	,	-23453	,	-20652	,	-3.3992262	,	0
48,53	,	59869	,	-23451	,	-20659	,	-3.6500049	,	0
48,53	,	59885	,	-23467	,	-20654	,	-3.6018026	,	0
48,53	,	59918	,	-23460	,	-20661	,	-3.3329046	,	0
48,53	,	59934	,	-23472	,	-20664	,	-3.082859	,	0
48,53	,	59950	,	-23485	,	-20666	,	-3.1090512	,	0
48,53	,	59982	,	-23479	,	-20662	,	-3.6616416	,	0
48,53	,	59998	,	-23477	,	-20649	,	-4.727825	,	0
48,53	,	60014	,	-23465	,	-20662	,	-5.91104	,	0
48,53	,	60045	,	-23465	,	-20656	,	-6.668425	,	0
48,53	,	60062	,	-23448	,	-20652	,	-6.5547123	,	0
48,53	,	60093	,	-23467	,	-20653	,	-5.3991756	,	0
48,53	,	60109	,	-23450	,	-20653	,	-3.4197118	,	1
48,53	,	60125	,	-23440	,	-20649	,	-0.9461527	,	2
48,53	,	60158	,	-23454	,	-20651	,	1.8017099	,	4
48,53	,	60174	,	-23450	,	-20660	,	4.467699	,	6
48,53	,	60190	,	-23462	,	-20656	,	6.5360627	,	8
48,53	,	60221	,	-23448	,	-20657	,	7.651268	,	10
48,53	,	60237	,	-23452	,	-20653	,	7.8190017	,	11
48,53	,	60269	,	-23454	,	-20651	,	7.282086	,	11
48,53	,	60285	,	-23458	,	-20653	,	6.2496147	,	11
48,53	,	60302	,	-23458	,	-20642	,	4.85254	,	10
48,53	,	60334	,	-23451	,	-20650	,	3.2663782	,	9
48,53	,	60350	,	-23465	,	-20660	,	1.7004702	,	7
48,53	,	60365	,	-23458	,	-20657	,	0.2614057	,	5
48,53	,	60397	,	-23460	,	-20655	,	-1.0022719	,	3
48,53	,	60413	,	-23455	,	-20646	,	-1.9802146	,	1
48,53	,	60429	,	-23458	,	-20655	,	-2.5585744	,	0
48,53	,	60461	,	-23473	,	-20655	,	-2.7870634	,	0
48,53	,	60477	,	-23450	,	-20658	,	-2.8471253	,	0
48,54	,	60509	,	-23466	,	-20651	,	-2.7857988	,	0
48,54	,	60525	,	-23457	,	-20657	,	-2.5589166	,	0
48,54	,	60541	,	-23473	,	-20656	,	-2.2601495	,	0
48,54	,	60573	,	-23454	,	-20661	,	-2.0290709	,	0
48,54	,	60589	,	-23469	,	-20663	,	-1.8754265	,	0
48,54	,	60605	,	-23470	,	-20660	,	-1.7913654	,	0
48,54	,	60637	,	-23471	,	-20659	,	-1.8679657	,	0
48,54	,	60653	,	-23481	,	-20654	,	-2.1979172	,	0
48,54	,	60685	,	-23477	,	-20665	,	-2.8280349	,	0
48,54	,	60701	,	-23475	,	-20663	,	-3.6830077	,	0
48,54	,	60717	,	-23470	,	-20674	,	-4.502159	,	0
48,54	,	60749	,	-23481	,	-20658	,	-5.0339427	,	0
48,54	,	60765	,	-23473	,	-20665	,	-5.2155337	,	0
48,54	,	60781	,	-23471	,	-20659	,	-5.0592165	,	0
48,54	,	60813	,	-23471	,	-20657	,	-4.537874	,	0
48,54	,	60829	,	-23450	,	-20662	,	-3.580397	,	0
48,54	,	60845	,	-23456	,	-20650	,	-2.0543594	,	0
48,54	,	60877	,	-23444	,	-20661	,	0.080308676	,	1
48,54	,	60893	,	-23443	,	-20654	,	2.6711795	,	3
48,54	,	60925	,	-23439	,	-20657	,	5.47051	,	5
48,54	,	60941	,	-23435	,	-20656	,	8.190042	,	7
48,54	,	60957	,	-23442	,	-20657	,	10.519522	,	9
48,54	,	60989	,	-23438	,	-20652	,	12.147726	,	11
48,54	,	61005	,	-23435	,	-20653	,	12.888606	,	12
48,54	,	61021	,	-23446	,	-20661	,	12.743076	,	12
48,54	,	61053	,	-23452	,	-20665	,	11.7147255	,	12
48,54	,	61069	,	-23449	,	-20662	,	9.798698	,	11
48,54	,	61101	,	-23435	,	-20638	,	7.263687	,	9
48,54	,	61117	,	-23453	,	-20656	,	4.623694	,	7
48,54	,	61133	,	-23443	,	-20654	,	2.2392635	,	5
48,54	,	61165	,	-23452	,	-20658	,	0.22389579	,	3
48,54	,	61181	,	-23455	,	-20656	,	-1.4170785	,	1
48,54	,	61197	,	-23452	,	-20652	,	-2.7333715	,	0
48,54	,	61229	,	-23457	,	-20652	,	-3.7476523	,	0
48,54	,	61245	,	-23452	,	-20643	,	-4.4433165	,	0
48,54	,	61277	,	-23457	,	-20664	,	-4.8101673	,	0
48,54	,	61293	,	-23455	,	-20649	,	-4.8649416	,	0
48,54	,	61309	,	-23451	,	-20660	,	-4.635932	,	0
48,54	,	61341	,	-23449	,	-20654	,	-4.110528	,	0
48,54	,	61357	,	-23456	,	-20653	,	-3.3087	,	0
48,54	,	61373	,	-23466	,	-20659	,	-2.4393814	,	0
48,54	,	61405	,	-23464	,	-20654	,	-1.8456109	,	0
48,54	,	61421	,	-23475	,	-20660	,	-1.7806436	,	0
48,54	,	61437	,	-23473	,	-20660	,	-2.3227577	,	0
48,54	,	61469	,	-23479	,	-20654	,	-3.3976142	,	0
48,54	,	61485	,	-23469	,	-20660	,	-4.766655	,	0
48,55	,	61517	,	-23475	,	-20666	,	-6.070127	,	0
48,55	,	61533	,	-23470	,	-20662	,	-6.987342	,	0
48,55	,	61549	,	-23483	,	-20669	,	-7.3980713	,	0
48,55	,	61581	,	-23485	,	-20653	,	-7.431473	,	0
48,55	,	61597	,	-23475	,	-20662	,	-7.285655	,	0
48,55	,	61613	,	-23460	,	-20654	,	-6.89573	,	0
48,55	,	61645	,	-23444	,	-20658	,	-5.860717	,	0
48,55	,	61661	,	-23450	,	-20650	,	-3.800511	,	1
48,55	,	61693	,	-23441	,	-20652	,	-0.7518363	,	3
48,55	,	61709	,	-23442	,	-20652	,	2.8646367	,	6
48,55	,	61725	,	-23433	,	-20649	,	6.545165	,	9
48,55	,	61756	,	-23431	,	-20654	,	9.897741	,	12
48,55	,	61773	,	-23441	,	-20651	,	12.612587	,	15
48,55	,	61788	,	-23436	,	-20652	,	14.361289	,	17
48,55	,	61821	,	-23432	,	-20642	,	14.9547	,	18
48,55	,	61837	,	-23443	,	-20642	,	14.465178	,	18
48,55	,	61853	,	-23442	,	-20652	,	13.040453	,	17
48,55	,	61885	,	-23443	,	-20647	,	10.843771	,	15
48,55	,	61901	,	-23449	,	-20645	,	8.121161	,	12
48,55	,	61933	,	-23444	,	-20655	,	5.1625695	,	9
48,55	,	61948	,	-23454	,	-20648	,	2.2536273	,	6
48,55	,	61964	,	-23440	,	-20650	,	-0.34611058	,	3
48,55	,	61997	,	-23441	,	-20644	,	-2.362223	,	1
48,55	,	62012	,	-23449	,	-20636	,	-3.595255	,	0
48,55	,	62029	,	-23443	,	-20658	,	-4.092958	,	0
48,55	,	62061	,	-23442	,	-20638	,	-4.019987	,	0
48,55	,	62077	,	-23445	,	-20641	,	-3.511759	,	0
48,55	,	62109	,	-23448	,	-20636	,	-2.7483358	,	0
48,55	,	62125	,	-23457	,	-20649	,	-1.9989364	,	0
48,55	,	62141	,	-23455	,	-20655	,	-1.5489862	,	0
48,55	,	62172	,	-23470	,	-20658	,	-1.6101875	,	0
48,55	,	62188	,	-23461	,	-20651	,	-2.2680454	,	0
48,55	,	62204	,	-23459	,	-20669	,	-3.3630857	,	0
48,55	,	62236	,	-23456	,	-20640	,	-4.4908347	,	0
48,55	,	62252	,	-23462	,	-20651	,	-5.284129	,	0
48,55	,	62269	,	-23462	,	-20657	,	-5.6248493	,	0
48,55	,	62300	,	-23470	,	-20651	,	-5.616987	,	0
48,55	,	62316	,	-23461	,	-20659	,	-5.4341555	,	0
48,55	,	62348	,	-23469	,	-20648	,	-5.167733	,	0
48,55	,	62364	,	-23457	,	-20647	,	-4.7997007	,	0
48,55	,	62380	,	-23471	,	-20657	,	-4.2873154	,	0
48,55	,	62412	,	-23472	,	-20656	,	-3.7134435	,	0
48,55	,	62428	,	-23456	,	-20649	,	-3.2059782	,	0
48,55	,	62444	,	-23454	,	-20644	,	-2.651529	,	0
48,55	,	62476	,	-23448	,	-20640	,	-1.7785307	,	0
48,56	,	62492	,	-23446	,	-20644	,	-0.4497856	,	0
48,56	,	62524	,	-23436	,	-20657	,	1.3094375	,	1
48,56	,	62540	,	-23440	,	-20639	,	3.3855827	,	2
48,56	,	62556	,	-23428	,	-20645	,	5.5944686	,	4
48,56	,	62588	,	-23433	,	-20639	,	7.7275853	,	6
48,56	,	62604	,	-23446	,	-20649	,	9.495182	,	8
48,56	,	62620	,	-23435	,	-20643	,	10.517868	,	9
48,56	,	62652	,	-23445	,	-20645	,	10.583944	,	10
48,56	,	62668	,	-23443	,	-20651	,	9.730442	,	10
48,56	,	62684	,	-23442	,	-20658	,	8.139944	,	10
48,56	,	62716	,	-23433	,	-20649	,	6.162602	,	9
48,56	,	62732	,	-23434	,	-20635	,	4.2550387	,	8
48,56	,	62764	,	-23428	,	-20652	,	2.791305	,	6
48,56	,	62780	,	-23425	,	-20630	,	1.9749119	,	4
48,56	,	62796	,	-23449	,	-20637	,	1.7335356	,	2
48,56	,	62828	,	-23438	,	-20648	,	1.6630614	,	1
48,56	,	62844	,	-23450	,	-20647	,	1.3503236	,	0
48,56	,	62860	,	-23449	,	-20635	,	0.6280768	,	0
48,56	,	62892	,	-23441	,	-20650	,	-0.4465611	,	0
48,56	,	62908	,	-23435	,	-20641	,	-1.5711046	,	0
48,56	,	62940	,	-23453	,	-20635	,	-2.4191742	,	0
48,56	,	62956	,	-23448	,	-20648	,	-2.9693203	,	0
48,56	,	62972	,	-23445	,	-20655	,	-3.348878	,	0
48,56	,	63004	,	-23456	,	-20653	,	-3.6013951	,	0
48,56	,	63020	,	-23459	,	-20643	,	-3.8174627	,	0
48,56	,	63036	,	-23468	,	-20647	,	-4.195261	,	0
48,56	,	63068	,	-23459	,	-20654	,	-4.850699	,	0
48,56	,	63084	,	-23467	,	-20661	,	-5.682319	,	0
48,56	,	63100	,	-23463	,	-20656	,	-6.4743586	,	0
48,56	,	63132	,	-23471	,	-20657	,	-7.069211	,	0
48,56	,	63148	,	-23474	,	-20662	,	-7.439598	,	0
48,56	,	63180	,	-23468	,	-20656	,	-7.6224203	,	0
48,56	,	63196	,	-23483	,	-20653	,	-7.638709	,	0
48,56	,	63212	,	-23467	,	-20649	,	-7.5175037	,	0
48,56	,	63244	,	-23478	,	-20677	,	-7.2446847	,	0
48,56	,	63260	,	-23476	,	-20643	,	-6.789727	,	0
48,56	,	63276	,	-23462	,	-20647	,	-6.1396465	,	0
48,56	,	63308	,	-23466	,	-20650	,	-5.182027	,	0
48,56	,	63324	,	-23462	,	-20656	,	-3.8271322	,	0
48,56	,	63356	,	-23457	,	-20646	,	-2.145914	,	1
48,56	,	63372	,	-23450	,	-20656	,	-0.23718953	,	2
48,56	,	63387	,	-23454	,	-20655	,	1.8105373	,	3
48,56	,	63420	,	-23457	,	-20645	,	3.790958	,	5
48,56	,	63436	,	-23459	,	-20647	,	5.3823304	,	6
48,56	,	63452	,	-23457	,	-20657	,	6.3290167	,	7
48,56	,	63483	,	-23458	,	-20660	,	6.5675	,	7
48,57	,	63499	,	-23462	,	-20638	,	6.172093	,	7
48,57	,	63532	,	-23468	,	-20659	,	5.225747	,	7
48,57	,	63548	,	-23443	,	-20657	,	3.9081495	,	6
48,57	,	63564	,	-23476	,	-20660	,	2.5382164	,	5
48,57	,	63596	,	-23464	,	-20659	,	1.2366843	,	4
48,57	,	63612	,	-23469	,	-20659	,	-0.07367337	,	2
48,57	,	63628	,	-23464	,	-20664	,	-1.3405378	,	1
48,57	,	63659	,	-23456	,	-20652	,	-2.360005	,	0
48,57	,	63675	,	-23454	,	-20644	,	-2.8710275	,	0
48,57	,	63691	,	-23457	,	-20654	,	-2.7186599	,	0
48,57	,	63724	,	-23462	,	-20665	,	-2.0270739	,	0
48,57	,	63740	,	-23457	,	-20643	,	-1.1016667	,	0
48,57	,	63771	,	-23472	,	-20660	,	-0.25875604	,	0
48,57	,	63787	,	-23470	,	-20655	,	0.19816172	,	0
48,57	,	63804	,	-23472	,	-20658	,	0.07445228	,	0
48,57	,	63836	,	-23476	,	-20651	,	-0.60270166	,	0
48,57	,	63851	,	-23478	,	-20658	,	-1.6806077	,	0
48,57	,	63867	,	-23479	,	-20668	,	-2.979284	,	0
48,57	,	63899	,	-23492	,	-20680	,	-4.3543124	,	0
48,57	,	63915	,	-23482	,	-20667	,	-5.728752	,	0
48,57	,	63948	,	-23481	,	-20664	,	-6.938049	,	0
48,57	,	63964	,	-23490	,	-20682	,	-7.741848	,	0
48,57	,	63980	,	-23491	,	-20656	,	-8.088616	,	0
48,57	,	64011	,	-23498	,	-20668	,	-8.137901	,	0
48,57	,	64028	,	-23486	,	-20670	,	-8.030253	,	0
48,57	,	64044	,	-23504	,	-20671	,	-7.7976627	,	0
48,57	,	64075	,	-23478	,	-20665	,	-7.4093633	,	0
48,57	,	64091	,	-23485	,	-20665	,	-6.707762	,	0
48,57	,	64107	,	-23472	,	-20658	,	-5.4735746	,	0
48,57	,	64139	,	-23473	,	-20660	,	-3.6317828	,	1
48,57	,	64155	,	-23464	,	-20659	,	-1.2697325	,	2
48,57	,	64187	,	-23469	,	-20663	,	1.4025633	,	4
48,57	,	64203	,	-23472	,	-20685	,	4.0336018	,	6
48,57	,	64220	,	-23473	,	-20659	,	6.190029	,	8
48,57	,	64251	,	-23470	,	-20671	,	7.553086	,	10
48,57	,	64267	,	-23481	,	-20674	,	8.006967	,	11
48,57	,	64283	,	-23478	,	-20673	,	7.548824	,	11
48,57	,	64315	,	-23487	,	-20675	,	6.2587805	,	11
48,57	,	64331	,	-23493	,	-20672	,	4.27279	,	10
48,57	,	64363	,	-23488	,	-20668	,	1.7795973	,	9
48,57	,	64379	,	-23495	,	-20663	,	-0.9133699	,	7
48,57	,	64395	,	-23492	,	-20667	,	-3.4617102	,	5
48,57	,	64427	,	-23491	,	-20673	,	-5.575765	,	3
48,57	,	64443	,	-23486	,	-20688	,	-6.998711	,	1
48,57	,	64459	,	-23488	,	-20657	,	-7.5662436	,	0
48,58	,	64491	,	-23500	,	-20674	,	-7.358098	,	0
48,58	,	64507	,	-23476	,	-20677	,	-6.6155014	,	0
48,58	,	64523	,	-23489	,	-20660	,	-5.452648	,	0
48,58	,	64555	,	-23489	,	-20666	,	-3.9527335	,	1
48,58	,	64571	,	-23500	,	-20661	,	-2.4244535	,	2
48,58	,	64603	,	-23495	,	-20679	,	-1.2569568	,	3
48,58	,	64619	,	-23500	,	-20666	,	-0.65963316	,	4
48,58	,	64635	,	-23497	,	-20675	,	-0.61729324	,	4
48,58	,	64667	,	-23492	,	-20673	,	-0.94772464	,	4
48,58	,	64683	,	-23492	,	-20685	,	-1.3668675	,	4
48,58	,	64699	,	-23501	,	-20663	,	-1.6717833	,	4
48,58	,	64731	,	-23515	,	-20669	,	-1.9530327	,	4
48,58	,	64747	,	-23517	,	-20685	,	-2.5325024	,	3
48,58	,	64779	,	-23519	,	-20686	,	-3.6283731	,	2
48,58	,	64795	,	-23511	,	-20681	,	-5.1080194	,	1
48,58	,	64811	,	-23519	,	-20684	,	-6.5886497	,	0
48,58	,	64843	,	-23522	,	-20687	,	-7.767762	,	0
48,58	,	64859	,	-23511	,	-20680	,	-8.521921	,	0
48,58	,	64875	,	-23499	,	-20684	,	-8.655243	,	0
48,58	,	64907	,	-23495	,	-20681	,	-7.849201	,	0
48,58	,	64923	,	-23489	,	-20684	,	-5.939535	,	0
48,58	,	64939	,	-23499	,	-20674	,	-3.125661	,	1
48,58	,	64971	,	-23492	,	-20670	,	0.06726956	,	3
48,58	,	64987	,	-23485	,	-20680	,	3.1085894	,	6
48,58	,	65019	,	-23506	,	-20682	,	5.6316376	,	9
48,58	,	65035	,	-23496	,	-20677	,	7.2817225	,	11
48,58	,	65051	,	-23508	,	-20676	,	7.8012486	,	12
48,58	,	65083	,	-23509	,	-20682	,	7.176566	,	12
48,58	,	65099	,	-23518	,	-20680	,	5.5313087	,	12
48,58	,	65115	,	-23510	,	-20685	,	3.1079013	,	12
48,58	,	65147	,	-23512	,	-20682	,	0.34278345	,	11
48,58	,	65163	,	-23506	,	-20702	,	-2.2262087	,	9
48,58	,	65195	,	-23505	,	-20676	,	-4.1510267	,	6
48,58	,	65211	,	-23511	,	-20683	,	-5.212587	,	3
48,58	,	65227	,	-23516	,	-20683	,	-5.499711	,	1
48,58	,	65259	,	-23502	,	-20679	,	-5.2536373	,	0
48,58	,	65275	,	-23496	,	-20684	,	-4.5450706	,	0
48,58	,	65291	,	-23499	,	-20680	,	-3.2984896	,	0
48,58	,	65323	,	-23514	,	-20678	,	-1.6705475	,	1
48,58	,	65339	,	-23505	,	-20678	,	-0.11728835	,	2
48,58	,	65355	,	-23512	,	-20688	,	0.97775626	,	3
48,58	,	65387	,	-23524	,	-20691	,	1.422637	,	4
48,58	,	65402	,	-23514	,	-20696	,	1.1142181	,	4
48,58	,	65434	,	-23519	,	-20675	,	0.16556564	,	4
48,58	,	65451	,	-23538	,	-20685	,	-1.2055526	,	4
48,58	,	65467	,	-23519	,	-20687	,	-2.891525	,	4
48,59	,	65499	,	-23521	,	-20690	,	-4.6403537	,	4
48,59	,	65515	,	-23521	,	-20684	,	-6.008946	,	3
48,59	,	65531	,	-23536	,	-20680	,	-6.786913	,	2
48,59	,	65563	,	-23540	,	-20681	,	-7.171897	,	1
48,59	,	65579	,	-23542	,	-20685	,	-7.5032406	,	0
48,59	,	65611	,	-23534	,	-20679	,	-7.908433	,	0
48,59	,	65627	,	-23527	,	-20682	,	-8.18467	,	0
48,59	,	65643	,	-23528	,	-20701	,	-7.9971223	,	0
48,59	,	65675	,	-23538	,	-20687	,	-7.2271876	,	0
48,59	,	65690	,	-23523	,	-20688	,	-6.0338306	,	0
48,59	,	65706	,	-23522	,	-20689	,	-4.551342	,	1
48,59	,	65739	,	-23510	,	-20675	,	-2.7508461	,	2
48,59	,	65755	,	-23508	,	-20673	,	-0.56774473	,	3
48,59	,	65787	,	-23513	,	-20682	,	1.9188104	,	5
48,59	,	65803	,	-23501	,	-20683	,	4.43748	,	7
48,59	,	65819	,	-23504	,	-20671	,	6.721201	,	9
48,59	,	65850	,	-23493	,	-20673	,	8.638563	,	11
48,59	,	65866	,	-23496	,	-20691	,	10.149884	,	12
48,59	,	65883	,	-23498	,	-20689	,	11.204218	,	13
48,59	,	65914	,	-23518	,	-20668	,	11.581291	,	13
48,59	,	65931	,	-23506	,	-20678	,	10.971365	,	12
48,59	,	65947	,	-23504	,	-20669	,	9.368322	,	11
48,59	,	65979	,	-23512	,	-20679	,	7.136974	,	9
48,59	,	65994	,	-23508	,	-20680	,	4.670774	,	7
48,59	,	66026	,	-23507	,	-20686	,	2.2805133	,	5
48,59	,	66042	,	-23511	,	-20681	,	0.22668004	,	3
48,59	,	66059	,	-23506	,	-20672	,	-1.3414173	,	2
48,59	,	66090	,	-23495	,	-20670	,	-2.3051996	,	1
48,59	,	66106	,	-23493	,	-20673	,	-2.4909098	,	0
48,59	,	66122	,	-23495	,	-20682	,	-1.8359294	,	0
48,59	,	66155	,	-23496	,	-20682	,	-0.55381536	,	0
48,59	,	66171	,	-23512	,	-20669	,	0.8976935	,	1
48,59	,	66202	,	-23507	,	-20663	,	1.9803555	,	2
48,59	,	66219	,	-23500	,	-20675	,	2.4008374	,	3
48,59	,	66234	,	-23507	,	-20681	,	2.2483175	,	3
48,59	,	66266	,	-23505	,	-20687	,	1.7312088	,	3
48,59	,	66282	,	-23518	,	-20683	,	0.9512601	,	3
48,59	,	66298	,	-23527	,	-20675	,	-0.15317786	,	3
48,59	,	66330	,	-23519	,	-20677	,	-1.6768335	,	3
48,59	,	66346	,	-23515	,	-20673	,	-3.4498262	,	3
48,59	,	66362	,	-23511	,	-20686	,	-5.027696	,	2
48,59	,	66394	,	-23526	,	-20676	,	-6.058405	,	1
48,59	,	66410	,	-23508	,	-20682	,	-6.4738245	,	0
48,59	,	66442	,	-23522	,	-20684	,	-6.3232393	,	0
48,59	,	66458	,	-23517	,	-20679	,	-5.7186465	,	0
48,59	,	66474	,	-23516	,	-20683	,	-4.849981	,	0
49,0	,	66506	,	-23528	,	-20672	,	-3.9162836	,	0
49,0	,	66523	,	-23511	,	-20678	,	-3.0856655	,	0
49,0	,	66538	,	-23523	,	-20674	,	-2.3883412	,	0
49,0	,	66570	,	-23510	,	-20675	,	-1.7407392	,	0
49,0	,	66586	,	-23502	,	-20673	,	-0.9993721	,	0
49,0	,	66618	,	-23494	,	-20680	,	0.081587076	,	0
49,0	,	66634	,	-23488	,	-20667	,	1.7108881	,	1
49,0	,	66650	,	-23495	,	-20664	,	3.8491638	,	2
49,0	,	66682	,	-23486	,	-20673	,	6.186206	,	4
49,0	,	66698	,	-23498	,	-20665	,	8.3086195	,	6
49,0	,	66714	,	-23490	,	-20668	,	9.847236	,	8
49,0	,	66746	,	-23492	,	-20670	,	10.590206	,	9
49,0	,	66762	,	-23496	,	-20674	,	10.519463	,	9
49,0	,	66778	,	-23505	,	-20672	,	9.661466	,	9
49,0	,	66810	,	-23499	,	-20677	,	8.055474	,	9
49,0	,	66826	,	-23488	,	-20673	,	5.9587884	,	8
49,0	,	66858	,	-23494	,	-20675	,	3.8500986	,	7
49,0	,	66874	,	-23489	,	-20666	,	2.1173694	,	5
49,0	,	66890	,	-23490	,	-20675	,	0.91678	,	3
49,0	,	66922	,	-23497	,	-20665	,	0.22780025	,	1
49,0	,	66938	,	-23498	,	-20665	,	-0.12989485	,	0
49,0	,	66954	,	-23505	,	-20670	,	-0.41585672	,	0
49,0	,	66986	,	-23495	,	-20675	,	-0.81069297	,	0
49,0	,	67002	,	-23499	,	-20669	,	-1.2929591	,	0
49,0	,	67034	,	-23487	,	-20676	,	-1.6658317	,	0
49,0	,	67050	,	-23486	,	-20660	,	-1.6802816	,	0
49,0	,	67066	,	-23490	,	-20669	,	-1.2030275	,	0
49,0	,	67098	,	-23506	,	-20669	,	-0.4262944	,	0
49,0	,	67114	,	-23509	,	-20673	,	0.1570167	,	0
49,0	,	67130	,	-23515	,	-20674	,	0.08536893	,	0
49,0	,	67162	,	-23504	,	-20669	,	-0.7509292	,	0
49,0	,	67178	,	-23513	,	-20675	,	-2.0813768	,	0
49,0	,	67194	,	-23514	,	-20667	,	-3.5443952	,	0
49,0	,	67226	,	-23515	,	-20664	,	-4.914473	,	0
49,0	,	67242	,	-23516	,	-20673	,	-6.055688	,	0
49,0	,	67274	,	-23528	,	-20669	,	-6.9168634	,	0
49,0	,	67290	,	-23519	,	-20666	,	-7.5484715	,	0
49,0	,	67306	,	-23514	,	-20668	,	-7.910315	,	0
49,0	,	67338	,	-23528	,	-20674	,	-7.876233	,	0
49,0	,	67354	,	-23523	,	-20674	,	-7.497183	,	0
49,0	,	67370	,	-23515	,	-20668	,	-6.901795	,	0
49,0	,	67402	,	-23498	,	-20671	,	-5.9735165	,	0
49,0	,	67418	,	-23499	,	-20664	,	-4.409827	,	0
49,0	,	67450	,	-23486	,	-20662	,	-2.0469787	,	1
49,0	,	67466	,	-23496	,	-20664	,	0.96741605	,	3
49,0	,	67482	,	-23480	,	-20659	,	4.251474	,	6
49,1	,	67514	,	-23483	,	-20666	,	7.4243717	,	9
49,1	,	67530	,	-23494	,	-20663	,	10.14423	,	12
49,1	,	67546	,	-23487	,	-20657	,	12.00593	,	14
49,1	,	67578	,	-23494	,	-20666	,	12.726749	,	15
49,1	,	67594	,	-23503	,	-20659	,	12.246885	,	15
49,1	,	67610	,	-23491	,	-20656	,	10.659231	,	15
49,1	,	67642	,	-23504	,	-20654	,	8.257043	,	14
49,1	,	67658	,	-23487	,	-20658	,	5.4828153	,	12
49,1	,	67690	,	-23495	,	-20660	,	2.82123	,	9
49,1	,	67706	,	-23486	,	-20654	,	0.6896064	,	6
49,1	,	67722	,	-23484	,	-20654	,	-0.65902257	,	3
49,1	,	67754	,	-23484	,	-20658	,	-1.1392093	,	1
49,1	,	67770	,	-23488	,	-20662	,	-0.87288475	,	0
49,1	,	67786	,	-23492	,	-20660	,	-0.18589097	,	0
49,1	,	67818	,	-23489	,	-20660	,	0.54816985	,	0
49,1	,	67834	,	-23490	,	-20657	,	1.0939639	,	0
49,1	,	67866	,	-23496	,	-20653	,	1.3636698	,	0
49,1	,	67881	,	-23495	,	-20656	,	1.3034631	,	0
49,1	,	67897	,	-23500	,	-20660	,	0.8877761	,	0
49,1	,	67930	,	-23498	,	-20671	,	0.16058886	,	0
49,1	,	67946	,	-23499	,	-20668	,	-0.7593372	,	0
49,1	,	67962	,	-23497	,	-20669	,	-1.6942973	,	0
49,1	,	67994	,	-23497	,	-20657	,	-2.4607346	,	0
49,1	,	68010	,	-23502	,	-20655	,	-2.9550328	,	0
49,1	,	68025	,	-23505	,	-20655	,	-3.2208238	,	0
49,1	,	68057	,	-23511	,	-20672	,	-3.4146178	,	0
49,1	,	68073	,	-23510	,	-20671	,	-3.691618	,	0
49,1	,	68106	,	-23515	,	-20662	,	-4.1181865	,	0
49,1	,	68122	,	-23513	,	-20662	,	-4.6631384	,	0
49,1	,	68138	,	-23523	,	-20656	,	-5.2652283	,	0
49,1	,	68170	,	-23510	,	-20667	,	-5.857401	,	0
49,1	,	68186	,	-23516	,	-20660	,	-6.2922387	,	0
49,1	,	68202	,	-23492	,	-20656	,	-6.297534	,	0
49,1	,	68233	,	-23491	,	-20658	,	-5.5128126	,	0
49,1	,	68249	,	-23491	,	-20654	,	-3.7225459	,	0
49,1	,	68281	,	-23487	,	-20663	,	-1.1028309	,	1
49,1	,	68297	,	-23490	,	-20660	,	1.8905497	,	3
49,1	,	68314	,	-23480	,	-20659	,	4.79167	,	5
49,1	,	68346	,	-23484	,	-20657	,	7.2789183	,	7
49,1	,	68362	,	-23483	,	-20659	,	9.1481495	,	9
49,1	,	68378	,	-23499	,	-20672	,	10.176996	,	10
49,1	,	68409	,	-23506	,	-20662	,	10.077766	,	11
49,1	,	68425	,	-23495	,	-20661	,	8.718285	,	11
49,1	,	68441	,	-23494	,	-20664	,	6.4102106	,	11
49,1	,	68474	,	-23496	,	-20664	,	3.7534375	,	10
49,2	,	68490	,	-23496	,	-20666	,	1.2551875	,	8
49,2	,	68521	,	-23480	,	-20679	,	-0.70863867	,	6
49,2	,	68537	,	-23481	,	-20664	,	-1.7884842	,	4
49,2	,	68554	,	-23490	,	-20648	,	-1.8582108	,	2
49,2	,	68585	,	-23496	,	-20656	,	-1.2332215	,	1
49,2	,	68601	,	-23507	,	-20662	,	-0.51095736	,	0
49,2	,	68617	,	-23503	,	-20668	,	-0.22597504	,	0
49,2	,	68649	,	-23494	,	-20666	,	-0.5366386	,	0
49,2	,	68665	,	-23507	,	-20660	,	-1.2318692	,	0
49,2	,	68697	,	-23508	,	-20659	,	-2.107201	,	0
49,2	,	68713	,	-23512	,	-20670	,	-3.115266	,	0
49,2	,	68729	,	-23512	,	-20671	,	-4.205356	,	0
49,2	,	68761	,	-23508	,	-20674	,	-5.23052	,	0
49,2	,	68777	,	-23508	,	-20677	,	-5.970783	,	0
49,2	,	68793	,	-23521	,	-20664	,	-6.308542	,	0
49,2	,	68825	,	-23513	,	-20668	,	-6.3479176	,	0
49,2	,	68841	,	-23516	,	-20671	,	-6.2138433	,	0
49,2	,	68857	,	-23518	,	-20676	,	-5.925376	,	0
49,2	,	68889	,	-23522	,	-20677	,	-5.5299225	,	0
49,2	,	68905	,	-23520	,	-20679	,	-5.13159	,	0
49,2	,	68937	,	-23509	,	-20678	,	-4.7324877	,	0
49,2	,	68953	,	-23499	,	-20667	,	-4.110408	,	0
49,2	,	68969	,	-23497	,	-20664	,	-2.94861	,	0
49,2	,	69001	,	-23485	,	-20670	,	-1.0774715	,	1
49,2	,	69017	,	-23497	,	-20660	,	1.4022163	,	2
49,2	,	69033	,	-23488	,	-20667	,	4.1108637	,	4
49,2	,	69065	,	-23479	,	-20663	,	6.645921	,	6
49,2	,	69081	,	-23496	,	-20666	,	8.762025	,	8
49,2	,	69113	,	-23505	,	-20666	,	10.120152	,	10
49,2	,	69129	,	-23486	,	-20663	,	10.375719	,	11
49,2	,	69145	,	-23494	,	-20666	,	9.622025	,	11
49,2	,	69178	,	-23507	,	-20660	,	8.188871	,	11
49,2	,	69193	,	-23503	,	-20661	,	6.2227054	,	10
49,2	,	69209	,	-23494	,	-20664	,	3.8913693	,	9
49,2	,	69241	,	-23493	,	-20671	,	1.6180594	,	7
49,2	,	69257	,	-23488	,	-20655	,	-0.13681293	,	5
49,2	,	69289	,	-23484	,	-20661	,	-1.0886738	,	3
49,2	,	69305	,	-23483	,	-20662	,	-1.1556892	,	1
49,2	,	69321	,	-23482	,	-20664	,	-0.456339	,	0
49,2	,	69353	,	-23496	,	-20671	,	0.6791183	,	0
49,2	,	69369	,	-23491	,	-20672	,	1.7742887	,	1
49,2	,	69385	,	-23494	,	-20677	,	2.4524198	,	2
49,2	,	69417	,	-23492	,	-20659	,	2.60516	,	2
49,2	,	69433	,	-23495	,	-20669	,	2.3089397	,	2
49,2	,	69449	,	-23500	,	-20667	,	1.6724102	,	2
49,2	,	69481	,	-23506	,	-20672	,	0.7318647	,	2
49,3	,	69497	,	-23504	,	-20658	,	-0.50517607	,	2
49,3	,	69529	,	-23512	,	-20667	,	-1.9589539	,	2
49,3	,	69545	,	-23514	,	-20673	,	-3.5217185	,	2
49,3	,	69561	,	-23515	,	-20663	,	-5.097087	,	1
49,3	,	69593	,	-23510	,	-20667	,	-6.515786	,	0
49,3	,	69609	,	-23517	,	-20670	,	-7.553868	,	0
49,3	,	69625	,	-23520	,	-20673	,	-8.116498	,	0
49,3	,	69657	,	-23522	,	-20675	,	-8.294762	,	0
49,3	,	69673	,	-23524	,	-20662	,	-8.227401	,	0
49,3	,	69705	,	-23528	,	-20667	,	-8.02631	,	0
49,3	,	69721	,	-23486	,	-20670	,	-7.5882306	,	0
49,3	,	69737	,	-23504	,	-20661	,	-6.462756	,	0
49,3	,	69769	,	-23504	,	-20667	,	-4.4103003	,	1
49,3	,	69785	,	-23480	,	-20664	,	-1.6853998	,	3
49,3	,	69801	,	-23482	,	-20663	,	1.4811244	,	5
49,3	,	69833	,	-23481	,	-20661	,	4.9383707	,	8
49,3	,	69849	,	-23481	,	-20659	,	8.322908	,	11
49,3	,	69865	,	-23480	,	-20659	,	11.177031	,	14
49,3	,	69897	,	-23493	,	-20669	,	13.101319	,	16
49,3	,	69913	,	-23478	,	-20652	,	13.831958	,	17
49,3	,	69944	,	-23486	,	-20665	,	13.403732	,	17
49,3	,	69960	,	-23499	,	-20673	,	12.019033	,	16
49,3	,	69977	,	-23489	,	-20646	,	9.822218	,	14
49,3	,	70009	,	-23478	,	-20663	,	7.1298103	,	12
49,3	,	70025	,	-23481	,	-20668	,	4.533655	,	9
49,3	,	70056	,	-23479	,	-20659	,	2.5166225	,	6
49,3	,	70072	,	-23489	,	-20665	,	1.1913302	,	3
49,3	,	70088	,	-23478	,	-20655	,	0.41722703	,	1
49,3	,	70120	,	-23487	,	-20660	,	0.029684663	,	0
49,3	,	70136	,	-23465	,	-20654	,	-0.021924138	,	0
49,3	,	70152	,	-23478	,	-20655	,	0.3229178	,	0
49,3	,	70185	,	-23488	,	-20662	,	0.97400624	,	0
49,3	,	70200	,	-23488	,	-20658	,	1.5430715	,	0
49,3	,	70232	,	-23487	,	-20644	,	1.6836429	,	0
49,3	,	70248	,	-23484	,	-20657	,	1.3623409	,	0
49,3	,	70264	,	-23489	,	-20663	,	0.7399735	,	0
49,3	,	70296	,	-23506	,	-20656	,	-0.106951356	,	0
49,3	,	70312	,	-23492	,	-20665	,	-1.2455564	,	0
49,3	,	70328	,	-23495	,	-20660	,	-2.5878472	,	0
49,3	,	70360	,	-23496	,	-20658	,	-3.8386045	,	0
49,3	,	70376	,	-23498	,	-20667	,	-4.780242	,	0
49,3	,	70392	,	-23504	,	-20661	,	-5.378685	,	0
49,3	,	70424	,	-23516	,	-20671	,	-5.7765794	,	0
49,3	,	70440	,	-23510	,	-20656	,	-6.2091455	,	0
49,3	,	70473	,	-23499	,	-20662	,	-6.6968527	,	0
49,4	,	70489	,	-23486	,	-20665	,	-6.872816	,	0
49,4	,	70504	,	-23487	,	-20655	,	-6.257014	,	0
49,4	,	70536	,	-23487	,	-20665	,	-4.680828	,	0
49,4	,	70552	,	-23475	,	-20658	,	-2.340452	,	1
49,4	,	70568	,	-23479	,	-20652	,	0.4593959	,	3
49,4	,	70600	,	-23471	,	-20649	,	3.4059248	,	5
49,4	,	70616	,	-23484	,	-20655	,	6.1282544	,	7
49,4	,	70648	,	-23471	,	-20657	,	8.251553	,	9
49,4	,	70664	,	-23475	,	-20668	,	9.5750475	,	11
49,4	,	70680	,	-23475	,	-20646	,	10.102749	,	12
49,4	,	70712	,	-23475	,	-20659	,	9.903084	,	12
49,4	,	70728	,	-23492	,	-20655	,	9.007755	,	12
49,4	,	70744	,	-23479	,	-20649	,	7.4198895	,	11
49,4	,	70776	,	-23482	,	-20640	,	5.3116856	,	9
49,4	,	70792	,	-23475	,	-20652	,	3.0898614	,	7
49,4	,	70808	,	-23482	,	-20649	,	1.1501865	,	5
49,4	,	70840	,	-23477	,	-20647	,	-0.3038354	,	3
49,4	,	70856	,	-23485	,	-20657	,	-1.2568655	,	1
49,4	,	70888	,	-23468	,	-20660	,	-1.7506843	,	0
49,4	,	70904	,	-23471	,	-20668	,	-1.740242	,	0
49,4	,	70920	,	-23487	,	-20659	,	-1.2631066	,	0
49,4	,	70952	,	-23470	,	-20658	,	-0.5952003	,	0
49,4	,	70968	,	-23492	,	-20662	,	-0.026594996	,	0
49,4	,	70984	,	-23482	,	-20660	,	0.23635554	,	0
49,4	,	71016	,	-23491	,	-20668	,	0.06620273	,	0
49,4	,	71032	,	-23487	,	-20664	,	-0.5032266	,	0
49,4	,	71064	,	-23480	,	-20658	,	-1.2760032	,	0
49,4	,	71080	,	-23485	,	-20672	,	-1.9613649	,	0
49,4	,	71096	,	-23490	,	-20660	,	-2.3889558	,	0
49,4	,	71128	,	-23493	,	-20660	,	-2.6377003	,	0
49,4	,	71144	,	-23497	,	-20665	,	-2.8915343	,	0
49,4	,	71160	,	-23494	,	-20658	,	-3.2641325	,	0
49,4	,	71192	,	-23502	,	-20666	,	-3.7543683	,	0
49,4	,	71208	,	-23493	,	-20663	,	-4.292987	,	0
49,4	,	71224	,	-23507	,	-20666	,	-4.7947693	,	0
49,4	,	71256	,	-23508	,	-20660	,	-5.255178	,	0
49,4	,	71272	,	-23504	,	-20661	,	-5.718649	,	0
49,4	,	71304	,	-23509	,	-20659	,	-6.131228	,	0
49,4	,	71320	,	-23494	,	-20658	,	-6.3365407	,	0
49,4	,	71336	,	-23496	,	-20662	,	-6.109705	,	0
49,4	,	71368	,	-23476	,	-20652	,	-5.1979	,	0
49,4	,	71384	,	-23491	,	-20660	,	-3.4789102	,	0
49,4	,	71400	,	-23482	,	-20643	,	-1.1442797	,	1
49,4	,	71432	,	-23475	,	-20655	,	1.4363375	,	3
49,4	,	71448	,	-23478	,	-20649	,	3.9893422	,	5
49,4	,	71480	,	-23478	,	-20662	,	6.270969	,	7
49,5	,	71496	,	-23473	,	-20645	,	8.024663	,	9
49,5	,	71512	,	-23479	,	-20645	,	9.110572	,	10
49,5	,	71544	,	-23474	,	-20646	,	9.494674	,	11
49,5	,	71560	,	-23475	,	-20661	,	9.225306	,	11
49,5	,	71576	,	-23483	,	-20655	,	8.404894	,	11
49,5	,	71608	,	-23471	,	-20644	,	7.1504784	,	10
49,5	,	71624	,	-23474	,	-20666	,	5.6806464	,	8
49,5	,	71640	,	-23487	,	-20640	,	4.2060337	,	6
49,5	,	71672	,	-23477	,	-20647	,	2.7495778	,	4
49,5	,	71688	,	-23479	,	-20652	,	1.3404942	,	2
49,5	,	71720	,	-23470	,	-20641	,	0.17077291	,	1
49,5	,	71736	,	-23493	,	-20644	,	-0.6353606	,	0
49,5	,	71752	,	-23487	,	-20646	,	-1.2402167	,	0
49,5	,	71784	,	-23490	,	-20652	,	-1.8901912	,	0
49,5	,	71800	,	-23486	,	-20649	,	-2.620742	,	0
49,5	,	71816	,	-23487	,	-20658	,	-3.2866936	,	0
49,5	,	71847	,	-23477	,	-20651	,	-3.6869946	,	0
49,5	,	71863	,	-23502	,	-20666	,	-3.7369518	,	0
49,5	,	71896	,	-23482	,	-20643	,	-3.590837	,	0
49,5	,	71912	,	-23507	,	-20657	,	-3.4719806	,	0
49,5	,	71928	,	-23488	,	-20653	,	-3.5227716	,	0
49,5	,	71960	,	-23492	,	-20662	,	-3.7099905	,	0
49,5	,	71976	,	-23498	,	-20641	,	-3.8539815	,	0
49,5	,	71992	,	-23507	,	-20658	,	-3.93433	,	0
49,5	,	72024	,	-23506	,	-20659	,	-4.1309905	,	0
49,5	,	72040	,	-23518	,	-20654	,	-4.6004033	,	0
49,5	,	72071	,	-23495	,	-20655	,	-5.310042	,	0
49,5	,	72087	,	-23510	,	-20648	,	-5.974619	,	0
49,5	,	72103	,	-23528	,	-20673	,	-6.420401	,	0
49,5	,	72135	,	-23497	,	-20649	,	-6.753216	,	0
49,5	,	72151	,	-23485	,	-20647	,	-6.773231	,	0
49,5	,	72168	,	-23492	,	-20647	,	-5.942972	,	0
49,5	,	72200	,	-23497	,	-20651	,	-4.137309	,	0
49,5	,	72216	,	-23485	,	-20646	,	-1.7511268	,	1
49,5	,	72232	,	-23482	,	-20654	,	0.82056546	,	3
49,5	,	72264	,	-23495	,	-20647	,	3.2990313	,	5
49,5	,	72280	,	-23480	,	-20650	,	5.372356	,	7
49,5	,	72311	,	-23484	,	-20643	,	6.8502903	,	9
49,5	,	72328	,	-23478	,	-20655	,	7.756468	,	10
49,5	,	72344	,	-23508	,	-20660	,	8.050852	,	10
49,5	,	72375	,	-23486	,	-20652	,	7.5284514	,	10
49,5	,	72391	,	-23502	,	-20662	,	6.1550055	,	10
49,5	,	72407	,	-23495	,	-20655	,	4.181319	,	9
49,5	,	72439	,	-23505	,	-20646	,	1.9086087	,	7
49,5	,	72455	,	-23508	,	-20656	,	-0.4443202	,	5
49,5	,	72487	,	-23494	,	-20657	,	-2.6702332	,	3
49,6	,	72503	,	-23495	,	-20655	,	-4.4296865	,	1
49,6	,	72519	,	-23495	,	-20657	,	-5.3950152	,	0
49,6	,	72552	,	-23494	,	-20656	,	-5.4995914	,	0
49,6	,	72568	,	-23494	,	-20664	,	-4.896848	,	0
49,6	,	72584	,	-23496	,	-20665	,	-3.8329012	,	0
49,6	,	72616	,	-23492	,	-20670	,	-2.5607455	,	1
49,6	,	72631	,	-23502	,	-20674	,	-1.3089197	,	2
49,6	,	72647	,	-23512	,	-20670	,	-0.37165415	,	3
49,6	,	72679	,	-23513	,	-20662	,	-0.08946967	,	3
49,6	,	72695	,	-23511	,	-20661	,	-0.59570944	,	3
49,6	,	72727	,	-23502	,	-20672	,	-1.6532068	,	3
49,6	,	72744	,	-23525	,	-20664	,	-2.8880754	,	3
49,6	,	72759	,	-23520	,	-20663	,	-4.1554365	,	3
49,6	,	72791	,	-23501	,	-20665	,	-5.3610287	,	3
49,6	,	72807	,	-23524	,	-20665	,	-6.217927	,	2
49,6	,	72823	,	-23525	,	-20675	,	-6.635837	,	1
49,6	,	72855	,	-23535	,	-20661	,	-6.8878994	,	0
49,6	,	72871	,	-23536	,	-20674	,	-7.2708335	,	0
49,6	,	72903	,	-23522	,	-20677	,	-7.827558	,	0
49,6	,	72919	,	-23521	,	-20669	,	-8.258998	,	0
49,6	,	72935	,	-23513	,	-20667	,	-8.13538	,	0
49,6	,	72967	,	-23518	,	-20664	,	-7.2216606	,	0
49,6	,	72983	,	-23520	,	-20664	,	-5.623067	,	0
49,6	,	72999	,	-23514	,	-20667	,	-3.6727355	,	1
49,6	,	73031	,	-23508	,	-20665	,	-1.6404717	,	2
49,6	,	73047	,	-23504	,	-20674	,	0.3935845	,	4
49,6	,	73063	,	-23512	,	-20680	,	2.3712869	,	6
49,6	,	73095	,	-23527	,	-20658	,	4.0094075	,	7
49,6	,	73111	,	-23526	,	-20666	,	4.836055	,	8
49,6	,	73143	,	-23518	,	-20670	,	4.6115565	,	8
49,6	,	73159	,	-23532	,	-20667	,	3.511222	,	8
49,6	,	73175	,	-23530	,	-20669	,	1.8171861	,	8
49,6	,	73207	,	-23530	,	-20669	,	-0.22386765	,	7
49,6	,	73223	,	-23535	,	-20669	,	-2.323525	,	6
49,6	,	73239	,	-23522	,	-20669	,	-4.1698737	,	4
49,6	,	73271	,	-23520	,	-20663	,	-5.41593	,	2
49,6	,	73287	,	-23519	,	-20665	,	-5.7790236	,	1
49,6	,	73319	,	-23525	,	-20668	,	-5.257494	,	0
49,6	,	73335	,	-23538	,	-20668	,	-4.197089	,	0
49,6	,	73351	,	-23522	,	-20667	,	-3.0824242	,	1
49,6	,	73383	,	-23524	,	-20667	,	-2.1499794	,	2
49,6	,	73399	,	-23540	,	-20669	,	-1.4234952	,	2
49,6	,	73415	,	-23531	,	-20675	,	-1.022682	,	2
49,6	,	73447	,	-23542	,	-20661	,	-1.0654448	,	2
49,6	,	73463	,	-23542	,	-20671	,	-1.5449414	,	2
49,6	,	73479	,	-23538	,	-20675	,	-2.3651474	,	2
49,7	,	73511	,	-23533	,	-20668	,	-3.2743306	,	2
49,7	,	73527	,	-23525	,	-20687	,	-3.8987222	,	2
49,7	,	73559	,	-23543	,	-20665	,	-3.995979	,	1
49,7	,	73575	,	-23551	,	-20680	,	-3.7346058	,	0
49,7	,	73591	,	-23559	,	-20676	,	-3.6063704	,	0
49,7	,	73623	,	-23556	,	-20675	,	-3.9944487	,	0
49,7	,	73639	,	-23550	,	-20685	,	-4.879795	,	0
49,7	,	73655	,	-23540	,	-20679	,	-5.8535404	,	0
49,7	,	73687	,	-23532	,	-20678	,	-6.3371787	,	0
49,7	,	73703	,	-23523	,	-20668	,	-5.848034	,	0
49,7	,	73735	,	-23535	,	-20672	,	-4.2493525	,	0
49,7	,	73751	,	-23503	,	-20665	,	-1.7508821	,	1
49,7	,	73767	,	-23518	,	-20685	,	1.3867681	,	3
49,7	,	73799	,	-23514	,	-20665	,	4.8256445	,	6
49,7	,	73815	,	-23518	,	-20660	,	8.008824	,	9
49,7	,	73831	,	-23505	,	-20672	,	10.457215	,	12
49,7	,	73862	,	-23511	,	-20666	,	12.014131	,	14
49,7	,	73879	,	-23512	,	-20679	,	12.693073	,	15
49,7	,	73895	,	-23525	,	-20667	,	12.456377	,	15
49,7	,	73926	,	-23520	,	-20665	,	11.236298	,	15
49,7	,	73943	,	-23517	,	-20672	,	9.15798	,	14
49,7	,	73974	,	-23524	,	-20676	,	6.5797567	,	12
49,7	,	73991	,	-23518	,	-20666	,	3.8865929	,	9
49,7	,	74007	,	-23516	,	-20674	,	1.4201193	,	6
49,7	,	74039	,	-23517	,	-20672	,	-0.5165012	,	3
49,7	,	74055	,	-23517	,	-20667	,	-1.7743852	,	1
49,7	,	74071	,	-23512	,	-20671	,	-2.3676193	,	0
49,7	,	74103	,	-23533	,	-20671	,	-2.4580271	,	0
49,7	,	74119	,	-23521	,	-20681	,	-2.3748646	,	0
49,7	,	74150	,	-23509	,	-20670	,	-2.29666	,	0
49,7	,	74166	,	-23517	,	-20674	,	-2.0575957	,	0
49,7	,	74182	,	-23507	,	-20666	,	-1.4884914	,	0
49,7	,	74215	,	-23532	,	-20671	,	-0.6918191	,	0
49,7	,	74231	,	-23528	,	-20674	,	-0.044347703	,	0
49,7	,	74247	,	-23530	,	-20649	,	0.07516378	,	0
49,7	,	74278	,	-23526	,	-20672	,	-0.37786055	,	0
49,7	,	74295	,	-23528	,	-20674	,	-1.1702098	,	0
49,7	,	74310	,	-23546	,	-20674	,	-2.1210155	,	0
49,7	,	74342	,	-23538	,	-20672	,	-3.2565925	,	0
49,7	,	74358	,	-23539	,	-20674	,	-4.560517	,	0
49,7	,	74391	,	-23552	,	-20672	,	-5.8651114	,	0
49,7	,	74407	,	-23553	,	-20670	,	-7.098757	,	0
49,7	,	74422	,	-23539	,	-20687	,	-8.207521	,	0
49,7	,	74454	,	-23533	,	-20664	,	-8.879818	,	0
49,7	,	74470	,	-23540	,	-20684	,	-8.746536	,	0
49,8	,	74486	,	-23528	,	-20684	,	-7.722151	,	0
49,8	,	74518	,	-23511	,	-20664	,	-5.8511133	,	1
49,8	,	74534	,	-23519	,	-20675	,	-3.140407	,	2
49,8	,	74566	,	-23501	,	-20669	,	0.24858236	,	4
49,8	,	74582	,	-23521	,	-20661	,	3.9173694	,	7
49,8	,	74598	,	-23513	,	-20669	,	7.29381	,	10
49,8	,	74631	,	-23498	,	-20664	,	9.911344	,	13
49,8	,	74646	,	-23512	,	-20662	,	11.673071	,	15
49,8	,	74662	,	-23514	,	-20662	,	12.563883	,	16
49,8	,	74694	,	-23510	,	-20669	,	12.4810915	,	16
49,8	,	74710	,	-23515	,	-20658	,	11.468597	,	15
49,8	,	74742	,	-23523	,	-20671	,	9.695469	,	14
49,8	,	74758	,	-23519	,	-20645	,	7.326524	,	12
49,8	,	74774	,	-23512	,	-20662	,	4.6459327	,	9
49,8	,	74806	,	-23508	,	-20659	,	2.1257944	,	6
49,8	,	74822	,	-23515	,	-20660	,	0.192245	,	3
49,8	,	74838	,	-23500	,	-20669	,	-0.95808434	,	1
49,8	,	74870	,	-23507	,	-20657	,	-1.2831349	,	0
49,8	,	74886	,	-23503	,	-20665	,	-0.88067406	,	0
49,8	,	74902	,	-23505	,	-20657	,	-0.004477322	,	0
49,8	,	74934	,	-23512	,	-20665	,	1.0215492	,	0
49,8	,	74950	,	-23513	,	-20670	,	1.8559321	,	1
49,8	,	74982	,	-23514	,	-20665	,	2.241387	,	1
49,8	,	74998	,	-23513	,	-20654	,	2.113977	,	1
49,8	,	75014	,	-23523	,	-20654	,	1.5312204	,	1
49,8	,	75046	,	-23516	,	-20661	,	0.57215154	,	1
49,8	,	75062	,	-23533	,	-20658	,	-0.6748619	,	1
49,8	,	75078	,	-23516	,	-20667	,	-2.097363	,	1
49,8	,	75110	,	-23528	,	-20657	,	-3.4951105	,	1
49,8	,	75126	,	-23519	,	-20666	,	-4.6257772	,	1
49,8	,	75158	,	-23520	,	-20674	,	-5.3184433	,	0
49,8	,	75174	,	-23526	,	-20668	,	-5.512874	,	0
49,8	,	75190	,	-23540	,	-20669	,	-5.372956	,	0
49,8	,	75222	,	-23539	,	-20665	,	-5.264903	,	0
49,8	,	75238	,	-23539	,	-20663	,	-5.4491777	,	0
49,8	,	75254	,	-23521	,	-20666	,	-5.811474	,	0
49,8	,	75286	,	-23542	,	-20667	,	-6.0099154	,	0
49,8	,	75302	,	-23521	,	-20662	,	-5.8434877	,	0
49,8	,	75318	,	-23507	,	-20654	,	-5.150928	,	0
49,8	,	75350	,	-23504	,	-20659	,	-3.626043	,	0
49,8	,	75366	,	-23496	,	-20655	,	-1.1179752	,	1
49,8	,	75398	,	-23483	,	-20662	,	2.2339466	,	3
49,8	,	75414	,	-23497	,	-20658	,	6.0889387	,	6
49,8	,	75430	,	-23486	,	-20664	,	9.879068	,	9
49,8	,	75462	,	-23497	,	-20663	,	12.981737	,	12
49,8	,	75478	,	-23487	,	-20652	,	14.977461	,	15
49,9	,	75494	,	-23518	,	-20652	,	15.606728	,	16
49,9	,	75526	,	-23497	,	-20665	,	14.689531	,	16
49,9	,	75542	,	-23494	,	-20658	,	12.422102	,	16
49,9	,	75574	,	-23507	,	-20655	,	9.419707	,	15
49,9	,	75590	,	-23497	,	-20645	,	6.2421107	,	13
49,9	,	75606	,	-23485	,	-20659	,	3.3375707	,	10
49,9	,	75638	,	-23485	,	-20657	,	1.2101731	,	7
49,9	,	75654	,	-23490	,	-20650	,	0.15128183	,	4
49,9	,	75670	,	-23485	,	-20657	,	0.04543543	,	1
49,9	,	75702	,	-23491	,	-20661	,	0.560847	,	0
49,9	,	75718	,	-23496	,	-20650	,	1.3053042	,	0
49,9	,	75734	,	-23488	,	-20658	,	1.9163706	,	0
49,9	,	75765	,	-23495	,	-20658	,	2.2151341	,	0
49,9	,	75781	,	-23495	,	-20654	,	2.1721337	,	0
49,9	,	75814	,	-23502	,	-20657	,	1.7653928	,	0
49,9	,	75830	,	-23494	,	-20651	,	1.0085218	,	0
49,9	,	75846	,	-23499	,	-20655	,	0.042549133	,	0
49,9	,	75878	,	-23511	,	-20661	,	-0.9878944	,	0
49,9	,	75893	,	-23503	,	-20659	,	-2.0732036	,	0
49,9	,	75910	,	-23511	,	-20650	,	-3.1962514	,	0
49,9	,	75941	,	-23506	,	-20657	,	-4.242441	,	0
49,9	,	75958	,	-23504	,	-20642	,	-5.0555024	,	0
49,9	,	75990	,	-23512	,	-20648	,	-5.511866	,	0
49,9	,	76006	,	-23512	,	-20653	,	-5.6384	,	0
49,9	,	76022	,	-23525	,	-20659	,	-5.621813	,	0
49,9	,	76053	,	-23516	,	-20656	,	-5.6710615	,	0
49,9	,	76069	,	-23514	,	-20659	,	-5.8081656	,	0
49,9	,	76085	,	-23517	,	-20665	,	-5.855995	,	0
49,9	,	76117	,	-23510	,	-20660	,	-5.64987	,	0
49,9	,	76134	,	-23505	,	-20660	,	-5.080265	,	0
49,9	,	76149	,	-23509	,	-20660	,	-4.0832357	,	0
49,9	,	76181	,	-23506	,	-20668	,	-2.7434447	,	0
49,9	,	76197	,	-23494	,	-20643	,	-1.1984174	,	1
49,9	,	76229	,	-23494	,	-20647	,	0.53434813	,	2
49,9	,	76245	,	-23478	,	-20657	,	2.5095818	,	3
49,9	,	76261	,	-23476	,	-20650	,	4.777362	,	4
49,9	,	76293	,	-23478	,	-20646	,	7.2742467	,	6
49,9	,	76310	,	-23480	,	-20634	,	9.686861	,	8
49,9	,	76326	,	-23477	,	-20648	,	11.586859	,	10
49,9	,	76357	,	-23480	,	-20637	,	12.674219	,	11
49,9	,	76373	,	-23493	,	-20645	,	12.774759	,	12
49,9	,	76405	,	-23491	,	-20650	,	11.766613	,	11
49,9	,	76421	,	-23500	,	-20651	,	9.673105	,	10
49,9	,	76437	,	-23478	,	-20636	,	6.8140945	,	9
49,9	,	76470	,	-23483	,	-20647	,	3.8241572	,	8
49,9	,	76485	,	-23478	,	-20642	,	1.3520751	,	6
49,10	,	76501	,	-23486	,	-20644	,	-0.29240513	,	4
49,10	,	76533	,	-23478	,	-20649	,	-1.1271726	,	2
49,10	,	76549	,	-23480	,	-20642	,	-1.2890937	,	1
49,10	,	76565	,	-23486	,	-20644	,	-0.97215724	,	0
49,10	,	76597	,	-23484	,	-20634	,	-0.45574164	,	0
49,10	,	76613	,	-23477	,	-20635	,	0.045250177	,	0
49,10	,	76645	,	-23490	,	-20649	,	0.46092078	,	0
49,10	,	76661	,	-23495	,	-20645	,	0.65801656	,	0
49,10	,	76677	,	-23494	,	-20632	,	0.42053246	,	0
49,10	,	76709	,	-23505	,	-20646	,	-0.34715098	,	0
49,10	,	76725	,	-23504	,	-20644	,	-1.6126986	,	0
49,10	,	76741	,	-23490	,	-20639	,	-3.1747615	,	0
49,10	,	76773	,	-23502	,	-20645	,	-4.622058	,	0
49,10	,	76789	,	-23501	,	-20651	,	-5.6415677	,	0
49,10	,	76821	,	-23493	,	-20654	,	-6.1480494	,	0
49,10	,	76837	,	-23498	,	-20659	,	-6.099185	,	0
49,10	,	76853	,	-23503	,	-20647	,	-5.548488	,	0
49,10	,	76885	,	-23498	,	-20639	,	-4.7129755	,	0
49,10	,	76901	,	-23521	,	-20658	,	-3.89745	,	0
49,10	,	76917	,	-23504	,	-20640	,	-3.4239385	,	0
49,10	,	76949	,	-23509	,	-20650	,	-3.3853092	,	0
49,10	,	76965	,	-23520	,	-20654	,	-3.639554	,	0
49,10	,	76997	,	-23511	,	-20650	,	-4.0851336	,	0
49,10	,	77013	,	-23514	,	-20646	,	-4.6042857	,	0
49,10	,	77029	,	-23510	,	-20648	,	-4.9898777	,	0
49,10	,	77061	,	-23497	,	-20652	,	-5.0152235	,	0
49,10	,	77077	,	-23485	,	-20649	,	-4.37582	,	0
49,10	,	77093	,	-23491	,	-20653	,	-2.8255532	,	0
49,10	,	77125	,	-23489	,	-20652	,	-0.48611617	,	1
49,10	,	77141	,	-23494	,	-20667	,	2.1636949	,	3
49,10	,	77157	,	-23489	,	-20627	,	4.580738	,	5
49,10	,	77189	,	-23499	,	-20647	,	6.3602567	,	7
49,10	,	77205	,	-23502	,	-20640	,	7.2309623	,	8
49,10	,	77237	,	-23496	,	-20644	,	7.082493	,	8
49,10	,	77253	,	-23516	,	-20647	,	5.9942617	,	8
49,10	,	77269	,	-23498	,	-20653	,	4.148157	,	8
49,10	,	77301	,	-23494	,	-20644	,	1.9412785	,	8
49,10	,	77317	,	-23490	,	-20639	,	-0.0061399937	,	7
49,10	,	77333	,	-23514	,	-20653	,	-1.3287951	,	5
49,10	,	77365	,	-23494	,	-20654	,	-2.1315365	,	3
49,10	,	77381	,	-23493	,	-20667	,	-2.5409498	,	1
49,10	,	77413	,	-23507	,	-20645	,	-2.5347352	,	0
49,10	,	77429	,	-23510	,	-20647	,	-2.2911816	,	0
49,10	,	77445	,	-23503	,	-20653	,	-2.1219056	,	0
49,10	,	77477	,	-23495	,	-20643	,	-2.0707846	,	0
49,11	,	77492	,	-23520	,	-20651	,	-2.0255175	,	0
49,11	,	77509	,	-23509	,	-20658	,	-2.0810792	,	0
49,11	,	77541	,	-23507	,	-20649	,	-2.3566658	,	0
49,11	,	77557	,	-23519	,	-20663	,	-2.7686753	,	0
49,11	,	77573	,	-23519	,	-20662	,	-3.2704172	,	0
49,11	,	77605	,	-23516	,	-20657	,	-3.8807912	,	0
49,11	,	77621	,	-23513	,	-20671	,	-4.4755783	,	0
49,11	,	77652	,	-23519	,	-20650	,	-4.8625135	,	0
49,11	,	77668	,	-23522	,	-20667	,	-4.9932103	,	0
49,11	,	77684	,	-23520	,	-20668	,	-4.9527164	,	0
49,11	,	77717	,	-23531	,	-20664	,	-4.847147	,	0
49,11	,	77733	,	-23519	,	-20662	,	-4.765335	,	0
49,11	,	77749	,	-23529	,	-20668	,	-4.714508	,	0
49,11	,	77780	,	-23525	,	-20675	,	-4.642098	,	0
49,11	,	77796	,	-23527	,	-20669	,	-4.5154285	,	0
49,11	,	77829	,	-23517	,	-20657	,	-4.271789	,	0
49,11	,	77845	,	-23516	,	-20661	,	-3.7737482	,	0
49,11	,	77861	,	-23514	,	-20674	,	-2.9026148	,	0
49,11	,	77892	,	-23512	,	-20660	,	-1.669441	,	0
49,11	,	77908	,	-23503	,	-20663	,	-0.16270268	,	1
49,11	,	77925	,	-23510	,	-20660	,	1.5169142	,	2
49,11	,	77957	,	-23506	,	-20672	,	3.1844802	,	3
49,11	,	77973	,	-23509	,	-20670	,	4.592197	,	4
49,11	,	77988	,	-23502	,	-20663	,	5.5790515	,	5
49,11	,	78020	,	-23523	,	-20656	,	6.0453796	,	5
49,11	,	78036	,	-23518	,	-20669	,	5.820588	,	5
49,11	,	78068	,	-23514	,	-20670	,	4.8390694	,	5
49,11	,	78085	,	-23516	,	-20663	,	3.34306	,	5
49,11	,	78100	,	-23513	,	-20679	,	1.7008595	,	4
49,11	,	78132	,	-23532	,	-20662	,	0.12558961	,	3
49,11	,	78148	,	-23513	,	-20672	,	-1.3488455	,	2
49,11	,	78164	,	-23528	,	-20673	,	-2.65961	,	1
49,11	,	78196	,	-23518	,	-20663	,	-3.6856625	,	0
49,11	,	78212	,	-23520	,	-20675	,	-4.339034	,	0
49,11	,	78244	,	-23521	,	-20661	,	-4.5594583	,	0
49,11	,	78260	,	-23529	,	-20675	,	-4.4072533	,	0
49,11	,	78276	,	-23523	,	-20678	,	-4.0691986	,	0
49,11	,	78308	,	-23509	,	-20674	,	-3.6071978	,	0
49,11	,	78324	,	-23516	,	-20669	,	-2.8762312	,	0
49,11	,	78341	,	-23530	,	-20686	,	-1.8848314	,	0
49,11	,	78372	,	-23528	,	-20668	,	-0.9878967	,	0
49,11	,	78388	,	-23531	,	-20681	,	-0.54068756	,	0
49,11	,	78404	,	-23526	,	-20670	,	-0.60762584	,	0
49,11	,	78436	,	-23537	,	-20677	,	-1.0618873	,	0
49,11	,	78452	,	-23544	,	-20677	,	-1.8334223	,	0
49,11	,	78484	,	-23530	,	-20680	,	-2.8879356	,	0
49,12	,	78500	,	-23535	,	-20678	,	-3.9949024	,	0
49,12	,	78516	,	-23543	,	-20672	,	-4.871251	,	0
49,12	,	78548	,	-23542	,	-20683	,	-5.4634757	,	0
49,12	,	78564	,	-23540	,	-20683	,	-5.8277144	,	0
49,12	,	78580	,	-23532	,	-20677	,	-5.9125986	,	0
49,12	,	78612	,	-23525	,	-20666	,	-5.5406857	,	0
49,12	,	78628	,	-23515	,	-20678	,	-4.491428	,	0
49,12	,	78660	,	-23515	,	-20671	,	-2.6422718	,	1
49,12	,	78676	,	-23520	,	-20668	,	-0.15513468	,	2
49,12	,	78692	,	-23525	,	-20670	,	2.479782	,	4
49,12	,	78724	,	-23516	,	-20675	,	4.7203608	,	6
49,12	,	78740	,	-23522	,	-20666	,	6.279045	,	8
49,12	,	78756	,	-23526	,	-20676	,	7.0702186	,	9
49,12	,	78788	,	-23526	,	-20675	,	7.052728	,	9
49,12	,	78804	,	-23523	,	-20680	,	6.2915883	,	9
49,12	,	78820	,	-23528	,	-20687	,	4.998974	,	9
49,12	,	78852	,	-23523	,	-20675	,	3.4336379	,	8
49,12	,	78868	,	-23533	,	-20688	,	1.8108819	,	7
49,12	,	78900	,	-23527	,	-20672	,	0.26554346	,	5
49,12	,	78916	,	-23534	,	-20674	,	-1.118361	,	3
49,12	,	78932	,	-23515	,	-20678	,	-2.2060885	,	1
49,12	,	78964	,	-23523	,	-20677	,	-2.7703767	,	0
49,12	,	78980	,	-23521	,	-20669	,	-2.6872787	,	0
49,12	,	78996	,	-23539	,	-20674	,	-2.1614673	,	0
49,12	,	79028	,	-23538	,	-20681	,	-1.6509484	,	0
49,12	,	79044	,	-23524	,	-20675	,	-1.4720502	,	0
49,12	,	79076	,	-23531	,	-20675	,	-1.5349493	,	0
49,12	,	79092	,	-23539	,	-20676	,	-1.6563196	,	0
49,12	,	79108	,	-23552	,	-20678	,	-1.9351609	,	0
49,12	,	79140	,	-23547	,	-20679	,	-2.6123624	,	0
49,12	,	79156	,	-23538	,	-20673	,	-3.6745148	,	0
49,12	,	79172	,	-23538	,	-20675	,	-4.7533083	,	0
49,12	,	79204	,	-23548	,	-20685	,	-5.4844704	,	0
49,12	,	79220	,	-23553	,	-20677	,	-5.84167	,	0
49,12	,	79252	,	-23548	,	-20681	,	-6.0090914	,	0
49,12	,	79268	,	-23541	,	-20684	,	-6.0294247	,	0
49,12	,	79284	,	-23545	,	-20685	,	-5.7579937	,	0
49,12	,	79316	,	-23558	,	-20687	,	-5.180537	,	0
49,12	,	79332	,	-23547	,	-20678	,	-4.524065	,	0
49,12	,	79348	,	-23530	,	-20671	,	-3.8621714	,	0
49,12	,	79380	,	-23524	,	-20673	,	-2.8745492	,	0
49,12	,	79396	,	-23513	,	-20670	,	-1.1683247	,	0
49,12	,	79412	,	-23497	,	-20677	,	1.4519559	,	1
49,12	,	79444	,	-23515	,	-20670	,	4.88414	,	3
49,12	,	79460	,	-23507	,	-20670	,	8.589561	,	6
49,13	,	79492	,	-23516	,	-20678	,	11.811219	,	9
49,13	,	79508	,	-23516	,	-20667	,	13.958261	,	12
49,13	,	79524	,	-23511	,	-20666	,	14.756746	,	14
49,13	,	79556	,	-23525	,	-20676	,	14.228262	,	14
49,13	,	79571	,	-23520	,	-20656	,	12.537516	,	14
49,13	,	79588	,	-23524	,	-20672	,	9.9543295	,	14
49,13	,	79620	,	-23516	,	-20661	,	6.9067383	,	13
49,13	,	79636	,	-23518	,	-20659	,	3.8901854	,	11
49,13	,	79668	,	-23524	,	-20661	,	1.2788229	,	8
49,13	,	79684	,	-23526	,	-20662	,	-0.8019171	,	5
49,13	,	79700	,	-23532	,	-20665	,	-2.419744	,	2
49,13	,	79731	,	-23519	,	-20660	,	-3.6518059	,	0
49,13	,	79747	,	-23518	,	-20659	,	-4.413928	,	0
49,13	,	79763	,	-23514	,	-20663	,	-4.522313	,	0
49,13	,	79796	,	-23502	,	-20666	,	-3.8559742	,	0
49,13	,	79812	,	-23512	,	-20659	,	-2.423579	,	0
49,13	,	79828	,	-23513	,	-20664	,	-0.4931612	,	1
49,13	,	79860	,	-23521	,	-20659	,	1.4179592	,	2
49,13	,	79876	,	-23514	,	-20660	,	2.836076	,	3
49,13	,	79907	,	-23527	,	-20666	,	3.5214036	,	4
49,13	,	79923	,	-23535	,	-20664	,	3.3528564	,	4
49,13	,	79940	,	-23524	,	-20664	,	2.3061032	,	4
49,13	,	79972	,	-23532	,	-20672	,	0.6290786	,	4
49,13	,	79988	,	-23528	,	-20671	,	-1.2608073	,	4
49,13	,	80004	,	-23536	,	-20663	,	-3.033808	,	4
49,13	,	80035	,	-23528	,	-20667	,	-4.4938917	,	3
49,13	,	80051	,	-23537	,	-20662	,	-5.52636	,	2
49,13	,	80084	,	-23540	,	-20665	,	-6.129924	,	1
49,13	,	80100	,	-23533	,	-20669	,	-6.395831	,	0
49,13	,	80116	,	-23539	,	-20668	,	-6.3703556	,	0
49,13	,	80147	,	-23524	,	-20669	,	-6.0137424	,	0
49,13	,	80164	,	-23526	,	-20662	,	-5.223196	,	0
49,13	,	80179	,	-23506	,	-20652	,	-3.853414	,	0
49,13	,	80211	,	-23503	,	-20656	,	-1.754081	,	1
49,13	,	80227	,	-23492	,	-20661	,	1.1293564	,	3
49,13	,	80243	,	-23492	,	-20654	,	4.6291785	,	5
49,13	,	80275	,	-23503	,	-20645	,	8.293376	,	8
49,13	,	80291	,	-23494	,	-20657	,	11.474914	,	11
49,13	,	80323	,	-23497	,	-20652	,	13.660061	,	14
49,13	,	80340	,	-23503	,	-20651	,	14.627753	,	16
49,13	,	80356	,	-23504	,	-20654	,	14.323878	,	16
49,13	,	80387	,	-23498	,	-20657	,	12.877977	,	16
49,13	,	80403	,	-23498	,	-20646	,	10.663652	,	15
49,13	,	80419	,	-23501	,	-20650	,	8.135576	,	13
49,13	,	80451	,	-23503	,	-20651	,	5.6260767	,	11
49,13	,	80467	,	-23489	,	-20649	,	3.3879976	,	8
49,14	,	80499	,	-23498	,	-20652	,	1.6897819	,	5
49,14	,	80515	,	-23495	,	-20642	,	0.65779114	,	2
49,14	,	80531	,	-23496	,	-20652	,	0.18496215	,	0
49,14	,	80563	,	-23494	,	-20653	,	0.09036386	,	0
49,14	,	80579	,	-23505	,	-20646	,	0.1815038	,	0
49,14	,	80595	,	-23510	,	-20654	,	0.18340439	,	0
49,14	,	80627	,	-23515	,	-20646	,	-0.20259768	,	0
49,14	,	80643	,	-23492	,	-20648	,	-1.0169982	,	0
49,14	,	80660	,	-23490	,	-20649	,	-1.8466166	,	0
49,14	,	80691	,	-23506	,	-20657	,	-2.2164927	,	0
49,14	,	80707	,	-23507	,	-20655	,	-2.1293929	,	0
49,14	,	80739	,	-23498	,	-20659	,	-1.8769698	,	0
49,14	,	80755	,	-23506	,	-20645	,	-1.6026875	,	0
49,14	,	80771	,	-23509	,	-20654	,	-1.3642919	,	0
49,14	,	80803	,	-23514	,	-20649	,	-1.3008177	,	0
49,14	,	80819	,	-23519	,	-20662	,	-1.567766	,	0
49,14	,	80835	,	-23518	,	-20657	,	-2.2301717	,	0
49,14	,	80867	,	-23527	,	-20648	,	-3.241458	,	0
49,14	,	80883	,	-23503	,	-20656	,	-4.396616	,	0
49,14	,	80915	,	-23519	,	-20664	,	-5.3063173	,	0
49,14	,	80931	,	-23513	,	-20661	,	-5.6835027	,	0
49,14	,	80947	,	-23531	,	-20651	,	-5.608468	,	0
49,14	,	80979	,	-23513	,	-20663	,	-5.3365583	,	0
49,14	,	80995	,	-23501	,	-20646	,	-4.8800616	,	0
49,14	,	81011	,	-23498	,	-20658	,	-3.9289408	,	0
49,14	,	81043	,	-23490	,	-20646	,	-2.2240794	,	0
49,14	,	81059	,	-23488	,	-20644	,	0.21265817	,	1
49,14	,	81075	,	-23483	,	-20647	,	3.1417522	,	3
49,14	,	81107	,	-23490	,	-20651	,	6.1697073	,	5
49,14	,	81123	,	-23488	,	-20642	,	8.807672	,	8
49,14	,	81155	,	-23487	,	-20636	,	10.644249	,	10
49,14	,	81171	,	-23490	,	-20651	,	11.498901	,	11
49,14	,	81187	,	-23478	,	-20644	,	11.431951	,	11
49,14	,	81219	,	-23497	,	-20655	,	10.639562	,	11
49,14	,	81235	,	-23503	,	-20653	,	9.197834	,	11
49,14	,	81251	,	-23510	,	-20642	,	7.0094013	,	10
49,14	,	81283	,	-23509	,	-20658	,	4.088585	,	8
49,14	,	81299	,	-23489	,	-20659	,	0.8191571	,	6
49,14	,	81331	,	-23500	,	-20653	,	-2.1133027	,	3
49,14	,	81347	,	-23496	,	-20642	,	-4.1746254	,	1
49,14	,	81363	,	-23493	,	-20647	,	-5.2211075	,	0
49,14	,	81395	,	-23504	,	-20648	,	-5.3627615	,	0
49,14	,	81411	,	-23491	,	-20657	,	-4.8510723	,	0
49,14	,	81427	,	-23489	,	-20652	,	-3.888488	,	0
49,14	,	81459	,	-23510	,	-20646	,	-2.6458457	,	0
49,14	,	81475	,	-23505	,	-20639	,	-1.5050335	,	1
49,15	,	81491	,	-23510	,	-20650	,	-0.87019145	,	2
49,15	,	81523	,	-23513	,	-20653	,	-0.88332665	,	2
49,15	,	81539	,	-23495	,	-20644	,	-1.3973763	,	2
49,15	,	81571	,	-23507	,	-20642	,	-2.034072	,	2
49,15	,	81587	,	-23521	,	-20648	,	-2.5560753	,	2
49,15	,	81603	,	-23507	,	-20658	,	-3.056772	,	2
49,15	,	81635	,	-23534	,	-20648	,	-3.6805074	,	2
49,15	,	81651	,	-23518	,	-20654	,	-4.520105	,	2
49,15	,	81667	,	-23514	,	-20656	,	-5.4903307	,	1
49,15	,	81699	,	-23514	,	-20665	,	-6.2391615	,	0
49,15	,	81715	,	-23515	,	-20639	,	-6.474184	,	0
49,15	,	81747	,	-23540	,	-20652	,	-6.2715206	,	0
49,15	,	81763	,	-23530	,	-20657	,	-6.03409	,	0
49,15	,	81778	,	-23519	,	-20654	,	-6.0131674	,	0
49,15	,	81810	,	-23512	,	-20655	,	-5.9599047	,	0
49,15	,	81826	,	-23514	,	-20649	,	-5.4554186	,	0
49,15	,	81842	,	-23506	,	-20651	,	-4.312827	,	0
49,15	,	81874	,	-23493	,	-20656	,	-2.516719	,	1
49,15	,	81890	,	-23489	,	-20654	,	-0.05549264	,	2
49,15	,	81922	,	-23496	,	-20643	,	2.9342043	,	4
49,15	,	81939	,	-23500	,	-20661	,	5.9794407	,	6
49,15	,	81954	,	-23492	,	-20642	,	8.490114	,	9
49,15	,	81986	,	-23510	,	-20644	,	10.061004	,	11
49,15	,	82002	,	-23498	,	-20649	,	10.483598	,	12
49,15	,	82019	,	-23504	,	-20644	,	9.789216	,	12
49,15	,	82050	,	-23504	,	-20641	,	8.257692	,	12
49,15	,	82066	,	-23501	,	-20655	,	6.244024	,	11
49,15	,	82098	,	-23501	,	-20636	,	4.101456	,	10
49,15	,	82114	,	-23505	,	-20652	,	2.119061	,	8
49,15	,	82131	,	-23505	,	-20647	,	0.44067788	,	6
49,15	,	82162	,	-23502	,	-20633	,	-0.8763375	,	3
49,15	,	82178	,	-23509	,	-20666	,	-1.8109972	,	1
49,15	,	82195	,	-23496	,	-20640	,	-2.372056	,	0
49,15	,	82227	,	-23505	,	-20652	,	-2.5431163	,	0
49,15	,	82243	,	-23510	,	-20639	,	-2.3806767	,	0
49,15	,	82274	,	-23506	,	-20644	,	-2.0911648	,	0
49,15	,	82290	,	-23508	,	-20656	,	-1.8341504	,	0
49,15	,	82306	,	-23520	,	-20643	,	-1.6935707	,	0
49,15	,	82338	,	-23511	,	-20648	,	-1.7829939	,	0
49,15	,	82354	,	-23509	,	-20647	,	-2.0869594	,	0
49,15	,	82371	,	-23520	,	-20650	,	-2.4486158	,	0
49,15	,	82402	,	-23510	,	-20662	,	-2.7790709	,	0
49,15	,	82418	,	-23515	,	-20640	,	-3.0203614	,	0
49,15	,	82450	,	-23513	,	-20659	,	-3.090542	,	0
49,15	,	82466	,	-23535	,	-20654	,	-3.0703049	,	0
49,15	,	82482	,	-23524	,	-20659	,	-3.2381	,	0
49,16	,	82514	,	-23527	,	-20658	,	-3.7412658	,	0
49,16	,	82530	,	-23535	,	-20655	,	-4.4748464	,	0
49,16	,	82546	,	-23532	,	-20658	,	-5.3146944	,	0
49,16	,	82578	,	-23524	,	-20664	,	-6.103708	,	0
49,16	,	82594	,	-23539	,	-20652	,	-6.6242943	,	0
49,16	,	82610	,	-23539	,	-20663	,	-6.850443	,	0
49,16	,	82642	,	-23540	,	-20682	,	-6.9332366	,	0
49,16	,	82658	,	-23539	,	-20651	,	-6.942714	,	0
49,16	,	82690	,	-23539	,	-20659	,	-6.8290253	,	0
49,16	,	82706	,	-23528	,	-20662	,	-6.4757404	,	0
49,16	,	82722	,	-23522	,	-20671	,	-5.684536	,	0
49,16	,	82754	,	-23523	,	-20661	,	-4.290516	,	0
49,16	,	82770	,	-23508	,	-20664	,	-2.2914596	,	1
49,16	,	82786	,	-23522	,	-20662	,	0.16148043	,	2
49,16	,	82818	,	-23512	,	-20652	,	2.746418	,	4
49,16	,	82834	,	-23528	,	-20655	,	5.0236	,	6
49,16	,	82866	,	-23524	,	-20659	,	6.5744147	,	8
49,16	,	82882	,	-23531	,	-20674	,	7.1223865	,	9
49,16	,	82898	,	-23523	,	-20659	,	6.659531	,	9
49,16	,	82930	,	-23544	,	-20664	,	5.367049	,	9
49,16	,	82946	,	-23543	,	-20656	,	3.3759105	,	9
49,16	,	82962	,	-23536	,	-20672	,	0.8496094	,	8
49,16	,	82994	,	-23540	,	-20654	,	-1.8054538	,	7
49,16	,	83010	,	-23530	,	-20661	,	-4.0883665	,	5
49,16	,	83026	,	-23521	,	-20656	,	-5.558362	,	3
49,16	,	83058	,	-23523	,	-20666	,	-5.890257	,	1
49,16	,	83074	,	-23542	,	-20669	,	-5.153142	,	0
49,16	,	83106	,	-23533	,	-20668	,	-3.8758187	,	0
49,16	,	83122	,	-23540	,	-20689	,	-2.614308	,	1
49,16	,	83138	,	-23537	,	-20667	,	-1.6602829	,	2
49,16	,	83170	,	-23551	,	-20679	,	-1.1597775	,	2
49,16	,	83186	,	-23540	,	-20660	,	-1.194475	,	2
49,16	,	83202	,	-23560	,	-20674	,	-1.7434652	,	2
49,16	,	83234	,	-23551	,	-20680	,	-2.7310185	,	2
49,16	,	83250	,	-23543	,	-20672	,	-3.9519148	,	2
49,16	,	83282	,	-23556	,	-20666	,	-5.0463076	,	2
49,16	,	83299	,	-23557	,	-20665	,	-5.816789	,	2
49,16	,	83314	,	-23554	,	-20669	,	-6.294904	,	1
49,16	,	83346	,	-23554	,	-20676	,	-6.487441	,	0
49,16	,	83362	,	-23571	,	-20678	,	-6.4279227	,	0
49,16	,	83378	,	-23560	,	-20675	,	-6.302931	,	0
49,16	,	83410	,	-23571	,	-20684	,	-6.264389	,	0
49,16	,	83426	,	-23557	,	-20671	,	-6.283529	,	0
49,16	,	83442	,	-23543	,	-20682	,	-6.1107574	,	0
49,16	,	83474	,	-23544	,	-20677	,	-5.3372374	,	0
49,17	,	83490	,	-23560	,	-20677	,	-3.8281596	,	0
49,17	,	83522	,	-23544	,	-20681	,	-1.9142859	,	1
49,17	,	83538	,	-23541	,	-20681	,	0.06071663	,	2
49,17	,	83554	,	-23541	,	-20667	,	1.9921429	,	3
49,17	,	83586	,	-23538	,	-20672	,	3.808918	,	4
49,17	,	83602	,	-23548	,	-20683	,	5.3431807	,	5
49,17	,	83618	,	-23564	,	-20676	,	6.2652273	,	6
49,17	,	83650	,	-23564	,	-20674	,	6.143441	,	6
49,17	,	83666	,	-23564	,	-20685	,	4.801323	,	6
49,17	,	83698	,	-23562	,	-20679	,	2.5221217	,	6
49,17	,	83714	,	-23570	,	-20690	,	-0.18214369	,	5
49,17	,	83730	,	-23558	,	-20678	,	-2.8297365	,	4
49,17	,	83762	,	-23567	,	-20674	,	-5.014263	,	3
49,17	,	83778	,	-23567	,	-20679	,	-6.498342	,	2
49,17	,	83794	,	-23552	,	-20692	,	-7.206233	,	1
49,17	,	83825	,	-23562	,	-20679	,	-7.0684376	,	0
49,17	,	83841	,	-23557	,	-20683	,	-6.138337	,	0
49,17	,	83857	,	-23571	,	-20678	,	-4.7381473	,	0
49,17	,	83890	,	-23573	,	-20678	,	-3.3524792	,	1
49,17	,	83906	,	-23552	,	-20679	,	-2.3003151	,	2
49,17	,	83938	,	-23578	,	-20685	,	-1.5646191	,	3
49,17	,	83954	,	-23572	,	-20690	,	-1.1460416	,	3
49,17	,	83970	,	-23573	,	-20694	,	-1.1601489	,	3
49,17	,	84002	,	-23572	,	-20681	,	-1.5453544	,	3
49,17	,	84018	,	-23576	,	-20698	,	-2.1100078	,	3
49,17	,	84034	,	-23572	,	-20685	,	-2.6960657	,	3
49,17	,	84066	,	-23580	,	-20690	,	-3.1987891	,	3
49,17	,	84082	,	-23576	,	-20682	,	-3.5792422	,	2
49,17	,	84113	,	-23575	,	-20681	,	-3.8122668	,	1
49,17	,	84129	,	-23594	,	-20693	,	-3.928493	,	0
49,17	,	84145	,	-23586	,	-20691	,	-4.1202946	,	0
49,17	,	84177	,	-23586	,	-20691	,	-4.5139537	,	0
49,17	,	84193	,	-23559	,	-20676	,	-4.850075	,	0
49,17	,	84209	,	-23572	,	-20672	,	-4.618879	,	0
49,17	,	84241	,	-23565	,	-20681	,	-3.558952	,	0
49,17	,	84257	,	-23561	,	-20676	,	-1.817589	,	1
49,17	,	84290	,	-23540	,	-20679	,	0.42346525	,	2
49,17	,	84306	,	-23546	,	-20691	,	3.1323948	,	4
49,17	,	84322	,	-23537	,	-20676	,	6.1882496	,	6
49,17	,	84353	,	-23549	,	-20680	,	9.21755	,	9
49,17	,	84369	,	-23550	,	-20679	,	11.677169	,	12
49,17	,	84385	,	-23554	,	-20684	,	13.064547	,	14
49,17	,	84417	,	-23554	,	-20681	,	13.1413355	,	15
49,17	,	84433	,	-23575	,	-20685	,	11.894966	,	15
49,17	,	84449	,	-23552	,	-20672	,	9.453648	,	14
49,17	,	84482	,	-23562	,	-20691	,	6.256722	,	13
49,18	,	84498	,	-23571	,	-20672	,	2.8905754	,	11
49,18	,	84529	,	-23561	,	-20676	,	-0.26757956	,	9
49,18	,	84545	,	-23558	,	-20677	,	-2.9159644	,	6
49,18	,	84561	,	-23549	,	-20671	,	-4.685178	,	3
49,18	,	84593	,	-23552	,	-20669	,	-5.316826	,	1
49,18	,	84609	,	-23548	,	-20682	,	-4.8230896	,	0
49,18	,	84625	,	-23569	,	-20674	,	-3.5556288	,	0
49,18	,	84658	,	-23556	,	-20672	,	-2.099915	,	1
49,18	,	84674	,	-23571	,	-20682	,	-0.9532654	,	2
49,18	,	84705	,	-23560	,	-20683	,	-0.34625268	,	3
49,18	,	84721	,	-23561	,	-20673	,	-0.25017798	,	3
49,18	,	84737	,	-23568	,	-20684	,	-0.47808143	,	3
49,18	,	84769	,	-23561	,	-20682	,	-0.86986864	,	3
49,18	,	84785	,	-23566	,	-20693	,	-1.3063474	,	3
49,18	,	84801	,	-23570	,	-20670	,	-1.7073603	,	3
49,18	,	84833	,	-23576	,	-20682	,	-2.1217222	,	3
49,18	,	84849	,	-23569	,	-20680	,	-2.6302416	,	2
49,18	,	84865	,	-23568	,	-20686	,	-3.1630707	,	1
49,18	,	84897	,	-23579	,	-20677	,	-3.5870717	,	0
49,18	,	84913	,	-23585	,	-20683	,	-3.9527953	,	0
49,18	,	84945	,	-23582	,	-20685	,	-4.432818	,	0
49,18	,	84961	,	-23575	,	-20674	,	-5.021519	,	0
49,18	,	84977	,	-23570	,	-20678	,	-5.455013	,	0
49,18	,	85009	,	-23564	,	-20679	,	-5.3968153	,	0
49,18	,	85025	,	-23541	,	-20689	,	-4.5313673	,	0
49,18	,	85041	,	-23541	,	-20668	,	-2.5700445	,	0
49,18	,	85073	,	-23536	,	-20677	,	0.5172074	,	1
49,18	,	85089	,	-23538	,	-20673	,	4.324555	,	4
49,18	,	85121	,	-23539	,	-20666	,	8.182105	,	7
49,18	,	85137	,	-23551	,	-20658	,	11.376913	,	10
49,18	,	85153	,	-23520	,	-20664	,	13.445232	,	13
49,18	,	85185	,	-23531	,	-20662	,	14.455587	,	15
49,18	,	85201	,	-23543	,	-20663	,	14.653418	,	16
49,18	,	85217	,	-23538	,	-20663	,	14.017361	,	16
49,18	,	85249	,	-23544	,	-20666	,	12.4965515	,	16
49,18	,	85265	,	-23546	,	-20676	,	10.231493	,	15
49,18	,	85281	,	-23530	,	-20658	,	7.532769	,	12
49,18	,	85313	,	-23540	,	-20673	,	4.8737245	,	9
49,18	,	85329	,	-23529	,	-20663	,	2.68462	,	6
49,18	,	85361	,	-23533	,	-20657	,	1.1848493	,	3
49,18	,	85377	,	-23527	,	-20654	,	0.41922832	,	1
49,18	,	85393	,	-23526	,	-20667	,	0.32014394	,	0
49,18	,	85425	,	-23539	,	-20662	,	0.6959882	,	0
49,18	,	85441	,	-23535	,	-20647	,	1.2002667	,	0
49,18	,	85457	,	-23548	,	-20665	,	1.4611099	,	0
49,18	,	85489	,	-23543	,	-20667	,	1.2285261	,	0
49,19	,	85505	,	-23549	,	-20676	,	0.44039798	,	0
49,19	,	85537	,	-23542	,	-20651	,	-0.75000614	,	0
49,19	,	85553	,	-23551	,	-20664	,	-2.0768847	,	0
49,19	,	85569	,	-23545	,	-20661	,	-3.307249	,	0
49,19	,	85601	,	-23541	,	-20670	,	-4.2450285	,	0
49,19	,	85617	,	-23548	,	-20656	,	-4.7301908	,	0
49,19	,	85633	,	-23555	,	-20669	,	-4.793719	,	0
49,19	,	85665	,	-23552	,	-20670	,	-4.652086	,	0
49,19	,	85681	,	-23568	,	-20666	,	-4.540319	,	0
49,19	,	85697	,	-23561	,	-20657	,	-4.662447	,	0
49,19	,	85729	,	-23545	,	-20668	,	-4.9997272	,	0
49,19	,	85745	,	-23566	,	-20673	,	-5.259495	,	0
49,19	,	85777	,	-23564	,	-20643	,	-5.3081923	,	0
49,19	,	85793	,	-23543	,	-20659	,	-5.175359	,	0
49,19	,	85809	,	-23533	,	-20649	,	-4.598586	,	0
49,19	,	85841	,	-23531	,	-20643	,	-3.1660042	,	0
49,19	,	85857	,	-23512	,	-20652	,	-0.72058964	,	1
49,19	,	85873	,	-23524	,	-20651	,	2.587653	,	3
49,19	,	85905	,	-23518	,	-20662	,	6.297581	,	6
49,19	,	85921	,	-23516	,	-20650	,	9.780082	,	9
49,19	,	85952	,	-23514	,	-20654	,	12.557888	,	12
49,19	,	85969	,	-23513	,	-20650	,	14.390823	,	14
49,19	,	85985	,	-23520	,	-20663	,	15.176127	,	15
49,19	,	86017	,	-23515	,	-20643	,	14.896019	,	15
49,19	,	86032	,	-23525	,	-20654	,	13.630005	,	15
49,19	,	86048	,	-23525	,	-20651	,	11.526485	,	14
49,19	,	86081	,	-23515	,	-20646	,	8.843407	,	12
49,19	,	86097	,	-23519	,	-20646	,	6.0170603	,	9
49,19	,	86113	,	-23504	,	-20652	,	3.5380807	,	6
49,19	,	86145	,	-23512	,	-20651	,	1.7869382	,	3
49,19	,	86161	,	-23510	,	-20647	,	0.8817942	,	1
49,19	,	86193	,	-23529	,	-20646	,	0.5691302	,	0
49,19	,	86209	,	-23509	,	-20641	,	0.43073958	,	0
49,19	,	86225	,	-23518	,	-20658	,	0.2729311	,	0
49,19	,	86256	,	-23517	,	-20621	,	0.12829489	,	0
49,19	,	86272	,	-23517	,	-20652	,	0.006515503	,	0
49,19	,	86289	,	-23522	,	-20653	,	-0.13076296	,	0
49,19	,	86320	,	-23534	,	-20649	,	-0.39389306	,	0
49,19	,	86337	,	-23509	,	-20647	,	-0.8771754	,	0
49,19	,	86368	,	-23531	,	-20649	,	-1.4533347	,	0
49,19	,	86385	,	-23532	,	-20658	,	-2.0148375	,	0
49,19	,	86401	,	-23528	,	-20640	,	-2.6392295	,	0
49,19	,	86433	,	-23540	,	-20656	,	-3.3575659	,	0
49,19	,	86449	,	-23515	,	-20651	,	-4.048564	,	0
49,19	,	86464	,	-23516	,	-20654	,	-4.386196	,	0
49,20	,	86496	,	-23522	,	-20634	,	-4.0500298	,	0
49,20	,	86512	,	-23543	,	-20655	,	-3.2002993	,	0
49,20	,	86544	,	-23527	,	-20646	,	-2.3795767	,	0
49,20	,	86560	,	-23541	,	-20649	,	-1.9592086	,	0
49,20	,	86576	,	-23521	,	-20645	,	-1.9281268	,	0
49,20	,	86608	,	-23517	,	-20639	,	-1.9683797	,	0
49,20	,	86624	,	-23511	,	-20643	,	-1.6357863	,	0
49,20	,	86640	,	-23514	,	-20636	,	-0.6872624	,	0
49,20	,	86672	,	-23502	,	-20639	,	0.8204937	,	0
49,20	,	86688	,	-23501	,	-20648	,	2.7266617	,	1
49,20	,	86704	,	-23499	,	-20651	,	4.8495007	,	2
49,20	,	86736	,	-23507	,	-20632	,	6.8983893	,	4
49,20	,	86752	,	-23506	,	-20641	,	8.481897	,	6
49,20	,	86784	,	-23491	,	-20629	,	9.359806	,	7
49,20	,	86800	,	-23486	,	-20629	,	9.679912	,	7
49,20	,	86816	,	-23498	,	-20643	,	9.742277	,	7
49,20	,	86848	,	-23505	,	-20636	,	9.555397	,	7
49,20	,	86864	,	-23506	,	-20644	,	8.865464	,	7
49,20	,	86880	,	-23501	,	-20644	,	7.5414877	,	6
49,20	,	86912	,	-23500	,	-20642	,	5.7579927	,	5
49,20	,	86928	,	-23503	,	-20627	,	3.8377867	,	3
49,20	,	86960	,	-23505	,	-20646	,	2.0250442	,	1
49,20	,	86976	,	-23481	,	-20623	,	0.5464318	,	0
49,20	,	86992	,	-23505	,	-20636	,	-0.32062614	,	0
49,20	,	87024	,	-23501	,	-20637	,	-0.5709654	,	0
49,20	,	87040	,	-23496	,	-20638	,	-0.49348748	,	0
49,20	,	87056	,	-23496	,	-20637	,	-0.27220178	,	0
49,20	,	87088	,	-23487	,	-20640	,	0.09679711	,	0
49,20	,	87104	,	-23499	,	-20638	,	0.63159823	,	0
49,20	,	87120	,	-23494	,	-20645	,	1.2238727	,	0
49,20	,	87152	,	-23499	,	-20621	,	1.6805266	,	0
49,20	,	87168	,	-23494	,	-20639	,	1.8893203	,	0
49,20	,	87200	,	-23496	,	-20655	,	1.863122	,	0
49,20	,	87216	,	-23508	,	-20638	,	1.6173995	,	0
49,20	,	87232	,	-23515	,	-20640	,	1.0176916	,	0
49,20	,	87264	,	-23521	,	-20642	,	-0.14129245	,	0
49,20	,	87280	,	-23512	,	-20635	,	-1.8584676	,	0
49,20	,	87296	,	-23519	,	-20627	,	-3.8247867	,	0
49,20	,	87328	,	-23501	,	-20636	,	-5.575107	,	0
49,20	,	87344	,	-23509	,	-20641	,	-6.6637125	,	0
49,20	,	87376	,	-23524	,	-20639	,	-6.9413486	,	0
49,20	,	87392	,	-23513	,	-20640	,	-6.672806	,	0
49,20	,	87408	,	-23524	,	-20639	,	-6.191512	,	0
49,20	,	87440	,	-23524	,	-20651	,	-5.7058387	,	0
49,20	,	87456	,	-23512	,	-20636	,	-5.30311	,	0
49,20	,	87472	,	-23495	,	-20634	,	-4.7717776	,	0
49,21	,	87504	,	-23499	,	-20619	,	-3.6893382	,	0
49,21	,	87520	,	-23475	,	-20621	,	-1.7684755	,	1
49,21	,	87536	,	-23479	,	-20628	,	1.0538838	,	2
49,21	,	87568	,	-23488	,	-20626	,	4.5176773	,	4
49,21	,	87583	,	-23492	,	-20631	,	7.930306	,	7
49,21	,	87616	,	-23498	,	-20625	,	10.488867	,	10
49,21	,	87632	,	-23487	,	-20625	,	11.730937	,	12
49,21	,	87648	,	-23492	,	-20630	,	11.6820965	,	13
49,21	,	87680	,	-23492	,	-20635	,	10.650602	,	13
49,21	,	87696	,	-23487	,	-20624	,	8.988084	,	13
49,21	,	87712	,	-23490	,	-20634	,	7.045294	,	12
49,21	,	87743	,	-23495	,	-20623	,	5.091621	,	11
49,21	,	87759	,	-23508	,	-20626	,	3.1766205	,	9
49,21	,	87792	,	-23484	,	-20619	,	1.275702	,	6
49,21	,	87808	,	-23488	,	-20627	,	-0.3817532	,	3
49,21	,	87824	,	-23482	,	-20620	,	-1.4168144	,	1
49,21	,	87855	,	-23483	,	-20616	,	-1.6525515	,	0
49,21	,	87871	,	-23500	,	-20615	,	-1.251688	,	0
49,21	,	87887	,	-23491	,	-20637	,	-0.64857566	,	0
49,21	,	87919	,	-23484	,	-20624	,	-0.16788507	,	0
49,21	,	87936	,	-23488	,	-20634	,	0.19863456	,	0
49,21	,	87968	,	-23505	,	-20633	,	0.44709295	,	0
49,21	,	87984	,	-23519	,	-20626	,	0.25850153	,	0
49,21	,	88000	,	-23495	,	-20635	,	-0.6680992	,	0
49,21	,	88031	,	-23506	,	-20642	,	-2.1252484	,	0
49,21	,	88047	,	-23508	,	-20637	,	-3.636315	,	0
49,21	,	88063	,	-23490	,	-20642	,	-4.842558	,	0
49,21	,	88096	,	-23507	,	-20638	,	-5.46697	,	0
49,21	,	88112	,	-23504	,	-20639	,	-5.4512463	,	0
49,21	,	88128	,	-23510	,	-20629	,	-5.031333	,	0
49,21	,	88159	,	-23503	,	-20629	,	-4.4641156	,	0
49,21	,	88175	,	-23519	,	-20634	,	-3.9230914	,	0
49,21	,	88207	,	-23517	,	-20630	,	-3.6006486	,	0
49,21	,	88223	,	-23497	,	-20641	,	-3.5444472	,	0
49,21	,	88240	,	-23507	,	-20628	,	-3.469765	,	0
49,21	,	88271	,	-23506	,	-20640	,	-3.1062346	,	0
49,21	,	88287	,	-23498	,	-20638	,	-2.4493077	,	0
49,21	,	88303	,	-23482	,	-20634	,	-1.4602877	,	0
49,21	,	88335	,	-23504	,	-20639	,	-0.038279057	,	0
49,21	,	88351	,	-23489	,	-20630	,	1.6469069	,	1
49,21	,	88383	,	-23488	,	-20632	,	3.2902856	,	2
49,21	,	88399	,	-23490	,	-20625	,	4.735918	,	3
49,21	,	88415	,	-23486	,	-20629	,	5.8825784	,	4
49,21	,	88448	,	-23500	,	-20627	,	6.5829635	,	5
49,21	,	88463	,	-23507	,	-20625	,	6.607095	,	5
49,21	,	88479	,	-23499	,	-20634	,	5.7685175	,	5
49,22	,	88511	,	-23501	,	-20628	,	4.200042	,	5
49,22	,	88527	,	-23505	,	-20629	,	2.2643917	,	5
49,22	,	88543	,	-23512	,	-20634	,	0.23325157	,	4
49,22	,	88575	,	-23502	,	-20633	,	-1.7333584	,	3
49,22	,	88591	,	-23499	,	-20637	,	-3.3877978	,	2
49,22	,	88623	,	-23504	,	-20642	,	-4.440981	,	1
49,22	,	88639	,	-23493	,	-20622	,	-4.7583547	,	0
49,22	,	88655	,	-23500	,	-20626	,	-4.3595405	,	0
49,22	,	88687	,	-23498	,	-20630	,	-3.4028382	,	0
49,22	,	88703	,	-23502	,	-20644	,	-2.1800663	,	0
49,22	,	88719	,	-23509	,	-20639	,	-1.0228946	,	1
49,22	,	88751	,	-23499	,	-20644	,	-0.18989587	,	2
49,22	,	88767	,	-23505	,	-20638	,	0.2529024	,	2
49,22	,	88799	,	-23499	,	-20645	,	0.39956716	,	2
49,22	,	88815	,	-23502	,	-20642	,	0.38034004	,	2
49,22	,	88831	,	-23510	,	-20636	,	0.26253754	,	2
49,22	,	88863	,	-23514	,	-20647	,	-0.033376247	,	2
49,22	,	88879	,	-23534	,	-20634	,	-0.7260076	,	2
49,22	,	88895	,	-23533	,	-20643	,	-2.0725212	,	2
49,22	,	88927	,	-23530	,	-20644	,	-4.10515	,	1
49,22	,	88943	,	-23526	,	-20646	,	-6.4430113	,	0
49,22	,	88959	,	-23534	,	-20644	,	-8.539795	,	0
49,22	,	88991	,	-23528	,	-20645	,	-10.02183	,	0
49,22	,	89007	,	-23527	,	-20634	,	-10.706385	,	0
49,22	,	89039	,	-23518	,	-20641	,	-10.48728	,	0
49,22	,	89055	,	-23511	,	-20642	,	-9.294858	,	0
49,22	,	89071	,	-23497	,	-20628	,	-7.0833	,	1
49,22	,	89103	,	-23502	,	-20646	,	-3.9130378	,	3
49,22	,	89119	,	-23510	,	-20632	,	-0.167799	,	6
49,22	,	89135	,	-23507	,	-20634	,	3.4554853	,	9
49,22	,	89167	,	-23510	,	-20642	,	6.3188334	,	12
49,22	,	89183	,	-23499	,	-20637	,	8.1468115	,	14
49,22	,	89215	,	-23518	,	-20653	,	8.950746	,	15
49,22	,	89231	,	-23519	,	-20647	,	8.732622	,	15
49,22	,	89247	,	-23512	,	-20646	,	7.505335	,	15
49,22	,	89279	,	-23522	,	-20658	,	5.5167084	,	14
49,22	,	89295	,	-23521	,	-20637	,	3.124362	,	12
49,22	,	89311	,	-23510	,	-20642	,	0.68392825	,	9
49,22	,	89343	,	-23510	,	-20649	,	-1.3749478	,	6
49,22	,	89359	,	-23528	,	-20631	,	-2.7800825	,	3
49,22	,	89375	,	-23510	,	-20642	,	-3.600821	,	1
49,22	,	89407	,	-23516	,	-20641	,	-3.9440584	,	0
49,22	,	89423	,	-23510	,	-20643	,	-3.7950559	,	0
49,22	,	89455	,	-23509	,	-20653	,	-3.1738753	,	0
49,22	,	89471	,	-23524	,	-20645	,	-2.247003	,	0
49,22	,	89487	,	-23515	,	-20659	,	-1.3347112	,	0
49,23	,	89519	,	-23521	,	-20649	,	-0.70502317	,	0
49,23	,	89535	,	-23512	,	-20658	,	-0.3946575	,	0
49,23	,	89551	,	-23514	,	-20646	,	-0.26996136	,	0
49,23	,	89583	,	-23522	,	-20658	,	-0.21142596	,	0
49,23	,	89599	,	-23515	,	-20643	,	-0.22428752	,	0
49,23	,	89630	,	-23535	,	-20651	,	-0.3985437	,	0
49,23	,	89646	,	-23533	,	-20655	,	-0.9074353	,	0
49,23	,	89663	,	-23529	,	-20639	,	-1.8520517	,	0
49,23	,	89694	,	-23534	,	-20653	,	-3.0660205	,	0
49,23	,	89711	,	-23517	,	-20647	,	-4.20906	,	0
49,23	,	89727	,	-23510	,	-20654	,	-4.838163	,	0
49,23	,	89759	,	-23516	,	-20650	,	-4.571974	,	0
49,23	,	89775	,	-23511	,	-20648	,	-3.3978512	,	0
