Data recorded on Wed Jul 26 14-09-33 CAT 2017
Time: 14:10:11
Time		Millis		IR PPG		Red PPG		Filtered		SSF
10,20	,	85144	,	-18940	,	-15712	,	-21.157085	,	2
10,20	,	85161	,	-18930	,	-15704	,	-12.03951	,	7
10,20	,	85193	,	-18913	,	-15700	,	0.6065006	,	16
10,20	,	85209	,	-18908	,	-15699	,	15.109919	,	28
10,20	,	85240	,	-18904	,	-15697	,	29.434464	,	42
10,20	,	85256	,	-18889	,	-15694	,	41.756947	,	56
10,20	,	85273	,	-18885	,	-15691	,	50.89128	,	68
10,20	,	85304	,	-18885	,	-15689	,	56.322826	,	77
10,20	,	85321	,	-18894	,	-15689	,	57.937325	,	82
10,20	,	85337	,	-18904	,	-15690	,	55.839943	,	81
10,20	,	85369	,	-18914	,	-15695	,	50.351208	,	76
10,20	,	85385	,	-18919	,	-15699	,	42.07332	,	67
10,20	,	85416	,	-18908	,	-15695	,	31.976858	,	55
10,20	,	85432	,	-18906	,	-15695	,	21.380024	,	41
10,20	,	85448	,	-18921	,	-15696	,	11.54497	,	27
10,20	,	85480	,	-18929	,	-15704	,	3.1613264	,	15
10,20	,	85497	,	-18927	,	-15711	,	-3.6194181	,	6
10,20	,	85513	,	-18943	,	-15717	,	-8.848997	,	1
10,20	,	85544	,	-18958	,	-15711	,	-12.775831	,	0
10,20	,	85560	,	-18960	,	-15720	,	-15.830091	,	0
10,20	,	85576	,	-18984	,	-15728	,	-18.398401	,	0
10,20	,	85608	,	-19000	,	-15737	,	-20.838087	,	0
10,20	,	85625	,	-19005	,	-15745	,	-23.470459	,	0
10,20	,	85656	,	-19007	,	-15741	,	-26.29243	,	0
10,20	,	85672	,	-19023	,	-15746	,	-28.975658	,	0
10,20	,	85688	,	-19035	,	-15754	,	-31.241518	,	0
10,20	,	85721	,	-19043	,	-15757	,	-33.019737	,	0
10,20	,	85737	,	-19052	,	-15760	,	-34.302704	,	0
10,20	,	85753	,	-19058	,	-15769	,	-35.055748	,	0
10,20	,	85784	,	-19075	,	-15780	,	-35.28681	,	0
10,20	,	85800	,	-19078	,	-15775	,	-35.10839	,	0
10,20	,	85832	,	-19096	,	-15781	,	-34.682533	,	0
10,20	,	85848	,	-19104	,	-15789	,	-34.184196	,	0
10,20	,	85864	,	-19093	,	-15768	,	-33.669113	,	0
10,20	,	85896	,	-19036	,	-15748	,	-32.58847	,	0
10,20	,	85912	,	-18991	,	-15726	,	-29.501944	,	1
10,20	,	85928	,	-18962	,	-15722	,	-22.787678	,	4
10,20	,	85960	,	-18952	,	-15716	,	-11.864216	,	10
10,20	,	85976	,	-18944	,	-15715	,	2.3153448	,	20
10,20	,	86008	,	-18947	,	-15711	,	17.720997	,	34
10,20	,	86024	,	-18936	,	-15723	,	32.066128	,	49
10,20	,	86040	,	-18938	,	-15702	,	43.519905	,	63
10,20	,	86072	,	-18930	,	-15710	,	51.03363	,	74
10,20	,	86088	,	-18937	,	-15710	,	54.30187	,	81
10,20	,	86104	,	-18944	,	-15707	,	53.52614	,	83
10,20	,	86136	,	-18946	,	-15715	,	49.215805	,	80
10,21	,	86152	,	-18952	,	-15719	,	42.156837	,	74
10,21	,	86168	,	-18956	,	-15712	,	33.323143	,	64
10,21	,	86200	,	-18955	,	-15717	,	23.726297	,	50
10,21	,	86216	,	-18962	,	-15718	,	14.318022	,	35
10,21	,	86248	,	-18969	,	-15726	,	5.824442	,	21
10,21	,	86264	,	-18976	,	-15736	,	-1.3803701	,	10
10,21	,	86280	,	-18984	,	-15723	,	-7.218191	,	3
10,21	,	86312	,	-18999	,	-15734	,	-11.825083	,	0
10,21	,	86328	,	-19004	,	-15724	,	-15.478314	,	0
10,21	,	86344	,	-19020	,	-15749	,	-18.46506	,	0
10,21	,	86376	,	-19032	,	-15750	,	-21.036404	,	0
10,21	,	86392	,	-19034	,	-15760	,	-23.367678	,	0
10,21	,	86424	,	-19062	,	-15768	,	-25.529957	,	0
10,21	,	86440	,	-19063	,	-15766	,	-27.609314	,	0
10,21	,	86456	,	-19073	,	-15766	,	-29.638882	,	0
10,21	,	86488	,	-19077	,	-15774	,	-31.44732	,	0
10,21	,	86504	,	-19091	,	-15789	,	-32.80612	,	0
10,21	,	86520	,	-19096	,	-15774	,	-33.61367	,	0
10,21	,	86552	,	-19122	,	-15795	,	-33.95813	,	0
10,21	,	86568	,	-19134	,	-15798	,	-34.146744	,	0
10,21	,	86600	,	-19142	,	-15806	,	-34.520313	,	0
10,21	,	86616	,	-19150	,	-15805	,	-35.15801	,	0
10,21	,	86632	,	-19151	,	-15798	,	-35.843575	,	0
10,21	,	86664	,	-19081	,	-15777	,	-35.856766	,	0
10,21	,	86680	,	-19036	,	-15747	,	-33.583244	,	0
10,21	,	86696	,	-19009	,	-15743	,	-27.187277	,	2
10,21	,	86728	,	-18993	,	-15735	,	-16.015898	,	8
10,21	,	86744	,	-18998	,	-15736	,	-1.1388683	,	19
10,21	,	86760	,	-18987	,	-15721	,	15.180655	,	33
10,21	,	86792	,	-18991	,	-15733	,	30.439354	,	49
10,21	,	86808	,	-18978	,	-15728	,	42.67035	,	64
10,21	,	86840	,	-18978	,	-15716	,	50.789867	,	76
10,21	,	86856	,	-18988	,	-15729	,	54.497524	,	84
10,21	,	86872	,	-18998	,	-15739	,	53.906178	,	87
10,21	,	86904	,	-19008	,	-15740	,	49.383827	,	85
10,21	,	86920	,	-19003	,	-15739	,	41.67773	,	79
10,21	,	86936	,	-19010	,	-15739	,	31.951372	,	68
10,21	,	86968	,	-19007	,	-15738	,	21.530859	,	54
10,21	,	86983	,	-19011	,	-15741	,	11.591877	,	38
10,21	,	87016	,	-19018	,	-15742	,	2.97081	,	23
10,21	,	87032	,	-19021	,	-15746	,	-3.9218512	,	11
10,21	,	87048	,	-19044	,	-15765	,	-9.106211	,	3
10,21	,	87080	,	-19050	,	-15752	,	-12.9790125	,	0
10,21	,	87096	,	-19054	,	-15760	,	-16.02483	,	0
10,21	,	87112	,	-19073	,	-15767	,	-18.55257	,	0
10,22	,	87144	,	-19072	,	-15764	,	-20.746597	,	0
10,22	,	87160	,	-19087	,	-15774	,	-22.689209	,	0
10,22	,	87176	,	-19086	,	-15784	,	-24.34283	,	0
10,22	,	87208	,	-19103	,	-15782	,	-25.640905	,	0
10,22	,	87224	,	-19106	,	-15792	,	-26.576609	,	0
10,22	,	87256	,	-19123	,	-15802	,	-27.228888	,	0
10,22	,	87272	,	-19125	,	-15793	,	-27.713501	,	0
10,22	,	87288	,	-19131	,	-15792	,	-28.072357	,	0
10,22	,	87320	,	-19148	,	-15806	,	-28.282307	,	0
10,22	,	87336	,	-19153	,	-15812	,	-28.39856	,	0
10,22	,	87352	,	-19156	,	-15812	,	-28.483036	,	0
10,22	,	87384	,	-19116	,	-15787	,	-28.237148	,	0
10,22	,	87400	,	-19063	,	-15768	,	-26.611046	,	0
10,22	,	87432	,	-19038	,	-15742	,	-22.06479	,	1
10,22	,	87448	,	-19018	,	-15738	,	-13.650002	,	5
10,22	,	87464	,	-19015	,	-15738	,	-1.7764235	,	13
10,22	,	87496	,	-19011	,	-15743	,	11.965192	,	24
10,22	,	87512	,	-19015	,	-15728	,	25.45089	,	37
10,22	,	87528	,	-19009	,	-15736	,	36.713783	,	50
10,22	,	87560	,	-19018	,	-15738	,	44.413532	,	61
10,22	,	87576	,	-19016	,	-15735	,	47.947247	,	68
10,22	,	87592	,	-19026	,	-15742	,	47.36263	,	71
10,22	,	87624	,	-19032	,	-15741	,	43.188263	,	70
10,22	,	87640	,	-19037	,	-15749	,	36.238777	,	66
10,22	,	87671	,	-19027	,	-15741	,	27.564526	,	58
10,22	,	87687	,	-19028	,	-15749	,	18.412014	,	47
10,22	,	87704	,	-19035	,	-15749	,	9.917858	,	34
10,22	,	87736	,	-19046	,	-15751	,	2.7327795	,	21
10,22	,	87752	,	-19053	,	-15756	,	-3.0350513	,	10
10,22	,	87768	,	-19056	,	-15757	,	-7.55719	,	3
10,22	,	87800	,	-19075	,	-15763	,	-11.077007	,	0
10,22	,	87816	,	-19085	,	-15760	,	-13.93184	,	0
10,22	,	87847	,	-19087	,	-15771	,	-16.457506	,	0
10,22	,	87863	,	-19102	,	-15777	,	-18.79441	,	0
10,22	,	87879	,	-19117	,	-15777	,	-21.00142	,	0
10,22	,	87912	,	-19117	,	-15778	,	-23.15464	,	0
10,22	,	87928	,	-19121	,	-15782	,	-25.155785	,	0
10,22	,	87944	,	-19134	,	-15781	,	-26.753284	,	0
10,22	,	87975	,	-19133	,	-15787	,	-27.77866	,	0
10,22	,	87991	,	-19145	,	-15796	,	-28.179148	,	0
10,22	,	88007	,	-19153	,	-15799	,	-28.013325	,	0
10,22	,	88040	,	-19159	,	-15794	,	-27.459473	,	0
10,22	,	88056	,	-19113	,	-15777	,	-26.447449	,	0
10,22	,	88088	,	-19064	,	-15751	,	-24.101227	,	1
10,22	,	88104	,	-19034	,	-15745	,	-18.97174	,	3
10,22	,	88120	,	-19021	,	-15735	,	-10.17456	,	8
10,23	,	88151	,	-19013	,	-15740	,	1.824584	,	16
10,23	,	88168	,	-19023	,	-15742	,	15.359327	,	27
10,23	,	88183	,	-19013	,	-15730	,	28.247873	,	40
10,23	,	88216	,	-19012	,	-15727	,	38.636868	,	52
10,23	,	88232	,	-18998	,	-15738	,	45.53222	,	62
10,23	,	88263	,	-19003	,	-15725	,	48.764023	,	68
10,23	,	88279	,	-19024	,	-15730	,	48.531578	,	70
10,23	,	88295	,	-19030	,	-15740	,	45.022804	,	68
10,23	,	88327	,	-19041	,	-15744	,	38.548244	,	63
10,23	,	88344	,	-19033	,	-15740	,	29.837988	,	55
10,23	,	88359	,	-19042	,	-15741	,	20.019896	,	44
10,23	,	88391	,	-19038	,	-15742	,	10.299767	,	31
10,23	,	88407	,	-19037	,	-15741	,	1.689889	,	19
10,23	,	88423	,	-19045	,	-15743	,	-5.118473	,	9
10,23	,	88456	,	-19045	,	-15746	,	-9.871916	,	3
10,23	,	88472	,	-19064	,	-15756	,	-12.765836	,	0
10,23	,	88503	,	-19068	,	-15745	,	-14.336253	,	0
10,23	,	88519	,	-19092	,	-15759	,	-15.285208	,	0
10,23	,	88535	,	-19086	,	-15771	,	-16.227093	,	0
10,23	,	88567	,	-19091	,	-15774	,	-17.39591	,	0
10,23	,	88583	,	-19104	,	-15763	,	-18.664234	,	0
10,23	,	88599	,	-19112	,	-15774	,	-19.905663	,	0
10,23	,	88631	,	-19117	,	-15790	,	-21.099577	,	0
10,23	,	88647	,	-19123	,	-15784	,	-22.185408	,	0
10,23	,	88679	,	-19139	,	-15793	,	-23.09901	,	0
10,23	,	88695	,	-19154	,	-15792	,	-23.935463	,	0
10,23	,	88711	,	-19112	,	-15779	,	-24.681507	,	0
10,23	,	88743	,	-19064	,	-15757	,	-24.49308	,	0
10,23	,	88759	,	-19018	,	-15726	,	-21.672058	,	0
10,23	,	88775	,	-18999	,	-15713	,	-14.759202	,	2
10,23	,	88807	,	-18989	,	-15713	,	-3.6268845	,	8
10,23	,	88823	,	-18979	,	-15717	,	10.387384	,	19
10,23	,	88855	,	-18972	,	-15700	,	25.180576	,	33
10,23	,	88871	,	-18973	,	-15707	,	38.640137	,	47
10,23	,	88887	,	-18972	,	-15701	,	49.061714	,	60
10,23	,	88919	,	-18960	,	-15704	,	55.44569	,	70
10,23	,	88935	,	-18961	,	-15708	,	57.64602	,	76
10,23	,	88951	,	-18971	,	-15717	,	56.082687	,	78
10,23	,	88983	,	-18979	,	-15722	,	51.3181	,	76
10,23	,	88999	,	-18970	,	-15704	,	44.039852	,	70
10,23	,	89015	,	-18974	,	-15703	,	35.222584	,	59
10,23	,	89047	,	-18975	,	-15708	,	25.963404	,	45
10,23	,	89063	,	-18983	,	-15706	,	17.145672	,	31
10,23	,	89095	,	-18984	,	-15716	,	9.309788	,	18
10,23	,	89111	,	-18983	,	-15714	,	2.753456	,	8
10,23	,	89127	,	-18997	,	-15722	,	-2.3993406	,	2
10,24	,	89159	,	-19010	,	-15714	,	-6.3099527	,	0
10,24	,	89175	,	-19014	,	-15724	,	-9.386379	,	0
10,24	,	89191	,	-19015	,	-15729	,	-11.953401	,	0
10,24	,	89223	,	-19019	,	-15735	,	-14.0670595	,	0
10,24	,	89239	,	-19030	,	-15722	,	-15.6835785	,	0
10,24	,	89271	,	-19051	,	-15737	,	-16.939615	,	0
10,24	,	89287	,	-19064	,	-15746	,	-18.226294	,	0
10,24	,	89303	,	-19069	,	-15748	,	-19.910662	,	0
10,24	,	89335	,	-19081	,	-15747	,	-22.043842	,	0
10,24	,	89351	,	-19057	,	-15742	,	-24.277039	,	0
10,24	,	89367	,	-19008	,	-15712	,	-25.631922	,	0
10,24	,	89400	,	-18958	,	-15697	,	-24.416626	,	0
10,24	,	89415	,	-18948	,	-15690	,	-19.055775	,	1
10,24	,	89431	,	-18926	,	-15685	,	-9.236362	,	6
10,24	,	89463	,	-18923	,	-15688	,	3.8930178	,	15
10,24	,	89479	,	-18915	,	-15670	,	18.345608	,	28
10,24	,	89511	,	-18892	,	-15668	,	32.084362	,	42
10,24	,	89527	,	-18883	,	-15663	,	43.665695	,	55
10,24	,	89543	,	-18886	,	-15660	,	52.27085	,	66
10,24	,	89575	,	-18878	,	-15659	,	57.411423	,	74
10,24	,	89591	,	-18879	,	-15665	,	58.94867	,	79
10,24	,	89607	,	-18892	,	-15666	,	57.092705	,	79
10,24	,	89639	,	-18891	,	-15659	,	52.223526	,	74
10,24	,	89655	,	-18901	,	-15661	,	44.898487	,	65
10,24	,	89687	,	-18893	,	-15665	,	35.9276	,	52
10,24	,	89703	,	-18897	,	-15673	,	26.318064	,	38
10,24	,	89719	,	-18898	,	-15663	,	17.073898	,	25
10,24	,	89751	,	-18902	,	-15671	,	8.936625	,	14
10,24	,	89767	,	-18918	,	-15673	,	2.224454	,	6
10,24	,	89783	,	-18921	,	-15676	,	-3.1583362	,	1
10,24	,	89815	,	-18924	,	-15683	,	-7.458481	,	0
10,24	,	89831	,	-18934	,	-15687	,	-10.842913	,	0
10,24	,	89847	,	-18939	,	-15694	,	-13.449909	,	0
10,24	,	89879	,	-18952	,	-15682	,	-15.4664545	,	0
10,24	,	89895	,	-18953	,	-15691	,	-17.086082	,	0
10,24	,	89927	,	-18966	,	-15696	,	-18.438206	,	0
10,24	,	89943	,	-18967	,	-15706	,	-19.580252	,	0
10,24	,	89959	,	-18978	,	-15715	,	-20.523968	,	0
10,24	,	89991	,	-18992	,	-15710	,	-21.313335	,	0
10,24	,	90007	,	-18951	,	-15681	,	-21.864767	,	0
10,24	,	90023	,	-18908	,	-15658	,	-21.392544	,	0
10,24	,	90055	,	-18871	,	-15650	,	-18.424616	,	0
10,24	,	90071	,	-18851	,	-15655	,	-11.793432	,	2
10,24	,	90103	,	-18846	,	-15642	,	-1.5252314	,	8
10,24	,	90119	,	-18832	,	-15658	,	11.117712	,	18
10,24	,	90135	,	-18814	,	-15650	,	24.345116	,	30
10,25	,	90167	,	-18818	,	-15640	,	36.513924	,	43
10,25	,	90183	,	-18799	,	-15625	,	46.340134	,	55
10,25	,	90199	,	-18802	,	-15625	,	53.032387	,	64
10,25	,	90231	,	-18789	,	-15627	,	56.353638	,	70
10,25	,	90247	,	-18789	,	-15623	,	56.512024	,	73
10,25	,	90279	,	-18806	,	-15624	,	53.91024	,	71
10,25	,	90295	,	-18804	,	-15620	,	48.89482	,	65
10,25	,	90311	,	-18796	,	-15635	,	41.938873	,	55
10,25	,	90343	,	-18804	,	-15623	,	33.85306	,	43
10,25	,	90359	,	-18802	,	-15647	,	25.513672	,	30
10,25	,	90375	,	-18816	,	-15635	,	17.550467	,	18
10,25	,	90407	,	-18818	,	-15636	,	10.287979	,	9
10,25	,	90423	,	-18824	,	-15628	,	3.8609943	,	3
10,25	,	90439	,	-18832	,	-15642	,	-1.6648006	,	0
10,25	,	90470	,	-18841	,	-15626	,	-6.3064575	,	0
10,25	,	90487	,	-18860	,	-15650	,	-10.2318	,	0
10,25	,	90518	,	-18865	,	-15648	,	-13.728036	,	0
10,25	,	90534	,	-18870	,	-15661	,	-16.979033	,	0
10,25	,	90550	,	-18877	,	-15670	,	-19.920452	,	0
10,25	,	90583	,	-18881	,	-15657	,	-22.365774	,	0
10,25	,	90599	,	-18893	,	-15662	,	-24.176527	,	0
10,25	,	90615	,	-18903	,	-15678	,	-25.366802	,	0
10,25	,	90647	,	-18919	,	-15670	,	-26.133877	,	0
10,25	,	90663	,	-18924	,	-15676	,	-26.755447	,	0
10,25	,	90694	,	-18916	,	-15680	,	-27.320759	,	0
10,25	,	90710	,	-18869	,	-15650	,	-27.329765	,	0
10,25	,	90727	,	-18835	,	-15635	,	-25.550896	,	0
10,25	,	90759	,	-18801	,	-15620	,	-20.594883	,	1
10,25	,	90775	,	-18794	,	-15621	,	-11.851081	,	5
10,25	,	90791	,	-18782	,	-15609	,	0.03325081	,	13
10,25	,	90823	,	-18779	,	-15624	,	13.437272	,	24
10,25	,	90839	,	-18756	,	-15619	,	26.518238	,	37
10,25	,	90854	,	-18745	,	-15615	,	37.88343	,	50
10,25	,	90886	,	-18746	,	-15607	,	46.709343	,	61
10,25	,	90903	,	-18736	,	-15596	,	52.508816	,	69
10,25	,	90935	,	-18736	,	-15604	,	55.096996	,	74
10,25	,	90951	,	-18752	,	-15598	,	54.547043	,	75
10,25	,	90966	,	-18749	,	-15602	,	51.031616	,	71
10,25	,	90999	,	-18757	,	-15611	,	44.93193	,	63
10,25	,	91014	,	-18759	,	-15618	,	36.942085	,	52
10,25	,	91030	,	-18762	,	-15607	,	27.921751	,	39
10,25	,	91062	,	-18764	,	-15614	,	18.739775	,	26
10,25	,	91078	,	-18771	,	-15626	,	10.142782	,	15
10,25	,	91111	,	-18779	,	-15614	,	2.6156902	,	7
10,25	,	91126	,	-18781	,	-15613	,	-3.6354818	,	2
10,26	,	91142	,	-18787	,	-15617	,	-8.564032	,	0
10,26	,	91174	,	-18788	,	-15643	,	-12.189638	,	0
10,26	,	91190	,	-18807	,	-15662	,	-14.652336	,	0
10,26	,	91206	,	-18812	,	-15637	,	-16.300474	,	0
10,26	,	91238	,	-18824	,	-15638	,	-17.567242	,	0
10,26	,	91254	,	-18833	,	-15647	,	-18.771988	,	0
10,26	,	91270	,	-18847	,	-15650	,	-20.110758	,	0
10,26	,	91302	,	-18854	,	-15664	,	-21.690935	,	0
10,26	,	91319	,	-18852	,	-15667	,	-23.435057	,	0
10,26	,	91350	,	-18877	,	-15663	,	-25.111732	,	0
10,26	,	91366	,	-18882	,	-15668	,	-26.617937	,	0
10,26	,	91382	,	-18890	,	-15670	,	-27.997604	,	0
10,26	,	91414	,	-18895	,	-15672	,	-29.19929	,	0
10,26	,	91431	,	-18879	,	-15681	,	-29.955502	,	0
10,26	,	91446	,	-18854	,	-15654	,	-29.662514	,	0
10,26	,	91478	,	-18786	,	-15640	,	-27.22511	,	0
10,26	,	91494	,	-18780	,	-15635	,	-21.355639	,	2
10,26	,	91526	,	-18759	,	-15608	,	-11.567195	,	7
10,26	,	91542	,	-18756	,	-15607	,	1.2438812	,	16
10,26	,	91558	,	-18751	,	-15617	,	15.258332	,	28
10,26	,	91590	,	-18743	,	-15623	,	28.474298	,	42
10,26	,	91606	,	-18743	,	-15607	,	39.266186	,	55
10,26	,	91622	,	-18728	,	-15619	,	46.684864	,	65
10,26	,	91654	,	-18729	,	-15611	,	50.4969	,	72
10,26	,	91670	,	-18730	,	-15628	,	50.959232	,	75
10,26	,	91702	,	-18747	,	-15610	,	48.453632	,	73
10,26	,	91718	,	-18745	,	-15630	,	43.35971	,	68
10,26	,	91734	,	-18754	,	-15611	,	36.209633	,	59
10,26	,	91766	,	-18756	,	-15609	,	27.746424	,	47
10,26	,	91782	,	-18752	,	-15617	,	18.83378	,	33
10,26	,	91798	,	-18755	,	-15623	,	10.37174	,	20
10,26	,	91830	,	-18760	,	-15612	,	3.0840511	,	10
10,26	,	91846	,	-18765	,	-15638	,	-2.686842	,	3
10,26	,	91862	,	-18770	,	-15649	,	-6.939604	,	0
10,26	,	91894	,	-18776	,	-15639	,	-9.871571	,	0
10,26	,	91910	,	-18794	,	-15633	,	-11.835749	,	0
10,26	,	91942	,	-18807	,	-15648	,	-13.354807	,	0
10,26	,	91958	,	-18813	,	-15659	,	-14.948597	,	0
10,26	,	91974	,	-18826	,	-15655	,	-16.887236	,	0
10,26	,	92006	,	-18838	,	-15656	,	-19.204506	,	0
10,26	,	92022	,	-18847	,	-15662	,	-21.821743	,	0
10,26	,	92038	,	-18854	,	-15666	,	-24.5534	,	0
10,26	,	92070	,	-18852	,	-15673	,	-27.073463	,	0
10,26	,	92086	,	-18869	,	-15670	,	-29.01463	,	0
10,26	,	92118	,	-18879	,	-15679	,	-30.22584	,	0
10,26	,	92134	,	-18888	,	-15701	,	-30.835867	,	0
10,27	,	92150	,	-18900	,	-15687	,	-31.057365	,	0
10,27	,	92182	,	-18909	,	-15706	,	-31.080116	,	0
10,27	,	92198	,	-18913	,	-15685	,	-31.02295	,	0
10,27	,	92214	,	-18843	,	-15651	,	-30.502779	,	0
10,27	,	92246	,	-18817	,	-15645	,	-28.203714	,	0
10,27	,	92262	,	-18790	,	-15649	,	-22.60134	,	2
10,27	,	92278	,	-18792	,	-15645	,	-13.259019	,	7
10,27	,	92310	,	-18788	,	-15641	,	-1.2014275	,	16
10,27	,	92326	,	-18773	,	-15641	,	11.729801	,	28
10,27	,	92358	,	-18776	,	-15638	,	23.740913	,	40
10,27	,	92374	,	-18769	,	-15640	,	33.476875	,	52
10,27	,	92390	,	-18763	,	-15643	,	40.12394	,	61
10,27	,	92422	,	-18768	,	-15641	,	43.446865	,	67
10,27	,	92438	,	-18774	,	-15634	,	43.574326	,	70
10,27	,	92454	,	-18778	,	-15645	,	40.813248	,	68
10,27	,	92486	,	-18789	,	-15662	,	35.64131	,	63
10,27	,	92502	,	-18790	,	-15652	,	28.684177	,	54
10,27	,	92534	,	-18792	,	-15650	,	20.706415	,	42
10,27	,	92550	,	-18792	,	-15649	,	12.571941	,	30
10,27	,	92566	,	-18797	,	-15656	,	5.0655766	,	18
10,27	,	92598	,	-18806	,	-15660	,	-1.3113899	,	9
10,27	,	92614	,	-18809	,	-15656	,	-6.394897	,	3
10,27	,	92630	,	-18816	,	-15660	,	-10.234022	,	0
10,27	,	92662	,	-18828	,	-15675	,	-13.0068	,	0
10,27	,	92678	,	-18847	,	-15685	,	-15.07439	,	0
10,27	,	92694	,	-18856	,	-15675	,	-16.930933	,	0
10,27	,	92726	,	-18881	,	-15686	,	-19.023918	,	0
10,27	,	92742	,	-18880	,	-15704	,	-21.612265	,	0
10,27	,	92774	,	-18888	,	-15693	,	-24.610401	,	0
10,27	,	92790	,	-18897	,	-15698	,	-27.614582	,	0
10,27	,	92806	,	-18904	,	-15700	,	-30.195984	,	0
10,27	,	92838	,	-18907	,	-15707	,	-32.055378	,	0
10,27	,	92854	,	-18914	,	-15712	,	-33.007187	,	0
10,27	,	92870	,	-18923	,	-15713	,	-33.020386	,	0
10,27	,	92902	,	-18935	,	-15721	,	-32.272873	,	0
10,27	,	92918	,	-18944	,	-15732	,	-31.099245	,	0
10,27	,	92950	,	-18950	,	-15724	,	-29.829987	,	1
10,27	,	92966	,	-18973	,	-15734	,	-28.733624	,	2
10,27	,	92982	,	-18938	,	-15715	,	-27.89722	,	3
10,27	,	93014	,	-18893	,	-15699	,	-26.677582	,	3
10,27	,	93030	,	-18864	,	-15690	,	-23.606705	,	4
10,27	,	93046	,	-18847	,	-15680	,	-17.40681	,	7
10,27	,	93078	,	-18842	,	-15681	,	-7.963361	,	13
10,27	,	93094	,	-18832	,	-15673	,	3.653144	,	22
10,27	,	93110	,	-18829	,	-15672	,	15.793375	,	33
10,28	,	93142	,	-18828	,	-15666	,	26.818647	,	44
10,28	,	93158	,	-18819	,	-15676	,	35.46222	,	54
10,28	,	93189	,	-18827	,	-15654	,	41.006702	,	61
10,28	,	93205	,	-18837	,	-15675	,	43.16291	,	66
10,28	,	93222	,	-18847	,	-15684	,	41.890045	,	67
10,28	,	93253	,	-18843	,	-15677	,	37.49179	,	64
10,28	,	93269	,	-18847	,	-15684	,	30.740093	,	58
10,28	,	93286	,	-18846	,	-15678	,	22.71031	,	49
10,28	,	93318	,	-18848	,	-15679	,	14.484575	,	38
10,28	,	93334	,	-18859	,	-15675	,	6.898035	,	26
10,28	,	93366	,	-18857	,	-15679	,	0.40559864	,	15
10,28	,	93382	,	-18858	,	-15691	,	-4.782544	,	7
10,28	,	93398	,	-18862	,	-15704	,	-8.549046	,	2
10,28	,	93430	,	-18874	,	-15689	,	-10.971205	,	0
10,28	,	93446	,	-18882	,	-15699	,	-12.407026	,	0
10,28	,	93462	,	-18908	,	-15704	,	-13.424544	,	0
10,28	,	93493	,	-18918	,	-15708	,	-14.6794815	,	0
10,28	,	93509	,	-18919	,	-15708	,	-16.602642	,	0
10,28	,	93525	,	-18928	,	-15715	,	-19.11718	,	0
10,28	,	93558	,	-18936	,	-15724	,	-21.827583	,	0
10,28	,	93573	,	-18942	,	-15730	,	-24.347942	,	0
10,28	,	93605	,	-18947	,	-15723	,	-26.38351	,	0
10,28	,	93621	,	-18958	,	-15736	,	-27.753971	,	0
10,28	,	93637	,	-18956	,	-15740	,	-28.408852	,	0
10,28	,	93670	,	-18972	,	-15743	,	-28.381174	,	0
10,28	,	93685	,	-18987	,	-15743	,	-27.868057	,	0
10,28	,	93701	,	-19001	,	-15750	,	-27.292585	,	0
10,28	,	93733	,	-18973	,	-15730	,	-26.908894	,	0
10,28	,	93749	,	-18926	,	-15712	,	-26.128317	,	0
10,28	,	93781	,	-18886	,	-15695	,	-23.455263	,	0
10,28	,	93797	,	-18863	,	-15699	,	-17.410343	,	2
10,28	,	93813	,	-18871	,	-15690	,	-7.6751804	,	8
10,28	,	93845	,	-18864	,	-15693	,	4.540904	,	17
10,28	,	93861	,	-18864	,	-15690	,	17.183212	,	29
10,28	,	93877	,	-18857	,	-15684	,	28.326115	,	41
10,28	,	93909	,	-18854	,	-15694	,	36.6854	,	52
10,28	,	93926	,	-18852	,	-15679	,	41.685818	,	60
10,28	,	93957	,	-18869	,	-15693	,	43.238945	,	65
10,28	,	93973	,	-18877	,	-15699	,	41.455246	,	66
10,28	,	93990	,	-18865	,	-15704	,	36.717422	,	64
10,28	,	94021	,	-18877	,	-15695	,	29.873066	,	58
10,28	,	94037	,	-18878	,	-15698	,	21.968195	,	49
10,28	,	94053	,	-18882	,	-15710	,	13.898752	,	37
10,28	,	94085	,	-18882	,	-15698	,	6.3773994	,	25
10,28	,	94101	,	-18884	,	-15706	,	-0.05117607	,	14
10,28	,	94117	,	-18884	,	-15707	,	-5.0416303	,	6
10,29	,	94149	,	-18897	,	-15722	,	-8.51635	,	1
10,29	,	94165	,	-18898	,	-15706	,	-10.703884	,	0
10,29	,	94197	,	-18915	,	-15718	,	-12.0272875	,	0
10,29	,	94213	,	-18927	,	-15720	,	-12.995604	,	0
10,29	,	94229	,	-18936	,	-15734	,	-14.098307	,	0
10,29	,	94262	,	-18943	,	-15720	,	-15.6085	,	0
10,29	,	94277	,	-18951	,	-15723	,	-17.513855	,	0
10,29	,	94294	,	-18956	,	-15737	,	-19.621994	,	0
10,29	,	94325	,	-18966	,	-15739	,	-21.688072	,	0
10,29	,	94341	,	-18977	,	-15735	,	-23.536097	,	0
10,29	,	94373	,	-18987	,	-15746	,	-25.11462	,	0
10,29	,	94389	,	-18990	,	-15763	,	-26.41663	,	0
10,29	,	94405	,	-18998	,	-15747	,	-27.382088	,	0
10,29	,	94437	,	-19007	,	-15763	,	-27.944946	,	0
10,29	,	94453	,	-18955	,	-15727	,	-27.84203	,	0
10,29	,	94469	,	-18909	,	-15715	,	-26.076576	,	0
10,29	,	94501	,	-18887	,	-15702	,	-21.189978	,	1
10,29	,	94517	,	-18873	,	-15692	,	-12.468587	,	5
10,29	,	94533	,	-18870	,	-15694	,	-0.59045315	,	13
10,29	,	94565	,	-18874	,	-15694	,	12.696181	,	24
10,29	,	94581	,	-18863	,	-15697	,	25.303709	,	37
10,29	,	94613	,	-18863	,	-15689	,	35.544193	,	49
10,29	,	94629	,	-18859	,	-15698	,	42.454174	,	59
10,29	,	94645	,	-18855	,	-15689	,	45.748436	,	65
10,29	,	94677	,	-18856	,	-15691	,	45.68579	,	68
10,29	,	94693	,	-18871	,	-15700	,	42.78433	,	67
10,29	,	94709	,	-18881	,	-15705	,	37.522087	,	63
10,29	,	94741	,	-18878	,	-15694	,	30.39561	,	55
10,29	,	94757	,	-18870	,	-15699	,	22.200964	,	44
10,29	,	94789	,	-18875	,	-15713	,	13.986031	,	31
10,29	,	94805	,	-18877	,	-15697	,	6.6433573	,	19
10,29	,	94821	,	-18887	,	-15702	,	0.63176537	,	9
10,29	,	94853	,	-18902	,	-15713	,	-4.0555987	,	3
10,29	,	94869	,	-18895	,	-15712	,	-7.701251	,	0
10,29	,	94885	,	-18912	,	-15722	,	-10.5493765	,	0
10,29	,	94917	,	-18922	,	-15705	,	-12.807509	,	0
10,29	,	94933	,	-18937	,	-15725	,	-14.798047	,	0
10,29	,	94949	,	-18940	,	-15725	,	-16.821148	,	0
10,29	,	94981	,	-18950	,	-15727	,	-18.958632	,	0
10,29	,	94997	,	-18958	,	-15740	,	-21.109074	,	0
10,29	,	95029	,	-18961	,	-15742	,	-23.10713	,	0
10,29	,	95045	,	-18969	,	-15748	,	-24.7555	,	0
10,29	,	95061	,	-18986	,	-15753	,	-25.938667	,	0
10,29	,	95093	,	-18984	,	-15747	,	-26.712301	,	0
10,29	,	95109	,	-18997	,	-15750	,	-27.156673	,	0
10,29	,	95125	,	-18997	,	-15768	,	-27.285122	,	0
10,30	,	95157	,	-18989	,	-15732	,	-27.002539	,	0
10,30	,	95173	,	-18889	,	-15709	,	-25.573893	,	0
10,30	,	95205	,	-18883	,	-15698	,	-21.347977	,	1
10,30	,	95221	,	-18868	,	-15690	,	-13.0671835	,	5
10,30	,	95237	,	-18852	,	-15686	,	-1.1418352	,	13
10,30	,	95269	,	-18850	,	-15690	,	12.781499	,	24
10,30	,	95285	,	-18843	,	-15697	,	26.675106	,	37
10,30	,	95301	,	-18838	,	-15683	,	38.675606	,	50
10,30	,	95333	,	-18834	,	-15677	,	47.499195	,	62
10,30	,	95349	,	-18829	,	-15675	,	52.562256	,	70
10,30	,	95365	,	-18838	,	-15686	,	53.842422	,	75
10,30	,	95397	,	-18841	,	-15681	,	51.637756	,	75
10,30	,	95413	,	-18845	,	-15686	,	46.465683	,	71
10,30	,	95445	,	-18854	,	-15686	,	39.055885	,	63
10,30	,	95461	,	-18845	,	-15691	,	30.292078	,	52
10,30	,	95477	,	-18847	,	-15688	,	21.184029	,	39
10,30	,	95509	,	-18847	,	-15696	,	12.717346	,	26
10,30	,	95525	,	-18851	,	-15688	,	5.579053	,	14
10,30	,	95541	,	-18858	,	-15697	,	0.03196144	,	6
10,30	,	95573	,	-18870	,	-15694	,	-4.0629983	,	1
10,30	,	95589	,	-18878	,	-15705	,	-7.1203184	,	0
10,30	,	95621	,	-18893	,	-15705	,	-9.629409	,	0
10,30	,	95637	,	-18890	,	-15708	,	-11.951507	,	0
10,30	,	95653	,	-18907	,	-15710	,	-14.211236	,	0
10,30	,	95685	,	-18925	,	-15717	,	-16.473927	,	0
10,30	,	95701	,	-18927	,	-15721	,	-18.88316	,	0
10,30	,	95716	,	-18937	,	-15724	,	-21.450611	,	0
10,30	,	95748	,	-18948	,	-15727	,	-23.994076	,	0
10,30	,	95765	,	-18960	,	-15730	,	-26.345196	,	0
10,30	,	95781	,	-18960	,	-15736	,	-28.384449	,	0
10,30	,	95813	,	-18970	,	-15736	,	-29.939373	,	0
10,30	,	95829	,	-18971	,	-15742	,	-30.818985	,	0
10,30	,	95861	,	-18929	,	-15721	,	-30.677017	,	0
10,30	,	95877	,	-18886	,	-15714	,	-28.614996	,	0
10,30	,	95893	,	-18857	,	-15678	,	-23.396616	,	2
10,30	,	95925	,	-18829	,	-15671	,	-14.321588	,	7
10,30	,	95941	,	-18824	,	-15682	,	-1.7866907	,	16
10,30	,	95957	,	-18811	,	-15665	,	12.774867	,	28
10,30	,	95989	,	-18802	,	-15660	,	27.425373	,	42
10,30	,	96004	,	-18799	,	-15662	,	40.354744	,	56
10,30	,	96037	,	-18787	,	-15663	,	50.243256	,	68
10,30	,	96053	,	-18796	,	-15657	,	56.367672	,	77
10,30	,	96069	,	-18788	,	-15661	,	58.524765	,	83
10,30	,	96100	,	-18796	,	-15665	,	56.946808	,	83
10,30	,	96117	,	-18805	,	-15671	,	52.174286	,	78
10,30	,	96132	,	-18805	,	-15653	,	44.893333	,	69
10,31	,	96164	,	-18807	,	-15664	,	35.953262	,	57
10,31	,	96181	,	-18808	,	-15677	,	26.342505	,	43
10,31	,	96213	,	-18803	,	-15666	,	17.029305	,	29
10,31	,	96229	,	-18816	,	-15668	,	8.785973	,	17
10,31	,	96244	,	-18825	,	-15667	,	1.9657402	,	8
10,31	,	96276	,	-18840	,	-15673	,	-3.5493474	,	2
10,31	,	96292	,	-18832	,	-15679	,	-8.040241	,	0
10,31	,	96309	,	-18845	,	-15676	,	-11.629117	,	0
10,31	,	96341	,	-18854	,	-15679	,	-14.371155	,	0
10,31	,	96357	,	-18864	,	-15689	,	-16.464098	,	0
10,31	,	96373	,	-18875	,	-15688	,	-18.186184	,	0
10,31	,	96404	,	-18885	,	-15696	,	-19.774101	,	0
10,31	,	96420	,	-18898	,	-15701	,	-21.393326	,	0
10,31	,	96452	,	-18903	,	-15707	,	-23.116077	,	0
10,31	,	96469	,	-18907	,	-15709	,	-24.858559	,	0
10,31	,	96485	,	-18916	,	-15711	,	-26.397552	,	0
10,31	,	96516	,	-18932	,	-15717	,	-27.578217	,	0
10,31	,	96532	,	-18943	,	-15721	,	-28.46674	,	0
10,31	,	96548	,	-18931	,	-15718	,	-29.131405	,	0
10,31	,	96581	,	-18892	,	-15688	,	-29.141468	,	0
10,31	,	96596	,	-18844	,	-15676	,	-27.310387	,	0
10,31	,	96628	,	-18816	,	-15674	,	-22.186363	,	1
10,31	,	96644	,	-18802	,	-15653	,	-13.06142	,	6
10,31	,	96660	,	-18792	,	-15653	,	-0.56112766	,	15
10,31	,	96692	,	-18779	,	-15661	,	13.68101	,	27
10,31	,	96708	,	-18769	,	-15644	,	27.772741	,	41
10,31	,	96724	,	-18760	,	-15640	,	40.10454	,	55
10,31	,	96757	,	-18757	,	-15653	,	49.546707	,	67
10,31	,	96772	,	-18756	,	-15633	,	55.445602	,	76
10,31	,	96788	,	-18747	,	-15653	,	57.623367	,	81
10,31	,	96820	,	-18749	,	-15640	,	56.38841	,	82
10,31	,	96836	,	-18751	,	-15644	,	52.360653	,	77
10,31	,	96868	,	-18762	,	-15649	,	46.205116	,	68
10,31	,	96884	,	-18756	,	-15641	,	38.55967	,	56
10,31	,	96900	,	-18761	,	-15645	,	30.129137	,	42
10,31	,	96932	,	-18773	,	-15649	,	21.604525	,	28
10,31	,	96948	,	-18779	,	-15660	,	13.445517	,	16
10,31	,	96964	,	-18780	,	-15656	,	5.9303446	,	7
10,31	,	96996	,	-18801	,	-15658	,	-0.7469387	,	2
10,31	,	97012	,	-18799	,	-15655	,	-6.5449085	,	0
10,31	,	97044	,	-18803	,	-15668	,	-11.4488945	,	0
10,31	,	97061	,	-18817	,	-15664	,	-15.375171	,	0
10,31	,	97076	,	-18817	,	-15676	,	-18.32521	,	0
10,31	,	97108	,	-18837	,	-15702	,	-20.440224	,	0
10,31	,	97124	,	-18842	,	-15677	,	-21.970936	,	0
10,32	,	97140	,	-18856	,	-15711	,	-23.205791	,	0
10,32	,	97172	,	-18871	,	-15690	,	-24.391752	,	0
10,32	,	97188	,	-18865	,	-15689	,	-25.655117	,	0
10,32	,	97204	,	-18876	,	-15693	,	-26.859974	,	0
10,32	,	97236	,	-18894	,	-15706	,	-27.793537	,	0
10,32	,	97252	,	-18894	,	-15706	,	-28.44967	,	0
10,32	,	97284	,	-18914	,	-15711	,	-28.932163	,	0
10,32	,	97300	,	-18921	,	-15717	,	-29.359966	,	0
10,32	,	97316	,	-18914	,	-15713	,	-29.767187	,	0
10,32	,	97348	,	-18874	,	-15696	,	-29.704124	,	0
10,32	,	97364	,	-18828	,	-15676	,	-27.97823	,	0
10,32	,	97380	,	-18801	,	-15662	,	-23.11796	,	1
10,32	,	97412	,	-18771	,	-15647	,	-14.2906	,	5
10,32	,	97428	,	-18769	,	-15649	,	-1.8604965	,	13
10,32	,	97460	,	-18762	,	-15638	,	12.656065	,	25
10,32	,	97476	,	-18753	,	-15633	,	27.1591	,	39
10,32	,	97492	,	-18744	,	-15634	,	39.758102	,	53
10,32	,	97524	,	-18727	,	-15642	,	49.269894	,	65
10,32	,	97540	,	-18737	,	-15627	,	55.219856	,	74
10,32	,	97556	,	-18726	,	-15639	,	57.548866	,	79
10,32	,	97588	,	-18732	,	-15633	,	56.48313	,	80
10,32	,	97604	,	-18731	,	-15639	,	52.52732	,	76
10,32	,	97620	,	-18745	,	-15651	,	46.30728	,	68
10,32	,	97652	,	-18745	,	-15642	,	38.445473	,	56
10,32	,	97668	,	-18754	,	-15640	,	29.584599	,	42
10,32	,	97700	,	-18755	,	-15637	,	20.408472	,	28
10,32	,	97716	,	-18751	,	-15644	,	11.628828	,	16
10,32	,	97732	,	-18771	,	-15640	,	3.8545542	,	7
10,32	,	97764	,	-18765	,	-15643	,	-2.624053	,	2
10,32	,	97780	,	-18782	,	-15653	,	-7.7920394	,	0
10,32	,	97796	,	-18795	,	-15660	,	-11.821293	,	0
10,32	,	97828	,	-18797	,	-15659	,	-15.034397	,	0
10,32	,	97844	,	-18805	,	-15677	,	-17.665089	,	0
10,32	,	97876	,	-18821	,	-15668	,	-19.81401	,	0
10,32	,	97892	,	-18836	,	-15674	,	-21.666847	,	0
10,32	,	97908	,	-18846	,	-15678	,	-23.493706	,	0
10,32	,	97940	,	-18848	,	-15687	,	-25.413536	,	0
10,32	,	97956	,	-18860	,	-15686	,	-27.292534	,	0
10,32	,	97972	,	-18863	,	-15699	,	-28.894096	,	0
10,32	,	98004	,	-18874	,	-15693	,	-30.029654	,	0
10,32	,	98020	,	-18889	,	-15687	,	-30.656822	,	0
10,32	,	98052	,	-18890	,	-15697	,	-30.889736	,	0
10,32	,	98068	,	-18904	,	-15701	,	-30.849134	,	0
10,32	,	98084	,	-18907	,	-15713	,	-30.599491	,	0
10,32	,	98116	,	-18918	,	-15705	,	-30.189358	,	0
10,32	,	98132	,	-18892	,	-15687	,	-29.513474	,	0
10,33	,	98148	,	-18834	,	-15669	,	-27.864716	,	0
10,33	,	98180	,	-18811	,	-15662	,	-23.858109	,	1
10,33	,	98196	,	-18784	,	-15649	,	-16.357903	,	5
10,33	,	98212	,	-18777	,	-15648	,	-5.3878794	,	12
10,33	,	98244	,	-18770	,	-15638	,	7.8507004	,	22
10,33	,	98260	,	-18761	,	-15655	,	21.521223	,	35
10,33	,	98292	,	-18758	,	-15646	,	33.817486	,	48
10,33	,	98308	,	-18755	,	-15629	,	43.373127	,	60
10,33	,	98324	,	-18753	,	-15627	,	49.38793	,	69
10,33	,	98356	,	-18740	,	-15632	,	51.710648	,	75
10,33	,	98372	,	-18739	,	-15627	,	50.8041	,	76
10,33	,	98388	,	-18757	,	-15633	,	47.352688	,	72
10,33	,	98419	,	-18757	,	-15635	,	41.866554	,	65
10,33	,	98435	,	-18767	,	-15632	,	34.77783	,	55
10,33	,	98468	,	-18765	,	-15643	,	26.660532	,	42
10,33	,	98484	,	-18761	,	-15637	,	18.25849	,	29
10,33	,	98500	,	-18770	,	-15647	,	10.3615265	,	17
10,33	,	98532	,	-18775	,	-15655	,	3.5200872	,	8
10,33	,	98547	,	-18779	,	-15654	,	-2.0715847	,	2
10,33	,	98563	,	-18793	,	-15661	,	-6.4693503	,	0
10,33	,	98596	,	-18799	,	-15647	,	-9.909496	,	0
10,33	,	98612	,	-18800	,	-15658	,	-12.654014	,	0
10,33	,	98628	,	-18830	,	-15661	,	-14.928852	,	0
10,33	,	98660	,	-18833	,	-15678	,	-17.071217	,	0
10,33	,	98676	,	-18837	,	-15672	,	-19.347982	,	0
10,33	,	98708	,	-18843	,	-15682	,	-21.669292	,	0
10,33	,	98724	,	-18850	,	-15674	,	-23.748728	,	0
10,33	,	98739	,	-18857	,	-15683	,	-25.35933	,	0
10,33	,	98772	,	-18868	,	-15692	,	-26.41339	,	0
10,33	,	98788	,	-18880	,	-15696	,	-26.992168	,	0
10,33	,	98804	,	-18886	,	-15689	,	-27.287777	,	0
10,33	,	98835	,	-18899	,	-15699	,	-27.473166	,	0
10,33	,	98851	,	-18903	,	-15699	,	-27.646854	,	0
10,33	,	98883	,	-18933	,	-15710	,	-27.92258	,	0
10,33	,	98900	,	-18941	,	-15709	,	-28.548748	,	0
10,33	,	98916	,	-18943	,	-15720	,	-29.701935	,	0
10,33	,	98948	,	-18919	,	-15701	,	-31.034946	,	0
10,33	,	98963	,	-18869	,	-15676	,	-31.418432	,	0
10,33	,	98979	,	-18841	,	-15659	,	-29.197044	,	0
10,33	,	99012	,	-18810	,	-15658	,	-23.051598	,	2
10,33	,	99028	,	-18797	,	-15648	,	-12.76496	,	8
10,33	,	99059	,	-18795	,	-15649	,	0.6415148	,	18
10,33	,	99076	,	-18786	,	-15665	,	15.260586	,	31
10,33	,	99092	,	-18793	,	-15641	,	28.942656	,	45
10,33	,	99123	,	-18775	,	-15645	,	39.929394	,	58
10,33	,	99139	,	-18774	,	-15651	,	47.274376	,	68
10,34	,	99155	,	-18780	,	-15639	,	50.78173	,	75
10,34	,	99188	,	-18781	,	-15642	,	50.62269	,	78
10,34	,	99204	,	-18793	,	-15640	,	47.176365	,	76
10,34	,	99220	,	-18784	,	-15653	,	41.076633	,	70
10,34	,	99251	,	-18790	,	-15657	,	33.244064	,	60
10,34	,	99267	,	-18790	,	-15658	,	24.719265	,	47
10,34	,	99299	,	-18787	,	-15657	,	16.41963	,	33
10,34	,	99315	,	-18800	,	-15676	,	9.015587	,	20
10,34	,	99331	,	-18802	,	-15669	,	2.8219652	,	10
10,34	,	99364	,	-18805	,	-15667	,	-2.1394596	,	3
10,34	,	99379	,	-18830	,	-15669	,	-6.040898	,	0
10,34	,	99395	,	-18832	,	-15678	,	-9.27715	,	0
10,34	,	99427	,	-18840	,	-15693	,	-12.234991	,	0
10,34	,	99443	,	-18855	,	-15688	,	-15.07242	,	0
10,34	,	99475	,	-18861	,	-15687	,	-17.834105	,	0
10,34	,	99491	,	-18868	,	-15689	,	-20.492567	,	0
10,34	,	99507	,	-18873	,	-15700	,	-22.90022	,	0
10,34	,	99539	,	-18881	,	-15699	,	-24.865253	,	0
10,34	,	99556	,	-18887	,	-15699	,	-26.250423	,	0
10,34	,	99571	,	-18903	,	-15704	,	-27.057816	,	0
10,34	,	99603	,	-18906	,	-15711	,	-27.442646	,	0
10,34	,	99619	,	-18920	,	-15717	,	-27.591722	,	0
10,34	,	99635	,	-18940	,	-15720	,	-27.711042	,	0
10,34	,	99667	,	-18953	,	-15725	,	-28.107407	,	0
10,34	,	99683	,	-18955	,	-15733	,	-28.992802	,	0
10,34	,	99715	,	-18952	,	-15738	,	-30.182636	,	0
10,34	,	99731	,	-18971	,	-15735	,	-31.223886	,	0
10,34	,	99747	,	-18917	,	-15716	,	-31.550714	,	0
10,34	,	99779	,	-18870	,	-15696	,	-30.06425	,	0
10,34	,	99795	,	-18840	,	-15679	,	-25.21754	,	1
10,34	,	99811	,	-18823	,	-15683	,	-16.134933	,	5
10,34	,	99843	,	-18823	,	-15666	,	-3.395114	,	14
10,34	,	99859	,	-18809	,	-15665	,	11.2305765	,	26
10,34	,	99891	,	-18803	,	-15665	,	25.625605	,	40
10,34	,	99907	,	-18799	,	-15662	,	38.011158	,	54
10,34	,	99923	,	-18800	,	-15654	,	47.144966	,	66
10,34	,	99955	,	-18807	,	-15661	,	52.30686	,	75
10,34	,	99971	,	-18804	,	-15685	,	53.29757	,	80
10,34	,	99987	,	-18820	,	-15666	,	50.417473	,	79
10,34	,	100019	,	-18821	,	-15691	,	44.31831	,	75
10,34	,	100035	,	-18828	,	-15676	,	35.87863	,	66
10,34	,	100051	,	-18828	,	-15712	,	26.147034	,	54
10,34	,	100083	,	-18828	,	-15667	,	16.222076	,	40
10,34	,	100099	,	-18835	,	-15674	,	7.0680084	,	26
10,34	,	100131	,	-18843	,	-15681	,	-0.69757366	,	14
10,35	,	100147	,	-18850	,	-15689	,	-6.874063	,	5
10,35	,	100163	,	-18851	,	-15689	,	-11.51926	,	0
10,35	,	100195	,	-18861	,	-15687	,	-14.779057	,	0
10,35	,	100211	,	-18875	,	-15701	,	-16.914646	,	0
10,35	,	100227	,	-18886	,	-15695	,	-18.360378	,	0
10,35	,	100259	,	-18901	,	-15703	,	-19.603935	,	0
10,35	,	100275	,	-18907	,	-15707	,	-21.005972	,	0
10,35	,	100307	,	-18918	,	-15726	,	-22.687048	,	0
10,35	,	100323	,	-18930	,	-15713	,	-24.575455	,	0
10,35	,	100339	,	-18940	,	-15725	,	-26.556896	,	0
10,35	,	100371	,	-18946	,	-15726	,	-28.499985	,	0
10,35	,	100387	,	-18944	,	-15724	,	-30.16637	,	0
10,35	,	100403	,	-18963	,	-15734	,	-31.274075	,	0
10,35	,	100435	,	-18973	,	-15737	,	-31.759022	,	0
10,35	,	100451	,	-18978	,	-15745	,	-31.794098	,	0
10,35	,	100483	,	-18986	,	-15747	,	-31.5309	,	0
10,35	,	100499	,	-18998	,	-15755	,	-31.051865	,	0
10,35	,	100515	,	-19006	,	-15748	,	-30.4763	,	0
10,35	,	100547	,	-18971	,	-15741	,	-29.721544	,	0
10,35	,	100563	,	-18916	,	-15711	,	-27.945557	,	0
10,35	,	100579	,	-18880	,	-15708	,	-23.584427	,	1
10,35	,	100611	,	-18855	,	-15688	,	-15.372843	,	5
10,35	,	100627	,	-18851	,	-15688	,	-3.3370495	,	13
10,35	,	100643	,	-18847	,	-15691	,	11.087779	,	25
10,35	,	100675	,	-18843	,	-15688	,	25.702402	,	39
10,35	,	100691	,	-18844	,	-15680	,	38.37626	,	53
10,35	,	100723	,	-18845	,	-15682	,	47.554726	,	65
10,35	,	100739	,	-18841	,	-15680	,	52.45206	,	74
10,35	,	100755	,	-18849	,	-15689	,	53.036964	,	78
10,35	,	100787	,	-18851	,	-15688	,	49.80145	,	77
10,35	,	100803	,	-18857	,	-15690	,	43.539215	,	73
10,35	,	100819	,	-18861	,	-15685	,	35.218925	,	65
10,35	,	100851	,	-18860	,	-15687	,	25.876448	,	53
10,35	,	100867	,	-18871	,	-15689	,	16.487888	,	39
10,35	,	100899	,	-18871	,	-15691	,	7.799225	,	25
10,35	,	100915	,	-18883	,	-15699	,	0.2540474	,	13
10,35	,	100931	,	-18883	,	-15702	,	-5.9499483	,	4
10,35	,	100963	,	-18888	,	-15702	,	-10.75461	,	0
10,35	,	100979	,	-18896	,	-15710	,	-14.193188	,	0
10,35	,	100995	,	-18910	,	-15712	,	-16.477856	,	0
10,35	,	101027	,	-18918	,	-15711	,	-18.005491	,	0
10,35	,	101043	,	-18920	,	-15737	,	-19.145115	,	0
10,35	,	101060	,	-18930	,	-15720	,	-20.067957	,	0
10,35	,	101091	,	-18943	,	-15718	,	-20.858398	,	0
10,35	,	101107	,	-18955	,	-15731	,	-21.678375	,	0
10,36	,	101139	,	-18964	,	-15734	,	-22.710342	,	0
10,36	,	101155	,	-18969	,	-15730	,	-23.99573	,	0
10,36	,	101171	,	-18977	,	-15742	,	-25.388025	,	0
10,36	,	101203	,	-18989	,	-15742	,	-26.689346	,	0
10,36	,	101219	,	-18994	,	-15741	,	-27.783173	,	0
10,36	,	101235	,	-18996	,	-15749	,	-28.567661	,	0
10,36	,	101267	,	-18953	,	-15727	,	-28.652552	,	0
10,36	,	101283	,	-18907	,	-15721	,	-27.004124	,	0
10,36	,	101315	,	-18876	,	-15688	,	-22.211369	,	1
10,36	,	101331	,	-18861	,	-15690	,	-13.469546	,	5
10,36	,	101347	,	-18855	,	-15689	,	-1.2828093	,	13
10,36	,	101378	,	-18849	,	-15686	,	12.709578	,	25
10,36	,	101395	,	-18855	,	-15682	,	26.390957	,	38
10,36	,	101411	,	-18850	,	-15692	,	37.79565	,	51
10,36	,	101443	,	-18847	,	-15677	,	45.59821	,	62
10,36	,	101459	,	-18852	,	-15683	,	49.300735	,	69
10,36	,	101475	,	-18873	,	-15688	,	48.947994	,	72
10,36	,	101506	,	-18871	,	-15696	,	44.847607	,	71
10,36	,	101523	,	-18878	,	-15702	,	37.673977	,	67
10,36	,	101555	,	-18873	,	-15693	,	28.530722	,	59
10,36	,	101571	,	-18870	,	-15690	,	18.747038	,	47
10,36	,	101587	,	-18880	,	-15687	,	9.551273	,	34
10,36	,	101618	,	-18885	,	-15688	,	1.7242603	,	21
10,36	,	101635	,	-18883	,	-15698	,	-4.4316607	,	10
10,36	,	101651	,	-18895	,	-15723	,	-8.8904085	,	3
10,36	,	101683	,	-18905	,	-15702	,	-11.881268	,	0
10,36	,	101699	,	-18919	,	-15701	,	-13.891373	,	0
10,36	,	101731	,	-18926	,	-15711	,	-15.4734955	,	0
10,36	,	101747	,	-18928	,	-15710	,	-16.984499	,	0
10,36	,	101763	,	-18933	,	-15715	,	-18.461304	,	0
10,36	,	101795	,	-18946	,	-15732	,	-19.780842	,	0
10,36	,	101811	,	-18942	,	-15716	,	-20.848778	,	0
10,36	,	101827	,	-18972	,	-15726	,	-21.669392	,	0
10,36	,	101858	,	-18966	,	-15729	,	-22.405474	,	0
10,36	,	101874	,	-18986	,	-15737	,	-23.239717	,	0
10,36	,	101890	,	-18984	,	-15738	,	-24.199192	,	0
10,36	,	101923	,	-18967	,	-15725	,	-25.045544	,	0
10,36	,	101939	,	-18921	,	-15705	,	-24.996475	,	0
10,36	,	101970	,	-18877	,	-15689	,	-22.670055	,	0
10,36	,	101986	,	-18854	,	-15683	,	-16.725506	,	2
10,36	,	102003	,	-18853	,	-15682	,	-6.8686266	,	7
10,36	,	102035	,	-18845	,	-15684	,	5.749795	,	16
10,36	,	102051	,	-18846	,	-15669	,	19.112713	,	28
10,36	,	102067	,	-18844	,	-15680	,	31.160696	,	41
10,36	,	102098	,	-18835	,	-15666	,	40.35074	,	53
10,36	,	102114	,	-18830	,	-15683	,	45.958626	,	62
10,37	,	102146	,	-18839	,	-15668	,	47.96241	,	67
10,37	,	102162	,	-18852	,	-15671	,	46.605328	,	69
10,37	,	102178	,	-18854	,	-15683	,	42.210396	,	67
10,37	,	102211	,	-18846	,	-15695	,	35.409504	,	62
10,37	,	102227	,	-18854	,	-15671	,	27.223156	,	53
10,37	,	102243	,	-18846	,	-15691	,	18.752298	,	41
10,37	,	102274	,	-18854	,	-15685	,	10.904766	,	28
10,37	,	102290	,	-18861	,	-15677	,	4.2434835	,	16
10,37	,	102306	,	-18862	,	-15686	,	-1.0616674	,	7
10,37	,	102338	,	-18872	,	-15681	,	-5.0888095	,	2
10,37	,	102354	,	-18884	,	-15696	,	-8.085693	,	0
10,37	,	102386	,	-18890	,	-15694	,	-10.440212	,	0
10,37	,	102402	,	-18900	,	-15706	,	-12.508398	,	0
10,37	,	102418	,	-18907	,	-15705	,	-14.492187	,	0
10,37	,	102450	,	-18914	,	-15702	,	-16.449772	,	0
10,37	,	102467	,	-18922	,	-15706	,	-18.343636	,	0
10,37	,	102483	,	-18929	,	-15713	,	-20.100424	,	0
10,37	,	102514	,	-18937	,	-15711	,	-21.648531	,	0
10,37	,	102530	,	-18937	,	-15722	,	-22.899601	,	0
10,37	,	102562	,	-18948	,	-15723	,	-23.742138	,	0
10,37	,	102578	,	-18919	,	-15704	,	-23.973728	,	0
10,37	,	102594	,	-18865	,	-15678	,	-22.907776	,	0
10,37	,	102626	,	-18845	,	-15668	,	-19.30077	,	1
10,37	,	102642	,	-18837	,	-15670	,	-12.311339	,	4
10,37	,	102658	,	-18817	,	-15669	,	-2.3043833	,	10
10,37	,	102690	,	-18807	,	-15665	,	9.486794	,	20
10,37	,	102706	,	-18813	,	-15664	,	21.513754	,	31
10,37	,	102738	,	-18801	,	-15652	,	32.189846	,	43
10,37	,	102754	,	-18797	,	-15644	,	40.304276	,	53
10,37	,	102770	,	-18789	,	-15659	,	45.31389	,	61
10,37	,	102802	,	-18783	,	-15641	,	47.25725	,	66
10,37	,	102818	,	-18799	,	-15654	,	46.463314	,	66
10,37	,	102834	,	-18805	,	-15657	,	43.22325	,	63
10,37	,	102866	,	-18803	,	-15657	,	37.832237	,	57
10,37	,	102882	,	-18806	,	-15661	,	30.867565	,	47
10,37	,	102898	,	-18806	,	-15653	,	23.142916	,	36
10,37	,	102930	,	-18806	,	-15680	,	15.474718	,	24
10,37	,	102946	,	-18812	,	-15653	,	8.516725	,	14
10,37	,	102978	,	-18812	,	-15675	,	2.659214	,	6
10,37	,	102994	,	-18823	,	-15673	,	-1.9768667	,	1
10,37	,	103010	,	-18834	,	-15692	,	-5.5365086	,	0
10,37	,	103042	,	-18844	,	-15667	,	-8.379918	,	0
10,37	,	103058	,	-18853	,	-15682	,	-10.892598	,	0
10,37	,	103074	,	-18857	,	-15683	,	-13.305093	,	0
10,37	,	103106	,	-18874	,	-15686	,	-15.685544	,	0
10,37	,	103122	,	-18878	,	-15695	,	-18.047781	,	0
10,38	,	103154	,	-18886	,	-15689	,	-20.349796	,	0
10,38	,	103170	,	-18894	,	-15697	,	-22.457493	,	0
10,38	,	103186	,	-18899	,	-15698	,	-24.219797	,	0
10,38	,	103218	,	-18892	,	-15688	,	-25.451132	,	0
10,38	,	103234	,	-18848	,	-15678	,	-25.649584	,	0
10,38	,	103250	,	-18813	,	-15683	,	-23.771091	,	0
10,38	,	103282	,	-18795	,	-15644	,	-18.70897	,	1
10,38	,	103298	,	-18768	,	-15644	,	-10.118104	,	6
10,38	,	103314	,	-18763	,	-15638	,	1.3535852	,	14
10,38	,	103346	,	-18763	,	-15631	,	14.265929	,	25
10,38	,	103362	,	-18750	,	-15636	,	26.789421	,	37
10,38	,	103394	,	-18751	,	-15635	,	37.32208	,	49
10,38	,	103410	,	-18742	,	-15634	,	44.842903	,	59
10,38	,	103426	,	-18736	,	-15633	,	48.9591	,	66
10,38	,	103458	,	-18746	,	-15637	,	49.780716	,	70
10,38	,	103474	,	-18750	,	-15642	,	47.611755	,	69
10,38	,	103490	,	-18752	,	-15632	,	42.853497	,	64
10,38	,	103522	,	-18752	,	-15643	,	36.145264	,	56
10,38	,	103538	,	-18757	,	-15641	,	28.325653	,	45
10,38	,	103570	,	-18753	,	-15638	,	20.241999	,	33
10,38	,	103586	,	-18763	,	-15636	,	12.607473	,	21
10,38	,	103602	,	-18770	,	-15634	,	5.864832	,	11
10,38	,	103634	,	-18773	,	-15647	,	0.1598196	,	4
10,38	,	103650	,	-18793	,	-15651	,	-4.5724006	,	0
10,38	,	103666	,	-18786	,	-15659	,	-8.519364	,	0
10,38	,	103698	,	-18804	,	-15651	,	-11.837113	,	0
10,38	,	103714	,	-18806	,	-15657	,	-14.619731	,	0
10,38	,	103730	,	-18815	,	-15675	,	-16.953966	,	0
10,38	,	103762	,	-18825	,	-15669	,	-18.89694	,	0
10,38	,	103778	,	-18827	,	-15665	,	-20.485977	,	0
10,38	,	103810	,	-18850	,	-15679	,	-21.79025	,	0
10,38	,	103826	,	-18868	,	-15686	,	-23.04921	,	0
10,38	,	103842	,	-18865	,	-15688	,	-24.568111	,	0
10,38	,	103874	,	-18852	,	-15675	,	-26.223146	,	0
10,38	,	103890	,	-18814	,	-15654	,	-27.171913	,	0
10,38	,	103906	,	-18777	,	-15644	,	-26.041933	,	0
10,38	,	103938	,	-18755	,	-15637	,	-21.544205	,	1
10,38	,	103954	,	-18744	,	-15622	,	-13.26557	,	5
10,38	,	103986	,	-18739	,	-15636	,	-2.0031538	,	13
10,38	,	104002	,	-18725	,	-15628	,	10.637299	,	24
10,38	,	104018	,	-18725	,	-15614	,	22.912256	,	36
10,38	,	104050	,	-18712	,	-15614	,	33.385136	,	48
10,38	,	104066	,	-18702	,	-15614	,	41.176445	,	58
10,38	,	104082	,	-18701	,	-15630	,	45.99877	,	65
10,38	,	104114	,	-18702	,	-15624	,	47.902287	,	69
10,38	,	104130	,	-18705	,	-15608	,	47.063515	,	69
10,39	,	104146	,	-18708	,	-15616	,	43.780857	,	65
10,39	,	104178	,	-18719	,	-15624	,	38.477287	,	57
10,39	,	104194	,	-18716	,	-15607	,	31.67339	,	46
10,39	,	104225	,	-18712	,	-15613	,	24.05126	,	34
10,39	,	104242	,	-18714	,	-15636	,	16.438507	,	22
10,39	,	104257	,	-18726	,	-15621	,	9.519595	,	12
10,39	,	104290	,	-18726	,	-15632	,	3.6054525	,	5
10,39	,	104306	,	-18741	,	-15624	,	-1.2962356	,	1
10,39	,	104322	,	-18753	,	-15642	,	-5.38835	,	0
10,39	,	104354	,	-18763	,	-15631	,	-9.004085	,	0
10,39	,	104370	,	-18768	,	-15646	,	-12.396019	,	0
10,39	,	104402	,	-18776	,	-15632	,	-15.603571	,	0
10,39	,	104418	,	-18786	,	-15660	,	-18.532837	,	0
10,39	,	104434	,	-18798	,	-15649	,	-21.112078	,	0
10,39	,	104466	,	-18808	,	-15659	,	-23.363361	,	0
10,39	,	104482	,	-18807	,	-15656	,	-25.298874	,	0
10,39	,	104498	,	-18822	,	-15658	,	-26.827076	,	0
10,39	,	104529	,	-18826	,	-15666	,	-27.872623	,	0
10,39	,	104545	,	-18843	,	-15675	,	-28.495071	,	0
10,39	,	104562	,	-18862	,	-15682	,	-28.918505	,	0
10,39	,	104594	,	-18858	,	-15676	,	-29.419434	,	0
10,39	,	104610	,	-18818	,	-15664	,	-29.797546	,	0
10,39	,	104641	,	-18777	,	-15643	,	-28.926798	,	0
10,39	,	104658	,	-18752	,	-15629	,	-25.2454	,	0
10,39	,	104673	,	-18736	,	-15644	,	-17.842237	,	3
10,39	,	104706	,	-18731	,	-15638	,	-7.070319	,	10
10,39	,	104722	,	-18716	,	-15621	,	5.68876	,	20
10,39	,	104738	,	-18707	,	-15622	,	18.715965	,	32
10,39	,	104770	,	-18686	,	-15617	,	30.567425	,	45
10,39	,	104786	,	-18683	,	-15623	,	40.313786	,	56
10,39	,	104817	,	-18675	,	-15592	,	47.42841	,	65
10,39	,	104833	,	-18674	,	-15596	,	51.634956	,	72
10,39	,	104849	,	-18684	,	-15611	,	52.83349	,	76
10,39	,	104882	,	-18687	,	-15613	,	51.03492	,	74
10,39	,	104897	,	-18699	,	-15623	,	46.418274	,	67
10,39	,	104913	,	-18690	,	-15623	,	39.47395	,	57
10,39	,	104945	,	-18699	,	-15625	,	31.038227	,	45
10,39	,	104961	,	-18693	,	-15617	,	22.110947	,	32
10,39	,	104993	,	-18696	,	-15628	,	13.617048	,	21
10,39	,	105009	,	-18707	,	-15603	,	6.219454	,	12
10,39	,	105026	,	-18717	,	-15606	,	0.14536667	,	5
10,39	,	105057	,	-18723	,	-15631	,	-4.7496943	,	1
10,39	,	105073	,	-18736	,	-15643	,	-8.741539	,	0
10,39	,	105089	,	-18739	,	-15641	,	-12.089598	,	0
10,39	,	105121	,	-18750	,	-15627	,	-14.961546	,	0
10,39	,	105137	,	-18753	,	-15629	,	-17.422169	,	0
10,40	,	105153	,	-18767	,	-15639	,	-19.492016	,	0
10,40	,	105186	,	-18763	,	-15634	,	-21.16748	,	0
10,40	,	105202	,	-18779	,	-15649	,	-22.411572	,	0
10,40	,	105233	,	-18792	,	-15654	,	-23.280725	,	0
10,40	,	105249	,	-18798	,	-15648	,	-23.987904	,	0
10,40	,	105265	,	-18815	,	-15659	,	-24.74065	,	0
10,40	,	105297	,	-18826	,	-15653	,	-25.680542	,	0
10,40	,	105313	,	-18842	,	-15663	,	-26.923645	,	0
10,40	,	105329	,	-18850	,	-15669	,	-28.513134	,	0
10,40	,	105361	,	-18855	,	-15702	,	-30.33191	,	0
10,40	,	105377	,	-18862	,	-15676	,	-32.0813	,	0
10,40	,	105409	,	-18845	,	-15669	,	-33.29956	,	0
10,40	,	105425	,	-18795	,	-15641	,	-33.15068	,	0
10,40	,	105441	,	-18752	,	-15636	,	-30.269077	,	0
10,40	,	105473	,	-18746	,	-15624	,	-23.44907	,	2
10,40	,	105489	,	-18728	,	-15622	,	-12.683305	,	8
10,40	,	105505	,	-18723	,	-15613	,	0.7452364	,	18
10,40	,	105537	,	-18706	,	-15620	,	14.992513	,	31
10,40	,	105553	,	-18687	,	-15596	,	28.382223	,	45
10,40	,	105569	,	-18683	,	-15597	,	39.755184	,	58
10,40	,	105601	,	-18682	,	-15617	,	48.346985	,	69
10,40	,	105617	,	-18676	,	-15600	,	53.650238	,	77
10,40	,	105649	,	-18677	,	-15612	,	55.512604	,	82
10,40	,	105665	,	-18678	,	-15628	,	54.144516	,	81
10,40	,	105681	,	-18691	,	-15617	,	49.96344	,	75
10,40	,	105713	,	-18692	,	-15620	,	43.482353	,	65
10,40	,	105729	,	-18690	,	-15623	,	35.373333	,	52
10,40	,	105745	,	-18684	,	-15616	,	26.552307	,	38
10,40	,	105777	,	-18709	,	-15624	,	17.915606	,	25
10,40	,	105793	,	-18707	,	-15630	,	9.949564	,	14
10,40	,	105825	,	-18712	,	-15610	,	2.8398886	,	6
10,40	,	105841	,	-18722	,	-15631	,	-3.259303	,	1
10,40	,	105857	,	-18730	,	-15632	,	-8.292657	,	0
10,40	,	105889	,	-18742	,	-15629	,	-12.373547	,	0
10,40	,	105905	,	-18748	,	-15646	,	-15.700426	,	0
10,40	,	105921	,	-18756	,	-15645	,	-18.442482	,	0
10,40	,	105953	,	-18763	,	-15636	,	-20.67553	,	0
10,40	,	105969	,	-18765	,	-15672	,	-22.394041	,	0
10,40	,	105985	,	-18781	,	-15645	,	-23.585045	,	0
10,40	,	106017	,	-18786	,	-15650	,	-24.339764	,	0
10,40	,	106033	,	-18805	,	-15653	,	-24.870255	,	0
10,40	,	106065	,	-18811	,	-15679	,	-25.429668	,	0
10,40	,	106081	,	-18819	,	-15685	,	-26.171894	,	0
10,40	,	106097	,	-18830	,	-15679	,	-27.074947	,	0
10,40	,	106129	,	-18838	,	-15689	,	-28.041138	,	0
10,41	,	106145	,	-18850	,	-15670	,	-28.986225	,	0
10,41	,	106161	,	-18854	,	-15684	,	-29.833744	,	0
10,41	,	106193	,	-18858	,	-15682	,	-30.461563	,	0
10,41	,	106209	,	-18871	,	-15697	,	-30.728424	,	0
10,41	,	106241	,	-18875	,	-15682	,	-30.598877	,	0
10,41	,	106257	,	-18850	,	-15664	,	-29.97898	,	0
10,41	,	106273	,	-18769	,	-15635	,	-28.07145	,	0
10,41	,	106305	,	-18748	,	-15643	,	-23.234442	,	1
10,41	,	106321	,	-18744	,	-15633	,	-14.29978	,	5
10,41	,	106337	,	-18731	,	-15641	,	-1.8054228	,	13
10,41	,	106369	,	-18729	,	-15638	,	12.417461	,	25
10,41	,	106385	,	-18713	,	-15624	,	26.291786	,	39
10,41	,	106401	,	-18706	,	-15629	,	38.16554	,	52
10,41	,	106433	,	-18701	,	-15629	,	47.030674	,	63
10,41	,	106449	,	-18705	,	-15639	,	52.38651	,	71
10,41	,	106481	,	-18696	,	-15608	,	54.12703	,	76
10,41	,	106497	,	-18709	,	-15629	,	52.520126	,	76
10,41	,	106513	,	-18717	,	-15629	,	48.025917	,	72
10,41	,	106545	,	-18715	,	-15634	,	41.19844	,	64
10,41	,	106561	,	-18709	,	-15624	,	32.85746	,	52
10,41	,	106577	,	-18718	,	-15643	,	24.033163	,	38
10,41	,	106609	,	-18730	,	-15625	,	15.544405	,	25
10,41	,	106625	,	-18728	,	-15634	,	7.813163	,	14
10,41	,	106657	,	-18738	,	-15640	,	1.0698338	,	6
10,41	,	106673	,	-18737	,	-15630	,	-4.518661	,	1
10,41	,	106689	,	-18751	,	-15631	,	-8.903391	,	0
10,41	,	106721	,	-18762	,	-15664	,	-12.23604	,	0
10,41	,	106737	,	-18768	,	-15636	,	-14.831485	,	0
10,41	,	106753	,	-18783	,	-15645	,	-17.000698	,	0
10,41	,	106785	,	-18794	,	-15662	,	-18.998287	,	0
10,41	,	106801	,	-18794	,	-15681	,	-20.974403	,	0
10,41	,	106833	,	-18813	,	-15662	,	-22.90494	,	0
10,41	,	106849	,	-18819	,	-15668	,	-24.72766	,	0
10,41	,	106864	,	-18831	,	-15670	,	-26.430079	,	0
10,41	,	106897	,	-18843	,	-15673	,	-28.001942	,	0
10,41	,	106913	,	-18847	,	-15676	,	-29.416138	,	0
10,41	,	106929	,	-18851	,	-15681	,	-30.558342	,	0
10,41	,	106961	,	-18860	,	-15684	,	-31.23773	,	0
10,41	,	106977	,	-18868	,	-15679	,	-31.350815	,	0
10,41	,	106992	,	-18888	,	-15693	,	-31.01389	,	0
10,41	,	107025	,	-18909	,	-15702	,	-30.60921	,	0
10,41	,	107041	,	-18913	,	-15706	,	-30.600471	,	0
10,41	,	107072	,	-18915	,	-15706	,	-31.133904	,	0
10,41	,	107089	,	-18897	,	-15698	,	-31.801914	,	0
10,41	,	107105	,	-18841	,	-15685	,	-31.5372	,	0
10,41	,	107137	,	-18802	,	-15659	,	-28.691877	,	0
10,42	,	107153	,	-18783	,	-15663	,	-21.84159	,	2
10,42	,	107169	,	-18776	,	-15660	,	-10.837616	,	8
10,42	,	107201	,	-18774	,	-15649	,	2.9849463	,	19
10,42	,	107217	,	-18764	,	-15632	,	17.490799	,	32
10,42	,	107249	,	-18750	,	-15630	,	30.671528	,	46
10,42	,	107265	,	-18753	,	-15636	,	41.161407	,	59
10,42	,	107280	,	-18750	,	-15634	,	48.18285	,	69
10,42	,	107313	,	-18737	,	-15633	,	51.48711	,	76
10,42	,	107328	,	-18754	,	-15639	,	51.33377	,	79
10,42	,	107344	,	-18760	,	-15647	,	48.148777	,	77
10,42	,	107377	,	-18762	,	-15653	,	42.37494	,	71
10,42	,	107393	,	-18758	,	-15641	,	34.71414	,	60
10,42	,	107409	,	-18762	,	-15640	,	26.14022	,	47
10,42	,	107441	,	-18765	,	-15638	,	17.60427	,	33
10,42	,	107457	,	-18772	,	-15644	,	9.792923	,	20
10,42	,	107489	,	-18779	,	-15640	,	3.060279	,	10
10,42	,	107504	,	-18781	,	-15647	,	-2.4950762	,	3
10,42	,	107520	,	-18798	,	-15653	,	-6.943019	,	0
10,42	,	107552	,	-18809	,	-15653	,	-10.537705	,	0
10,42	,	107568	,	-18818	,	-15676	,	-13.639317	,	0
10,42	,	107584	,	-18823	,	-15665	,	-16.487915	,	0
10,42	,	107616	,	-18830	,	-15670	,	-19.099972	,	0
10,42	,	107632	,	-18835	,	-15668	,	-21.350262	,	0
10,42	,	107664	,	-18841	,	-15673	,	-23.092922	,	0
10,42	,	107681	,	-18855	,	-15679	,	-24.275599	,	0
10,42	,	107697	,	-18862	,	-15692	,	-25.01064	,	0
10,42	,	107728	,	-18864	,	-15682	,	-25.45559	,	0
10,42	,	107744	,	-18885	,	-15698	,	-25.710793	,	0
10,42	,	107760	,	-18897	,	-15700	,	-25.96214	,	0
10,42	,	107793	,	-18907	,	-15703	,	-26.478226	,	0
10,42	,	107808	,	-18909	,	-15704	,	-27.346317	,	0
10,42	,	107824	,	-18935	,	-15721	,	-28.46386	,	0
10,42	,	107856	,	-18934	,	-15712	,	-29.756805	,	0
10,42	,	107872	,	-18940	,	-15717	,	-31.09985	,	0
10,42	,	107904	,	-18947	,	-15716	,	-32.19844	,	0
10,42	,	107920	,	-18919	,	-15706	,	-32.619747	,	0
10,42	,	107936	,	-18870	,	-15691	,	-31.517113	,	0
10,42	,	107968	,	-18838	,	-15671	,	-27.570652	,	1
10,42	,	107984	,	-18814	,	-15676	,	-19.760494	,	4
10,42	,	108000	,	-18805	,	-15652	,	-8.186256	,	11
10,42	,	108032	,	-18803	,	-15653	,	5.83	,	22
10,42	,	108048	,	-18799	,	-15652	,	20.248182	,	36
10,42	,	108080	,	-18799	,	-15664	,	33.019897	,	50
10,42	,	108097	,	-18801	,	-15652	,	42.591248	,	62
10,42	,	108112	,	-18793	,	-15647	,	48.132744	,	71
10,43	,	108144	,	-18796	,	-15648	,	49.594536	,	76
10,43	,	108160	,	-18800	,	-15673	,	47.48459	,	76
10,43	,	108176	,	-18807	,	-15655	,	42.53089	,	73
10,43	,	108208	,	-18808	,	-15658	,	35.536446	,	66
10,43	,	108224	,	-18822	,	-15663	,	27.314732	,	55
10,43	,	108240	,	-18817	,	-15662	,	18.613579	,	41
10,43	,	108272	,	-18825	,	-15661	,	10.142836	,	27
10,43	,	108288	,	-18828	,	-15667	,	2.5243921	,	15
10,43	,	108320	,	-18842	,	-15668	,	-3.8956032	,	6
10,43	,	108336	,	-18851	,	-15676	,	-9.10845	,	1
10,43	,	108352	,	-18857	,	-15687	,	-13.296312	,	0
10,43	,	108384	,	-18857	,	-15679	,	-16.59876	,	0
10,43	,	108400	,	-18875	,	-15685	,	-19.072813	,	0
10,43	,	108416	,	-18882	,	-15683	,	-20.871834	,	0
10,43	,	108448	,	-18890	,	-15699	,	-22.244621	,	0
10,43	,	108464	,	-18898	,	-15694	,	-23.366129	,	0
10,43	,	108496	,	-18916	,	-15705	,	-24.354553	,	0
10,43	,	108512	,	-18921	,	-15710	,	-25.351566	,	0
10,43	,	108528	,	-18928	,	-15708	,	-26.417381	,	0
10,43	,	108560	,	-18937	,	-15711	,	-27.46089	,	0
10,43	,	108576	,	-18947	,	-15714	,	-28.365498	,	0
10,43	,	108592	,	-18954	,	-15722	,	-29.076658	,	0
10,43	,	108624	,	-18967	,	-15721	,	-29.58636	,	0
10,43	,	108640	,	-18973	,	-15734	,	-29.921982	,	0
10,43	,	108656	,	-18983	,	-15733	,	-30.11496	,	0
10,43	,	108688	,	-18991	,	-15752	,	-30.184189	,	0
10,43	,	108704	,	-18990	,	-15727	,	-30.105291	,	0
10,43	,	108736	,	-18889	,	-15689	,	-29.240044	,	0
10,43	,	108752	,	-18862	,	-15677	,	-25.795744	,	0
10,43	,	108768	,	-18843	,	-15670	,	-17.988796	,	3
10,43	,	108800	,	-18842	,	-15687	,	-5.7684574	,	10
10,43	,	108816	,	-18837	,	-15669	,	9.133269	,	22
10,43	,	108832	,	-18845	,	-15665	,	24.211334	,	36
10,43	,	108864	,	-18830	,	-15669	,	37.129677	,	51
10,43	,	108880	,	-18820	,	-15660	,	46.4396	,	63
10,43	,	108912	,	-18827	,	-15663	,	51.70065	,	72
10,43	,	108928	,	-18823	,	-15671	,	53.041042	,	77
10,43	,	108944	,	-18846	,	-15668	,	50.79898	,	78
10,43	,	108976	,	-18852	,	-15678	,	45.38631	,	75
10,43	,	108992	,	-18852	,	-15674	,	37.386925	,	68
10,43	,	109008	,	-18853	,	-15677	,	27.757761	,	56
10,43	,	109040	,	-18854	,	-15678	,	17.692348	,	42
10,43	,	109056	,	-18865	,	-15680	,	8.243916	,	27
10,43	,	109088	,	-18863	,	-15685	,	0.091851234	,	15
10,43	,	109104	,	-18874	,	-15677	,	-6.4412117	,	6
10,43	,	109120	,	-18879	,	-15685	,	-11.319471	,	1
10,44	,	109152	,	-18887	,	-15686	,	-14.734184	,	0
10,44	,	109168	,	-18897	,	-15695	,	-16.995085	,	0
10,44	,	109184	,	-18908	,	-15693	,	-18.474228	,	0
10,44	,	109216	,	-18915	,	-15703	,	-19.549711	,	0
10,44	,	109232	,	-18935	,	-15708	,	-20.550167	,	0
10,44	,	109248	,	-18944	,	-15714	,	-21.767097	,	0
10,44	,	109280	,	-18949	,	-15716	,	-23.35166	,	0
10,44	,	109296	,	-18965	,	-15721	,	-25.224981	,	0
10,44	,	109328	,	-18963	,	-15717	,	-27.173904	,	0
10,44	,	109344	,	-18968	,	-15721	,	-28.877224	,	0
10,44	,	109360	,	-18988	,	-15729	,	-30.036053	,	0
10,44	,	109392	,	-18992	,	-15733	,	-30.635307	,	0
10,44	,	109408	,	-18994	,	-15743	,	-30.807686	,	0
10,44	,	109424	,	-19008	,	-15755	,	-30.600605	,	0
10,44	,	109456	,	-18989	,	-15729	,	-29.958813	,	0
10,44	,	109472	,	-18895	,	-15686	,	-28.183662	,	0
10,44	,	109504	,	-18863	,	-15683	,	-23.498962	,	1
10,44	,	109519	,	-18862	,	-15688	,	-14.378639	,	5
10,44	,	109536	,	-18853	,	-15674	,	-1.2035055	,	14
10,44	,	109568	,	-18852	,	-15675	,	13.99197	,	27
10,44	,	109584	,	-18856	,	-15672	,	28.70665	,	42
10,44	,	109600	,	-18845	,	-15667	,	40.79123	,	56
10,44	,	109632	,	-18857	,	-15674	,	48.89042	,	68
10,44	,	109648	,	-18840	,	-15671	,	52.527233	,	76
10,44	,	109664	,	-18854	,	-15676	,	51.97682	,	79
10,44	,	109695	,	-18862	,	-15668	,	47.923294	,	78
10,44	,	109711	,	-18867	,	-15673	,	41.12951	,	74
10,44	,	109744	,	-18862	,	-15677	,	32.499275	,	65
10,44	,	109760	,	-18867	,	-15674	,	23.12863	,	52
10,44	,	109776	,	-18874	,	-15675	,	14.024855	,	37
10,44	,	109808	,	-18876	,	-15672	,	5.8625116	,	23
10,44	,	109824	,	-18879	,	-15677	,	-0.96888065	,	11
10,44	,	109839	,	-18887	,	-15689	,	-6.2865534	,	3
10,44	,	109871	,	-18894	,	-15690	,	-10.1519165	,	0
10,44	,	109887	,	-18899	,	-15688	,	-12.822951	,	0
10,44	,	109920	,	-18920	,	-15703	,	-14.677887	,	0
10,44	,	109936	,	-18918	,	-15695	,	-16.156021	,	0
10,44	,	109952	,	-18929	,	-15703	,	-17.551208	,	0
10,44	,	109984	,	-18940	,	-15714	,	-18.944592	,	0
10,44	,	110000	,	-18955	,	-15713	,	-20.407146	,	0
10,44	,	110016	,	-18958	,	-15724	,	-22.027866	,	0
10,44	,	110047	,	-18968	,	-15717	,	-23.758541	,	0
10,44	,	110064	,	-18975	,	-15720	,	-25.424416	,	0
10,44	,	110096	,	-18983	,	-15732	,	-26.853626	,	0
10,44	,	110112	,	-18992	,	-15738	,	-27.93982	,	0
10,44	,	110127	,	-18998	,	-15740	,	-28.644028	,	0
10,45	,	110159	,	-18968	,	-15714	,	-28.783886	,	0
10,45	,	110175	,	-18923	,	-15697	,	-27.606365	,	0
10,45	,	110191	,	-18883	,	-15681	,	-23.79596	,	1
10,45	,	110224	,	-18852	,	-15667	,	-16.21036	,	4
10,45	,	110240	,	-18852	,	-15662	,	-4.7535696	,	11
10,45	,	110256	,	-18845	,	-15661	,	9.291422	,	22
10,45	,	110287	,	-18834	,	-15673	,	23.818584	,	36
10,45	,	110303	,	-18830	,	-15676	,	36.829742	,	50
10,45	,	110335	,	-18834	,	-15662	,	46.85721	,	63
10,45	,	110351	,	-18830	,	-15676	,	52.988785	,	73
10,45	,	110368	,	-18823	,	-15660	,	54.984825	,	79
10,45	,	110400	,	-18840	,	-15657	,	53.224876	,	79
10,45	,	110416	,	-18843	,	-15679	,	48.320396	,	76
10,45	,	110432	,	-18838	,	-15701	,	40.991646	,	69
10,45	,	110464	,	-18846	,	-15659	,	32.19497	,	58
10,45	,	110479	,	-18851	,	-15673	,	22.933908	,	44
10,45	,	110511	,	-18853	,	-15678	,	14.004627	,	30
10,45	,	110527	,	-18864	,	-15671	,	5.9540977	,	17
10,45	,	110543	,	-18866	,	-15672	,	-0.92836285	,	7
10,45	,	110576	,	-18873	,	-15674	,	-6.546819	,	1
10,45	,	110591	,	-18882	,	-15687	,	-10.918716	,	0
10,45	,	110607	,	-18886	,	-15679	,	-14.172522	,	0
10,45	,	110639	,	-18893	,	-15693	,	-16.489233	,	0
10,45	,	110655	,	-18912	,	-15703	,	-18.101742	,	0
10,45	,	110671	,	-18910	,	-15693	,	-19.32253	,	0
10,45	,	110703	,	-18930	,	-15700	,	-20.41793	,	0
10,45	,	110719	,	-18930	,	-15705	,	-21.53664	,	0
10,45	,	110751	,	-18948	,	-15707	,	-22.74448	,	0
10,45	,	110767	,	-18961	,	-15709	,	-24.096619	,	0
10,45	,	110783	,	-18963	,	-15716	,	-25.636204	,	0
10,45	,	110816	,	-18955	,	-15718	,	-27.162262	,	0
10,45	,	110832	,	-18920	,	-15694	,	-27.985321	,	0
10,45	,	110847	,	-18868	,	-15667	,	-26.851307	,	0
10,45	,	110879	,	-18837	,	-15661	,	-22.280796	,	1
10,45	,	110895	,	-18828	,	-15669	,	-13.496109	,	5
10,45	,	110927	,	-18826	,	-15649	,	-1.1729708	,	13
10,45	,	110943	,	-18807	,	-15643	,	12.866367	,	25
10,45	,	110959	,	-18805	,	-15653	,	26.600689	,	39
10,45	,	110991	,	-18796	,	-15656	,	38.391815	,	52
10,45	,	111007	,	-18793	,	-15655	,	47.131493	,	63
10,45	,	111024	,	-18797	,	-15641	,	52.24589	,	71
10,45	,	111055	,	-18802	,	-15648	,	53.572105	,	76
10,45	,	111071	,	-18805	,	-15656	,	51.289078	,	76
10,45	,	111087	,	-18808	,	-15663	,	45.94075	,	72
10,45	,	111119	,	-18805	,	-15655	,	38.39426	,	64
10,45	,	111135	,	-18809	,	-15650	,	29.700172	,	52
10,46	,	111167	,	-18815	,	-15643	,	20.844429	,	38
10,46	,	111183	,	-18814	,	-15651	,	12.559298	,	25
10,46	,	111199	,	-18828	,	-15655	,	5.2943087	,	14
10,46	,	111231	,	-18823	,	-15653	,	-0.7572813	,	6
10,46	,	111247	,	-18837	,	-15655	,	-5.570163	,	1
10,46	,	111263	,	-18843	,	-15665	,	-9.254309	,	0
10,46	,	111295	,	-18862	,	-15657	,	-12.110619	,	0
10,46	,	111311	,	-18862	,	-15669	,	-14.5256405	,	0
10,46	,	111343	,	-18870	,	-15671	,	-16.720646	,	0
10,46	,	111359	,	-18876	,	-15678	,	-18.684391	,	0
10,46	,	111375	,	-18884	,	-15686	,	-20.335464	,	0
10,46	,	111407	,	-18896	,	-15684	,	-21.658144	,	0
10,46	,	111423	,	-18903	,	-15693	,	-22.730179	,	0
10,46	,	111439	,	-18921	,	-15697	,	-23.697605	,	0
10,46	,	111471	,	-18922	,	-15693	,	-24.701302	,	0
10,46	,	111487	,	-18871	,	-15683	,	-25.465061	,	0
10,46	,	111519	,	-18825	,	-15653	,	-24.771755	,	0
10,46	,	111535	,	-18808	,	-15643	,	-20.967308	,	0
10,46	,	111551	,	-18792	,	-15638	,	-13.260718	,	3
10,46	,	111583	,	-18782	,	-15630	,	-2.2432737	,	10
10,46	,	111599	,	-18768	,	-15624	,	10.606745	,	21
10,46	,	111615	,	-18762	,	-15629	,	23.573128	,	33
10,46	,	111647	,	-18766	,	-15650	,	35.051678	,	45
10,46	,	111663	,	-18756	,	-15615	,	43.75127	,	56
10,46	,	111679	,	-18745	,	-15615	,	49.00365	,	64
10,46	,	111711	,	-18746	,	-15631	,	50.864174	,	69
10,46	,	111727	,	-18750	,	-15623	,	49.760777	,	70
10,46	,	111759	,	-18758	,	-15621	,	46.15029	,	67
10,46	,	111775	,	-18753	,	-15631	,	40.520836	,	60
10,46	,	111791	,	-18758	,	-15634	,	33.520927	,	49
10,46	,	111823	,	-18761	,	-15639	,	25.890518	,	37
10,46	,	111839	,	-18763	,	-15628	,	18.279703	,	25
10,46	,	111855	,	-18762	,	-15634	,	11.211802	,	14
10,46	,	111887	,	-18788	,	-15655	,	4.996831	,	6
10,46	,	111903	,	-18784	,	-15627	,	-0.39935303	,	1
10,46	,	111935	,	-18801	,	-15646	,	-5.164331	,	0
10,46	,	111951	,	-18805	,	-15651	,	-9.41942	,	0
10,46	,	111967	,	-18814	,	-15646	,	-13.218023	,	0
10,46	,	111999	,	-18817	,	-15646	,	-16.52806	,	0
10,46	,	112015	,	-18828	,	-15655	,	-19.258667	,	0
10,46	,	112031	,	-18838	,	-15662	,	-21.387138	,	0
10,46	,	112063	,	-18849	,	-15659	,	-23.020967	,	0
10,46	,	112079	,	-18855	,	-15663	,	-24.318642	,	0
10,46	,	112095	,	-18861	,	-15677	,	-25.365643	,	0
10,46	,	112127	,	-18866	,	-15692	,	-26.135887	,	0
10,47	,	112143	,	-18863	,	-15652	,	-26.50386	,	0
10,47	,	112175	,	-18775	,	-15648	,	-25.836994	,	0
10,47	,	112191	,	-18763	,	-15613	,	-22.649776	,	0
10,47	,	112207	,	-18745	,	-15604	,	-15.653721	,	3
10,47	,	112238	,	-18737	,	-15620	,	-5.018635	,	9
10,47	,	112255	,	-18725	,	-15626	,	7.839074	,	19
10,47	,	112271	,	-18722	,	-15610	,	21.070992	,	31
10,47	,	112303	,	-18726	,	-15609	,	32.88286	,	44
10,47	,	112319	,	-18715	,	-15608	,	41.855362	,	55
10,47	,	112351	,	-18711	,	-15585	,	47.26044	,	63
10,47	,	112367	,	-18700	,	-15618	,	49.141804	,	68
10,47	,	112383	,	-18699	,	-15589	,	48.068993	,	69
10,47	,	112414	,	-18706	,	-15583	,	44.75734	,	66
10,47	,	112431	,	-18726	,	-15611	,	39.70352	,	60
10,47	,	112447	,	-18711	,	-15604	,	33.217506	,	50
10,47	,	112479	,	-18719	,	-15618	,	25.819605	,	38
10,47	,	112495	,	-18717	,	-15600	,	18.269823	,	25
10,47	,	112511	,	-18721	,	-15616	,	11.238833	,	14
10,47	,	112543	,	-18731	,	-15612	,	5.1233034	,	6
10,47	,	112559	,	-18734	,	-15628	,	0.024015427	,	1
10,47	,	112591	,	-18752	,	-15610	,	-4.1876874	,	0
10,47	,	112607	,	-18753	,	-15635	,	-7.7626524	,	0
10,47	,	112623	,	-18763	,	-15625	,	-10.911743	,	0
10,47	,	112655	,	-18773	,	-15624	,	-13.7294855	,	0
10,47	,	112671	,	-18781	,	-15644	,	-16.279278	,	0
10,47	,	112687	,	-18788	,	-15641	,	-18.599503	,	0
10,47	,	112718	,	-18809	,	-15642	,	-20.723831	,	0
10,47	,	112734	,	-18812	,	-15657	,	-22.755812	,	0
10,47	,	112766	,	-18823	,	-15649	,	-24.759659	,	0
10,47	,	112783	,	-18831	,	-15648	,	-26.66137	,	0
10,47	,	112799	,	-18843	,	-15651	,	-28.348427	,	0
10,47	,	112831	,	-18846	,	-15659	,	-29.733013	,	0
10,47	,	112847	,	-18806	,	-15650	,	-30.483498	,	0
10,47	,	112863	,	-18770	,	-15649	,	-29.628517	,	0
10,47	,	112895	,	-18747	,	-15598	,	-25.86668	,	0
10,47	,	112910	,	-18709	,	-15616	,	-18.399807	,	3
10,47	,	112926	,	-18703	,	-15613	,	-7.3475046	,	10
10,47	,	112958	,	-18689	,	-15589	,	6.2206345	,	21
10,47	,	112975	,	-18684	,	-15603	,	20.549076	,	34
10,47	,	113006	,	-18671	,	-15607	,	33.80471	,	48
10,47	,	113022	,	-18670	,	-15594	,	44.565502	,	61
10,47	,	113038	,	-18662	,	-15597	,	51.967377	,	71
10,47	,	113070	,	-18663	,	-15593	,	55.681484	,	78
10,47	,	113086	,	-18669	,	-15586	,	55.79043	,	81
10,47	,	113103	,	-18681	,	-15608	,	52.587	,	78
10,47	,	113135	,	-18682	,	-15591	,	46.511932	,	71
10,48	,	113151	,	-18674	,	-15607	,	38.31964	,	60
10,48	,	113182	,	-18692	,	-15602	,	29.040861	,	47
10,48	,	113198	,	-18695	,	-15594	,	19.578062	,	33
10,48	,	113214	,	-18696	,	-15609	,	10.561117	,	20
10,48	,	113246	,	-18704	,	-15614	,	2.5035944	,	10
10,48	,	113262	,	-18716	,	-15617	,	-4.273301	,	3
10,48	,	113278	,	-18723	,	-15612	,	-9.749597	,	0
10,48	,	113311	,	-18722	,	-15606	,	-14.032706	,	0
10,48	,	113327	,	-18735	,	-15605	,	-17.197086	,	0
10,48	,	113358	,	-18741	,	-15636	,	-19.368456	,	0
10,48	,	113374	,	-18757	,	-15620	,	-20.811813	,	0
10,48	,	113390	,	-18774	,	-15642	,	-21.918798	,	0
10,48	,	113422	,	-18780	,	-15639	,	-23.100864	,	0
10,48	,	113439	,	-18783	,	-15642	,	-24.530449	,	0
10,48	,	113454	,	-18792	,	-15632	,	-26.046675	,	0
10,48	,	113486	,	-18808	,	-15648	,	-27.424774	,	0
10,48	,	113503	,	-18813	,	-15648	,	-28.598312	,	0
10,48	,	113518	,	-18829	,	-15641	,	-29.595444	,	0
10,48	,	113550	,	-18835	,	-15667	,	-30.45195	,	0
10,48	,	113566	,	-18839	,	-15650	,	-31.15318	,	0
10,48	,	113598	,	-18818	,	-15641	,	-31.449806	,	0
10,48	,	113614	,	-18769	,	-15651	,	-30.560408	,	0
10,48	,	113630	,	-18739	,	-15608	,	-27.183765	,	0
10,48	,	113662	,	-18703	,	-15592	,	-20.17493	,	3
10,48	,	113678	,	-18692	,	-15601	,	-9.307285	,	10
10,48	,	113694	,	-18689	,	-15606	,	4.445469	,	20
10,48	,	113726	,	-18679	,	-15585	,	19.194345	,	33
10,48	,	113742	,	-18673	,	-15587	,	32.88507	,	47
10,48	,	113774	,	-18659	,	-15592	,	43.968163	,	60
10,48	,	113790	,	-18655	,	-15590	,	51.63283	,	71
10,48	,	113806	,	-18659	,	-15597	,	55.647034	,	78
10,48	,	113838	,	-18648	,	-15585	,	56.13598	,	82
10,48	,	113854	,	-18661	,	-15599	,	53.52137	,	79
10,48	,	113870	,	-18663	,	-15572	,	48.363213	,	72
10,48	,	113902	,	-18676	,	-15594	,	41.206104	,	62
10,48	,	113918	,	-18670	,	-15576	,	32.66996	,	49
10,48	,	113934	,	-18672	,	-15604	,	23.570162	,	35
10,48	,	113966	,	-18677	,	-15602	,	14.787817	,	22
10,48	,	113982	,	-18679	,	-15597	,	6.988579	,	11
10,48	,	114014	,	-18693	,	-15610	,	0.48378563	,	4
10,48	,	114030	,	-18692	,	-15605	,	-4.7240386	,	0
10,48	,	114046	,	-18710	,	-15614	,	-8.808228	,	0
10,48	,	114078	,	-18715	,	-15621	,	-12.040534	,	0
10,48	,	114094	,	-18720	,	-15616	,	-14.693001	,	0
10,48	,	114110	,	-18732	,	-15608	,	-16.921217	,	0
10,49	,	114142	,	-18739	,	-15636	,	-18.823027	,	0
10,49	,	114158	,	-18756	,	-15627	,	-20.526402	,	0
10,49	,	114190	,	-18762	,	-15620	,	-22.181496	,	0
10,49	,	114206	,	-18780	,	-15646	,	-23.90953	,	0
10,49	,	114222	,	-18784	,	-15658	,	-25.755268	,	0
10,49	,	114254	,	-18788	,	-15626	,	-27.614624	,	0
10,49	,	114270	,	-18799	,	-15647	,	-29.237442	,	0
10,49	,	114286	,	-18808	,	-15662	,	-30.420528	,	0
10,49	,	114318	,	-18818	,	-15642	,	-31.12671	,	0
10,49	,	114334	,	-18833	,	-15651	,	-31.455189	,	0
10,49	,	114350	,	-18838	,	-15656	,	-31.579288	,	0
10,49	,	114382	,	-18843	,	-15662	,	-31.597902	,	0
10,49	,	114398	,	-18794	,	-15632	,	-31.192635	,	0
10,49	,	114430	,	-18744	,	-15633	,	-29.222576	,	0
10,49	,	114446	,	-18734	,	-15626	,	-24.161572	,	1
10,49	,	114462	,	-18711	,	-15607	,	-15.336725	,	6
10,49	,	114494	,	-18706	,	-15604	,	-3.4170113	,	14
10,49	,	114510	,	-18695	,	-15618	,	10.068143	,	25
10,49	,	114526	,	-18689	,	-15610	,	23.336178	,	38
10,49	,	114558	,	-18686	,	-15601	,	34.80526	,	51
10,49	,	114574	,	-18674	,	-15589	,	43.375053	,	62
10,49	,	114606	,	-18666	,	-15602	,	48.59808	,	70
10,49	,	114622	,	-18665	,	-15573	,	50.611588	,	75
10,49	,	114638	,	-18675	,	-15595	,	49.7715	,	76
10,49	,	114670	,	-18680	,	-15597	,	46.39003	,	71
10,49	,	114686	,	-18688	,	-15598	,	40.80365	,	63
10,49	,	114702	,	-18684	,	-15607	,	33.540836	,	52
10,49	,	114734	,	-18683	,	-15609	,	25.38415	,	39
10,49	,	114750	,	-18687	,	-15585	,	17.227896	,	26
10,49	,	114766	,	-18692	,	-15590	,	9.78174	,	15
10,49	,	114798	,	-18693	,	-15612	,	3.4378166	,	7
10,49	,	114814	,	-18709	,	-15609	,	-1.6927948	,	2
10,49	,	114846	,	-18719	,	-15644	,	-5.7917495	,	0
10,49	,	114862	,	-18723	,	-15601	,	-9.207661	,	0
10,49	,	114878	,	-18746	,	-15623	,	-12.255365	,	0
10,49	,	114910	,	-18748	,	-15627	,	-15.194738	,	0
10,49	,	114926	,	-18759	,	-15624	,	-18.150604	,	0
10,49	,	114942	,	-18764	,	-15639	,	-21.023623	,	0
10,49	,	114973	,	-18772	,	-15638	,	-23.601229	,	0
10,49	,	114990	,	-18788	,	-15643	,	-25.729958	,	0
10,49	,	115021	,	-18790	,	-15663	,	-27.394741	,	0
10,49	,	115038	,	-18798	,	-15646	,	-28.608864	,	0
10,49	,	115054	,	-18811	,	-15662	,	-29.361622	,	0
10,49	,	115086	,	-18817	,	-15659	,	-29.721233	,	0
10,49	,	115102	,	-18826	,	-15670	,	-29.805426	,	0
10,49	,	115118	,	-18834	,	-15660	,	-29.69686	,	0
10,50	,	115149	,	-18860	,	-15669	,	-29.540302	,	0
10,50	,	115165	,	-18861	,	-15666	,	-29.598846	,	0
10,50	,	115181	,	-18875	,	-15680	,	-30.03592	,	0
10,50	,	115213	,	-18867	,	-15680	,	-30.714428	,	0
10,50	,	115230	,	-18835	,	-15662	,	-31.05119	,	0
10,50	,	115262	,	-18784	,	-15634	,	-29.829079	,	0
10,50	,	115278	,	-18766	,	-15631	,	-25.55597	,	1
10,50	,	115294	,	-18751	,	-15633	,	-17.462463	,	5
10,50	,	115326	,	-18735	,	-15632	,	-6.0493374	,	13
10,50	,	115342	,	-18731	,	-15618	,	7.263996	,	24
10,50	,	115358	,	-18729	,	-15601	,	20.6732	,	37
10,50	,	115389	,	-18717	,	-15620	,	32.453777	,	50
10,50	,	115406	,	-18715	,	-15603	,	41.409657	,	61
10,50	,	115437	,	-18699	,	-15625	,	47.04441	,	69
10,50	,	115453	,	-18725	,	-15632	,	49.34201	,	74
10,50	,	115469	,	-18725	,	-15627	,	48.3797	,	75
10,50	,	115501	,	-18730	,	-15633	,	44.33635	,	71
10,50	,	115518	,	-18721	,	-15622	,	37.82257	,	63
10,50	,	115533	,	-18724	,	-15622	,	29.869318	,	52
10,50	,	115566	,	-18730	,	-15611	,	21.549295	,	39
10,50	,	115582	,	-18736	,	-15623	,	13.642406	,	26
10,50	,	115613	,	-18738	,	-15616	,	6.596798	,	15
10,50	,	115630	,	-18754	,	-15619	,	0.60076714	,	7
10,50	,	115646	,	-18761	,	-15651	,	-4.4238906	,	2
10,50	,	115678	,	-18783	,	-15626	,	-8.765303	,	0
10,50	,	115694	,	-18779	,	-15644	,	-12.726245	,	0
10,50	,	115710	,	-18788	,	-15648	,	-16.376154	,	0
10,50	,	115741	,	-18805	,	-15644	,	-19.598995	,	0
10,50	,	115757	,	-18810	,	-15651	,	-22.370522	,	0
10,50	,	115773	,	-18820	,	-15653	,	-24.741283	,	0
10,50	,	115806	,	-18823	,	-15672	,	-26.679087	,	0
10,50	,	115822	,	-18831	,	-15660	,	-28.077736	,	0
10,50	,	115853	,	-18846	,	-15645	,	-28.88891	,	0
10,50	,	115870	,	-18860	,	-15667	,	-29.269817	,	0
10,50	,	115885	,	-18869	,	-15664	,	-29.519138	,	0
10,50	,	115917	,	-18873	,	-15679	,	-29.829184	,	0
10,50	,	115933	,	-18887	,	-15680	,	-30.196081	,	0
10,50	,	115950	,	-18891	,	-15679	,	-30.541132	,	0
10,50	,	115982	,	-18903	,	-15685	,	-30.794405	,	0
10,50	,	115997	,	-18904	,	-15689	,	-30.882269	,	0
10,50	,	116029	,	-18912	,	-15694	,	-30.706013	,	0
10,50	,	116045	,	-18902	,	-15688	,	-30.106407	,	0
10,50	,	116061	,	-18861	,	-15662	,	-28.63435	,	0
10,50	,	116093	,	-18814	,	-15656	,	-25.271477	,	1
10,50	,	116109	,	-18787	,	-15640	,	-18.783604	,	4
10,50	,	116126	,	-18776	,	-15624	,	-8.672128	,	10
10,51	,	116157	,	-18767	,	-15636	,	4.279133	,	20
10,51	,	116173	,	-18768	,	-15645	,	18.312738	,	32
10,51	,	116189	,	-18760	,	-15629	,	31.404964	,	46
10,51	,	116221	,	-18752	,	-15619	,	41.927032	,	59
10,51	,	116237	,	-18756	,	-15632	,	48.949684	,	69
10,51	,	116269	,	-18750	,	-15634	,	52.158287	,	76
10,51	,	116285	,	-18765	,	-15625	,	51.67936	,	78
10,51	,	116301	,	-18770	,	-15638	,	47.89674	,	75
10,51	,	116333	,	-18769	,	-15637	,	41.40046	,	69
10,51	,	116349	,	-18779	,	-15628	,	33.03968	,	59
10,51	,	116365	,	-18784	,	-15630	,	23.751158	,	47
10,51	,	116397	,	-18785	,	-15627	,	14.37952	,	33
10,51	,	116413	,	-18788	,	-15628	,	5.6768074	,	20
10,51	,	116445	,	-18790	,	-15640	,	-1.7517376	,	10
10,51	,	116461	,	-18806	,	-15639	,	-7.6036997	,	3
10,51	,	116477	,	-18817	,	-15663	,	-11.989983	,	0
10,51	,	116509	,	-18825	,	-15673	,	-15.29826	,	0
10,51	,	116525	,	-18841	,	-15663	,	-17.936619	,	0
10,51	,	116541	,	-18849	,	-15663	,	-20.240627	,	0
10,51	,	116573	,	-18856	,	-15680	,	-22.411533	,	0
10,51	,	116589	,	-18855	,	-15658	,	-24.403973	,	0
10,51	,	116605	,	-18880	,	-15671	,	-26.048847	,	0
10,51	,	116637	,	-18890	,	-15682	,	-27.376593	,	0
10,51	,	116653	,	-18906	,	-15683	,	-28.641554	,	0
10,51	,	116685	,	-18912	,	-15688	,	-30.040888	,	0
10,51	,	116701	,	-18922	,	-15689	,	-31.551334	,	0
10,51	,	116717	,	-18936	,	-15702	,	-33.013374	,	0
10,51	,	116749	,	-18928	,	-15705	,	-34.218777	,	0
10,51	,	116765	,	-18948	,	-15702	,	-34.908863	,	0
10,51	,	116781	,	-18950	,	-15710	,	-34.938435	,	0
10,51	,	116813	,	-18958	,	-15726	,	-34.361492	,	0
10,51	,	116829	,	-18966	,	-15717	,	-33.29214	,	0
10,51	,	116861	,	-18948	,	-15717	,	-31.75479	,	1
10,51	,	116877	,	-18852	,	-15670	,	-29.090118	,	2
10,51	,	116893	,	-18827	,	-15658	,	-23.59217	,	4
10,51	,	116925	,	-18810	,	-15645	,	-13.798724	,	9
10,51	,	116941	,	-18814	,	-15646	,	-0.0498209	,	18
10,51	,	116957	,	-18807	,	-15646	,	15.644762	,	31
10,51	,	116989	,	-18803	,	-15646	,	30.76694	,	46
10,51	,	117005	,	-18801	,	-15655	,	43.22149	,	61
10,51	,	117021	,	-18800	,	-15641	,	51.700462	,	73
10,51	,	117053	,	-18794	,	-15646	,	55.723045	,	80
10,51	,	117069	,	-18813	,	-15667	,	55.46055	,	83
10,51	,	117101	,	-18811	,	-15657	,	51.41774	,	81
10,51	,	117117	,	-18823	,	-15641	,	44.32225	,	76
10,51	,	117133	,	-18823	,	-15647	,	35.124146	,	67
10,52	,	117165	,	-18830	,	-15656	,	24.882364	,	54
10,52	,	117181	,	-18828	,	-15667	,	14.64127	,	39
10,52	,	117197	,	-18837	,	-15659	,	5.293173	,	24
10,52	,	117229	,	-18843	,	-15647	,	-2.588046	,	12
10,52	,	117245	,	-18837	,	-15656	,	-8.736084	,	4
10,52	,	117277	,	-18853	,	-15677	,	-13.077025	,	0
10,52	,	117293	,	-18862	,	-15671	,	-15.813337	,	0
10,52	,	117309	,	-18867	,	-15679	,	-17.41051	,	0
10,52	,	117341	,	-18879	,	-15683	,	-18.341412	,	0
10,52	,	117357	,	-18892	,	-15677	,	-19.007776	,	0
10,52	,	117373	,	-18906	,	-15683	,	-19.79178	,	0
10,52	,	117405	,	-18904	,	-15694	,	-20.930805	,	0
10,52	,	117421	,	-18914	,	-15694	,	-22.352757	,	0
10,52	,	117437	,	-18920	,	-15697	,	-23.79026	,	0
10,52	,	117469	,	-18938	,	-15697	,	-25.06538	,	0
10,52	,	117485	,	-18939	,	-15705	,	-26.170692	,	0
10,52	,	117517	,	-18949	,	-15704	,	-27.105618	,	0
10,52	,	117533	,	-18970	,	-15711	,	-27.86586	,	0
10,52	,	117549	,	-18974	,	-15736	,	-28.5801	,	0
10,52	,	117581	,	-18981	,	-15715	,	-29.356441	,	0
10,52	,	117597	,	-18935	,	-15700	,	-29.85072	,	0
10,52	,	117613	,	-18876	,	-15691	,	-28.835506	,	0
10,52	,	117645	,	-18857	,	-15672	,	-24.549887	,	1
10,52	,	117661	,	-18849	,	-15657	,	-16.057304	,	5
10,52	,	117693	,	-18835	,	-15671	,	-4.026987	,	13
10,52	,	117709	,	-18832	,	-15659	,	9.803514	,	25
10,52	,	117725	,	-18832	,	-15662	,	23.402649	,	38
10,52	,	117757	,	-18826	,	-15649	,	34.94337	,	51
10,52	,	117773	,	-18825	,	-15664	,	43.18715	,	62
10,52	,	117789	,	-18826	,	-15659	,	47.600628	,	70
10,52	,	117821	,	-18832	,	-15658	,	48.193947	,	74
10,52	,	117837	,	-18843	,	-15668	,	45.30819	,	73
10,52	,	117869	,	-18847	,	-15677	,	39.500977	,	69
10,52	,	117885	,	-18843	,	-15660	,	31.59457	,	61
10,52	,	117900	,	-18849	,	-15662	,	22.661749	,	49
10,52	,	117933	,	-18848	,	-15669	,	13.772306	,	36
10,52	,	117949	,	-18854	,	-15676	,	5.7525053	,	23
10,52	,	117965	,	-18856	,	-15664	,	-0.89616966	,	12
10,52	,	117997	,	-18865	,	-15679	,	-6.0001006	,	4
10,52	,	118012	,	-18877	,	-15677	,	-9.696295	,	0
10,52	,	118029	,	-18883	,	-15686	,	-12.352731	,	0
10,52	,	118061	,	-18890	,	-15684	,	-14.361853	,	0
10,52	,	118077	,	-18910	,	-15682	,	-16.04854	,	0
10,52	,	118109	,	-18919	,	-15689	,	-17.744741	,	0
10,52	,	118125	,	-18923	,	-15699	,	-19.67304	,	0
10,53	,	118141	,	-18939	,	-15707	,	-21.808975	,	0
10,53	,	118172	,	-18948	,	-15704	,	-24.03191	,	0
10,53	,	118188	,	-18947	,	-15712	,	-26.189402	,	0
10,53	,	118205	,	-18952	,	-15715	,	-27.982761	,	0
10,53	,	118237	,	-18966	,	-15712	,	-29.112484	,	0
10,53	,	118253	,	-18961	,	-15726	,	-29.485569	,	0
10,53	,	118284	,	-18976	,	-15727	,	-29.147537	,	0
10,53	,	118300	,	-18978	,	-15730	,	-28.227394	,	0
10,53	,	118316	,	-18929	,	-15697	,	-26.66102	,	0
10,53	,	118349	,	-18852	,	-15666	,	-23.467556	,	1
10,53	,	118365	,	-18843	,	-15664	,	-16.95822	,	4
10,53	,	118380	,	-18841	,	-15678	,	-6.3899317	,	10
10,53	,	118412	,	-18836	,	-15671	,	7.091774	,	20
10,53	,	118429	,	-18825	,	-15674	,	21.297441	,	33
10,53	,	118445	,	-18818	,	-15643	,	34.173077	,	47
10,53	,	118477	,	-18820	,	-15661	,	44.26319	,	59
10,53	,	118493	,	-18819	,	-15646	,	50.6898	,	69
10,53	,	118525	,	-18814	,	-15655	,	53.147697	,	75
10,53	,	118540	,	-18832	,	-15672	,	51.857124	,	76
10,53	,	118556	,	-18833	,	-15653	,	47.302326	,	73
10,53	,	118589	,	-18837	,	-15651	,	40.14717	,	67
10,53	,	118604	,	-18836	,	-15660	,	31.323236	,	57
10,53	,	118620	,	-18832	,	-15672	,	21.941101	,	44
10,53	,	118652	,	-18846	,	-15660	,	13.015558	,	30
10,53	,	118669	,	-18844	,	-15657	,	5.1932297	,	18
10,53	,	118701	,	-18853	,	-15667	,	-1.2486238	,	8
10,53	,	118716	,	-18866	,	-15665	,	-6.3040304	,	2
10,53	,	118733	,	-18873	,	-15679	,	-10.218426	,	0
10,53	,	118764	,	-18875	,	-15676	,	-13.30191	,	0
10,53	,	118780	,	-18885	,	-15682	,	-15.732662	,	0
10,53	,	118796	,	-18892	,	-15682	,	-17.609875	,	0
10,53	,	118829	,	-18910	,	-15689	,	-19.099215	,	0
10,53	,	118845	,	-18915	,	-15694	,	-20.45356	,	0
10,53	,	118861	,	-18933	,	-15698	,	-21.897995	,	0
10,53	,	118892	,	-18933	,	-15694	,	-23.524004	,	0
10,53	,	118908	,	-18941	,	-15710	,	-25.222523	,	0
10,53	,	118941	,	-18954	,	-15708	,	-26.765265	,	0
10,53	,	118957	,	-18961	,	-15709	,	-28.019073	,	0
10,53	,	118973	,	-18930	,	-15693	,	-28.781712	,	0
10,53	,	119004	,	-18878	,	-15673	,	-28.220499	,	0
10,53	,	119020	,	-18841	,	-15656	,	-24.846178	,	0
10,53	,	119036	,	-18829	,	-15661	,	-17.489676	,	3
10,53	,	119068	,	-18814	,	-15641	,	-6.279846	,	10
10,53	,	119084	,	-18803	,	-15634	,	7.41712	,	21
10,53	,	119116	,	-18806	,	-15632	,	21.662868	,	34
10,53	,	119132	,	-18795	,	-15649	,	34.50884	,	48
10,54	,	119148	,	-18798	,	-15637	,	44.43411	,	60
10,54	,	119180	,	-18799	,	-15654	,	50.550587	,	69
10,54	,	119196	,	-18800	,	-15643	,	52.572	,	75
10,54	,	119212	,	-18799	,	-15637	,	50.777	,	77
10,54	,	119244	,	-18810	,	-15647	,	45.860714	,	74
10,54	,	119260	,	-18810	,	-15655	,	38.678528	,	67
10,54	,	119276	,	-18798	,	-15655	,	30.207756	,	56
10,54	,	119308	,	-18810	,	-15643	,	21.535572	,	43
10,54	,	119324	,	-18808	,	-15652	,	13.5466385	,	29
10,54	,	119356	,	-18817	,	-15658	,	6.7119074	,	17
10,54	,	119372	,	-18824	,	-15647	,	1.1457548	,	8
10,54	,	119388	,	-18824	,	-15670	,	-3.2580404	,	2
10,54	,	119420	,	-18843	,	-15653	,	-6.697034	,	0
10,54	,	119436	,	-18852	,	-15674	,	-9.493016	,	0
10,54	,	119452	,	-18856	,	-15673	,	-12.020505	,	0
10,54	,	119484	,	-18863	,	-15667	,	-14.455423	,	0
10,54	,	119500	,	-18875	,	-15678	,	-16.78071	,	0
10,54	,	119532	,	-18887	,	-15699	,	-18.98647	,	0
10,54	,	119548	,	-18892	,	-15675	,	-21.100986	,	0
10,54	,	119564	,	-18914	,	-15694	,	-23.150497	,	0
10,54	,	119596	,	-18915	,	-15690	,	-25.180923	,	0
10,54	,	119612	,	-18913	,	-15681	,	-27.09665	,	0
10,54	,	119628	,	-18870	,	-15669	,	-28.313469	,	0
10,54	,	119660	,	-18819	,	-15642	,	-27.548906	,	0
10,54	,	119676	,	-18790	,	-15638	,	-23.224575	,	0
10,54	,	119708	,	-18781	,	-15640	,	-14.538514	,	4
10,54	,	119724	,	-18774	,	-15629	,	-2.187317	,	12
10,54	,	119740	,	-18762	,	-15645	,	12.006095	,	24
10,54	,	119772	,	-18759	,	-15636	,	25.95833	,	38
10,54	,	119788	,	-18750	,	-15625	,	37.91101	,	51
10,54	,	119804	,	-18759	,	-15628	,	46.6362	,	62
10,54	,	119836	,	-18752	,	-15618	,	51.4606	,	70
10,54	,	119852	,	-18747	,	-15612	,	52.335804	,	74
10,54	,	119868	,	-18758	,	-15624	,	49.778126	,	74
10,54	,	119900	,	-18758	,	-15644	,	44.52114	,	70
10,54	,	119916	,	-18767	,	-15639	,	37.31308	,	62
10,54	,	119948	,	-18761	,	-15620	,	28.96273	,	50
10,54	,	119964	,	-18758	,	-15635	,	20.3816	,	36
10,54	,	119980	,	-18763	,	-15623	,	12.45911	,	23
10,54	,	120012	,	-18768	,	-15650	,	5.784749	,	12
10,54	,	120028	,	-18776	,	-15639	,	0.5201855	,	4
10,54	,	120044	,	-18780	,	-15625	,	-3.484662	,	0
10,54	,	120076	,	-18802	,	-15652	,	-6.580594	,	0
10,54	,	120092	,	-18815	,	-15642	,	-9.292932	,	0
10,54	,	120124	,	-18824	,	-15665	,	-12.134038	,	0
10,55	,	120140	,	-18829	,	-15649	,	-15.303684	,	0
10,55	,	120156	,	-18836	,	-15655	,	-18.634777	,	0
10,55	,	120188	,	-18838	,	-15658	,	-21.75969	,	0
10,55	,	120204	,	-18856	,	-15660	,	-24.34387	,	0
10,55	,	120220	,	-18867	,	-15662	,	-26.310883	,	0
10,55	,	120252	,	-18868	,	-15680	,	-27.775307	,	0
10,55	,	120268	,	-18874	,	-15689	,	-28.764118	,	0
10,55	,	120284	,	-18838	,	-15651	,	-28.998278	,	0
10,55	,	120316	,	-18769	,	-15623	,	-27.513702	,	0
10,55	,	120332	,	-18744	,	-15622	,	-22.718742	,	1
10,55	,	120364	,	-18736	,	-15618	,	-13.621066	,	5
10,55	,	120380	,	-18736	,	-15601	,	-0.89942837	,	14
10,55	,	120396	,	-18719	,	-15606	,	13.491448	,	26
10,55	,	120428	,	-18720	,	-15598	,	27.391819	,	40
10,55	,	120444	,	-18720	,	-15621	,	39.020546	,	53
10,55	,	120460	,	-18713	,	-15614	,	47.15358	,	64
10,55	,	120492	,	-18705	,	-15616	,	51.323563	,	72
10,55	,	120508	,	-18704	,	-15619	,	51.804817	,	76
10,55	,	120540	,	-18703	,	-15596	,	49.276733	,	75
10,55	,	120556	,	-18724	,	-15619	,	44.428112	,	71
10,55	,	120572	,	-18722	,	-15607	,	37.76443	,	62
10,55	,	120604	,	-18721	,	-15607	,	29.821398	,	50
10,55	,	120620	,	-18726	,	-15619	,	21.362265	,	36
10,55	,	120636	,	-18728	,	-15606	,	13.168612	,	23
10,55	,	120668	,	-18742	,	-15628	,	5.774372	,	12
10,55	,	120684	,	-18745	,	-15618	,	-0.60038567	,	4
10,55	,	120700	,	-18751	,	-15618	,	-5.9275737	,	0
10,55	,	120732	,	-18762	,	-15624	,	-10.247677	,	0
10,55	,	120748	,	-18775	,	-15650	,	-13.716267	,	0
10,55	,	120780	,	-18784	,	-15623	,	-16.604233	,	0
10,55	,	120796	,	-18787	,	-15657	,	-19.119122	,	0
10,55	,	120812	,	-18804	,	-15656	,	-21.320786	,	0
10,55	,	120843	,	-18816	,	-15654	,	-23.276834	,	0
10,55	,	120860	,	-18818	,	-15648	,	-25.088459	,	0
10,55	,	120875	,	-18832	,	-15656	,	-26.73693	,	0
10,55	,	120907	,	-18841	,	-15656	,	-28.14214	,	0
10,55	,	120923	,	-18849	,	-15668	,	-29.280504	,	0
10,55	,	120956	,	-18865	,	-15665	,	-30.179607	,	0
10,55	,	120972	,	-18835	,	-15658	,	-30.750322	,	0
10,55	,	120988	,	-18790	,	-15646	,	-30.3005	,	0
10,55	,	121020	,	-18746	,	-15622	,	-27.395401	,	0
10,55	,	121036	,	-18728	,	-15616	,	-20.689762	,	2
10,55	,	121051	,	-18713	,	-15619	,	-9.958173	,	8
10,55	,	121083	,	-18708	,	-15590	,	3.6720476	,	18
10,55	,	121099	,	-18689	,	-15587	,	18.313292	,	31
10,55	,	121131	,	-18677	,	-15588	,	32.132935	,	45
10,56	,	121147	,	-18675	,	-15602	,	43.76127	,	58
10,56	,	121163	,	-18672	,	-15584	,	52.247555	,	69
10,56	,	121196	,	-18671	,	-15597	,	57.03238	,	77
10,56	,	121211	,	-18679	,	-15604	,	57.975754	,	81
10,56	,	121228	,	-18681	,	-15599	,	55.28199	,	79
10,56	,	121259	,	-18698	,	-15600	,	49.412853	,	73
10,56	,	121275	,	-18696	,	-15599	,	41.041107	,	63
10,56	,	121291	,	-18692	,	-15610	,	31.122314	,	50
10,56	,	121323	,	-18705	,	-15610	,	20.815859	,	36
10,56	,	121339	,	-18705	,	-15597	,	11.093182	,	23
10,56	,	121372	,	-18712	,	-15608	,	2.5591745	,	12
10,56	,	121388	,	-18711	,	-15597	,	-4.4263983	,	4
10,56	,	121403	,	-18729	,	-15599	,	-9.737635	,	0
10,56	,	121435	,	-18736	,	-15620	,	-13.572863	,	0
10,56	,	121451	,	-18742	,	-15617	,	-16.326096	,	0
10,56	,	121467	,	-18756	,	-15617	,	-18.354006	,	0
10,56	,	121499	,	-18759	,	-15629	,	-19.929466	,	0
10,56	,	121515	,	-18780	,	-15626	,	-21.278622	,	0
10,56	,	121547	,	-18792	,	-15638	,	-22.649689	,	0
10,56	,	121563	,	-18801	,	-15638	,	-24.274158	,	0
10,56	,	121579	,	-18808	,	-15643	,	-26.177246	,	0
10,56	,	121611	,	-18808	,	-15646	,	-28.11924	,	0
10,56	,	121627	,	-18824	,	-15646	,	-29.749973	,	0
10,56	,	121643	,	-18829	,	-15667	,	-30.851685	,	0
10,56	,	121675	,	-18840	,	-15677	,	-31.413761	,	0
10,56	,	121691	,	-18829	,	-15651	,	-31.440016	,	0
10,56	,	121707	,	-18787	,	-15643	,	-30.554295	,	0
10,56	,	121739	,	-18745	,	-15632	,	-27.724033	,	0
10,56	,	121755	,	-18731	,	-15607	,	-21.769644	,	2
10,56	,	121787	,	-18714	,	-15602	,	-12.349756	,	7
10,56	,	121803	,	-18698	,	-15609	,	-0.24304676	,	16
10,56	,	121819	,	-18679	,	-15598	,	13.179509	,	28
10,56	,	121851	,	-18676	,	-15600	,	26.451908	,	41
10,56	,	121867	,	-18679	,	-15584	,	38.138027	,	54
10,56	,	121883	,	-18668	,	-15580	,	46.983	,	65
10,56	,	121915	,	-18663	,	-15589	,	52.283638	,	73
10,56	,	121931	,	-18677	,	-15603	,	53.936905	,	78
10,56	,	121963	,	-18683	,	-15601	,	52.09799	,	77
10,56	,	121979	,	-18683	,	-15599	,	47.123924	,	72
10,56	,	121995	,	-18692	,	-15609	,	39.715584	,	63
10,56	,	122027	,	-18682	,	-15600	,	30.835752	,	51
10,56	,	122043	,	-18696	,	-15596	,	21.518398	,	38
10,56	,	122059	,	-18706	,	-15602	,	12.580036	,	25
10,56	,	122091	,	-18704	,	-15597	,	4.4844065	,	14
10,56	,	122107	,	-18718	,	-15600	,	-2.486946	,	6
10,57	,	122139	,	-18721	,	-15615	,	-8.197157	,	1
10,57	,	122155	,	-18738	,	-15608	,	-12.721201	,	0
10,57	,	122171	,	-18736	,	-15623	,	-16.250425	,	0
10,57	,	122203	,	-18745	,	-15631	,	-18.92439	,	0
10,57	,	122219	,	-18768	,	-15627	,	-20.89046	,	0
10,57	,	122235	,	-18768	,	-15628	,	-22.446093	,	0
10,57	,	122267	,	-18776	,	-15631	,	-23.821842	,	0
10,57	,	122283	,	-18785	,	-15639	,	-25.015808	,	0
10,57	,	122299	,	-18803	,	-15637	,	-26.019188	,	0
10,57	,	122331	,	-18810	,	-15644	,	-26.962177	,	0
10,57	,	122347	,	-18820	,	-15645	,	-27.971395	,	0
10,57	,	122379	,	-18831	,	-15651	,	-29.051455	,	0
10,57	,	122395	,	-18837	,	-15664	,	-30.121803	,	0
10,57	,	122411	,	-18851	,	-15664	,	-31.077402	,	0
10,57	,	122443	,	-18852	,	-15655	,	-31.824528	,	0
10,57	,	122459	,	-18856	,	-15661	,	-32.228058	,	0
10,57	,	122475	,	-18830	,	-15681	,	-31.9511	,	0
10,57	,	122507	,	-18791	,	-15622	,	-30.247734	,	0
10,57	,	122523	,	-18737	,	-15629	,	-25.921112	,	1
10,57	,	122555	,	-18731	,	-15634	,	-17.908272	,	5
10,57	,	122571	,	-18726	,	-15622	,	-6.293375	,	13
10,57	,	122587	,	-18717	,	-15603	,	7.4564075	,	24
10,57	,	122619	,	-18709	,	-15615	,	21.321703	,	37
10,57	,	122635	,	-18711	,	-15618	,	33.498333	,	50
10,57	,	122651	,	-18696	,	-15611	,	42.70659	,	62
10,57	,	122683	,	-18694	,	-15588	,	48.379173	,	71
10,57	,	122699	,	-18706	,	-15618	,	50.50879	,	76
10,57	,	122715	,	-18703	,	-15617	,	49.292336	,	77
10,57	,	122747	,	-18712	,	-15614	,	45.113113	,	73
10,57	,	122763	,	-18719	,	-15615	,	38.59462	,	65
10,57	,	122795	,	-18719	,	-15610	,	30.502783	,	54
10,57	,	122811	,	-18732	,	-15630	,	21.65789	,	41
10,57	,	122827	,	-18731	,	-15625	,	12.80629	,	28
10,57	,	122859	,	-18736	,	-15625	,	4.568368	,	16
10,57	,	122875	,	-18739	,	-15614	,	-2.5536928	,	7
10,57	,	122891	,	-18754	,	-15618	,	-8.293459	,	2
10,57	,	122923	,	-18762	,	-15627	,	-12.71454	,	0
10,57	,	122939	,	-18766	,	-15635	,	-16.068747	,	0
10,57	,	122971	,	-18776	,	-15623	,	-18.577393	,	0
10,57	,	122987	,	-18790	,	-15637	,	-20.43956	,	0
10,57	,	123003	,	-18792	,	-15637	,	-21.88441	,	0
10,57	,	123035	,	-18811	,	-15652	,	-23.097261	,	0
10,57	,	123051	,	-18828	,	-15654	,	-24.285015	,	0
10,57	,	123067	,	-18834	,	-15656	,	-25.703651	,	0
10,57	,	123099	,	-18838	,	-15660	,	-27.401531	,	0
10,57	,	123115	,	-18850	,	-15653	,	-29.139061	,	0
10,57	,	123131	,	-18844	,	-15666	,	-30.577568	,	0
10,58	,	123163	,	-18859	,	-15675	,	-31.400475	,	0
10,58	,	123179	,	-18863	,	-15677	,	-31.45339	,	0
10,58	,	123211	,	-18874	,	-15681	,	-30.82895	,	0
10,58	,	123227	,	-18885	,	-15689	,	-29.778725	,	0
10,58	,	123243	,	-18884	,	-15683	,	-28.570057	,	1
10,58	,	123275	,	-18788	,	-15638	,	-26.836933	,	2
10,58	,	123291	,	-18775	,	-15633	,	-23.053013	,	3
10,58	,	123306	,	-18763	,	-15627	,	-15.739351	,	6
10,58	,	123339	,	-18746	,	-15623	,	-4.942439	,	13
10,58	,	123355	,	-18753	,	-15634	,	7.9430895	,	23
10,58	,	123387	,	-18740	,	-15634	,	20.983208	,	35
10,58	,	123403	,	-18745	,	-15615	,	32.347824	,	48
10,58	,	123419	,	-18740	,	-15621	,	40.73448	,	59
10,58	,	123451	,	-18735	,	-15605	,	45.50337	,	66
10,58	,	123467	,	-18736	,	-15643	,	46.677067	,	69
10,58	,	123483	,	-18753	,	-15625	,	44.663696	,	69
10,58	,	123514	,	-18763	,	-15618	,	39.89501	,	66
10,58	,	123530	,	-18749	,	-15622	,	32.91761	,	59
10,58	,	123547	,	-18761	,	-15624	,	24.644815	,	49
10,58	,	123579	,	-18753	,	-15631	,	16.15234	,	37
10,58	,	123595	,	-18762	,	-15629	,	8.330345	,	24
10,58	,	123627	,	-18770	,	-15637	,	1.7096052	,	13
10,58	,	123643	,	-18778	,	-15639	,	-3.5975947	,	5
10,58	,	123658	,	-18777	,	-15655	,	-7.716797	,	1
10,58	,	123690	,	-18794	,	-15635	,	-10.82214	,	0
10,58	,	123706	,	-18800	,	-15652	,	-13.174366	,	0
10,58	,	123722	,	-18813	,	-15655	,	-15.113509	,	0
10,58	,	123755	,	-18823	,	-15658	,	-16.938257	,	0
10,58	,	123771	,	-18830	,	-15652	,	-18.825459	,	0
10,58	,	123803	,	-18838	,	-15661	,	-20.784664	,	0
10,58	,	123819	,	-18851	,	-15669	,	-22.718819	,	0
10,58	,	123835	,	-18869	,	-15675	,	-24.599491	,	0
10,58	,	123866	,	-18869	,	-15685	,	-26.47504	,	0
10,58	,	123882	,	-18874	,	-15677	,	-28.245363	,	0
10,58	,	123898	,	-18885	,	-15690	,	-29.644077	,	0
10,58	,	123930	,	-18897	,	-15692	,	-30.51704	,	0
10,58	,	123946	,	-18910	,	-15692	,	-30.953737	,	0
10,58	,	123978	,	-18918	,	-15702	,	-31.162992	,	0
10,58	,	123994	,	-18923	,	-15701	,	-31.28033	,	0
10,58	,	124010	,	-18912	,	-15687	,	-31.194923	,	0
10,58	,	124042	,	-18863	,	-15663	,	-30.292253	,	0
10,58	,	124059	,	-18819	,	-15659	,	-27.292316	,	0
10,58	,	124075	,	-18796	,	-15639	,	-20.823809	,	2
10,58	,	124106	,	-18795	,	-15639	,	-10.528087	,	8
10,58	,	124122	,	-18790	,	-15649	,	2.4775963	,	18
10,59	,	124138	,	-18784	,	-15640	,	16.196281	,	31
10,59	,	124170	,	-18777	,	-15623	,	28.665598	,	44
10,59	,	124186	,	-18774	,	-15633	,	38.47897	,	56
10,59	,	124219	,	-18770	,	-15644	,	44.887596	,	65
10,59	,	124235	,	-18780	,	-15636	,	47.671803	,	71
10,59	,	124250	,	-18778	,	-15641	,	46.961246	,	73
10,59	,	124282	,	-18786	,	-15640	,	43.18221	,	71
10,59	,	124298	,	-18789	,	-15640	,	37.020554	,	65
10,59	,	124315	,	-18794	,	-15643	,	29.298761	,	55
10,59	,	124346	,	-18801	,	-15644	,	20.842667	,	42
10,59	,	124362	,	-18796	,	-15645	,	12.416666	,	29
10,59	,	124394	,	-18804	,	-15654	,	4.7121916	,	17
10,59	,	124410	,	-18815	,	-15646	,	-1.8084097	,	8
10,59	,	124426	,	-18819	,	-15656	,	-7.0463705	,	2
10,59	,	124458	,	-18826	,	-15659	,	-11.111728	,	0
10,59	,	124474	,	-18834	,	-15649	,	-14.16083	,	0
10,59	,	124490	,	-18850	,	-15676	,	-16.429758	,	0
10,59	,	124522	,	-18860	,	-15669	,	-18.264639	,	0
10,59	,	124538	,	-18869	,	-15672	,	-19.99345	,	0
10,59	,	124554	,	-18882	,	-15678	,	-21.795103	,	0
10,59	,	124586	,	-18893	,	-15684	,	-23.724293	,	0
10,59	,	124602	,	-18894	,	-15695	,	-25.719547	,	0
10,59	,	124634	,	-18908	,	-15687	,	-27.583652	,	0
10,59	,	124650	,	-18908	,	-15696	,	-29.090948	,	0
10,59	,	124666	,	-18916	,	-15699	,	-30.056683	,	0
10,59	,	124698	,	-18926	,	-15705	,	-30.374521	,	0
10,59	,	124714	,	-18929	,	-15699	,	-30.084541	,	0
10,59	,	124730	,	-18943	,	-15710	,	-29.34066	,	0
10,59	,	124762	,	-18971	,	-15717	,	-28.473515	,	0
10,59	,	124778	,	-18960	,	-15712	,	-27.930412	,	0
10,59	,	124810	,	-18924	,	-15688	,	-27.624569	,	0
10,59	,	124826	,	-18863	,	-15670	,	-26.35331	,	0
10,59	,	124842	,	-18839	,	-15662	,	-22.268497	,	1
10,59	,	124874	,	-18828	,	-15652	,	-14.212576	,	5
10,59	,	124890	,	-18814	,	-15653	,	-2.568182	,	13
10,59	,	124906	,	-18819	,	-15649	,	11.0524645	,	24
10,59	,	124938	,	-18811	,	-15649	,	24.548252	,	37
10,59	,	124954	,	-18818	,	-15681	,	35.96749	,	50
10,59	,	124970	,	-18808	,	-15644	,	43.964066	,	61
10,59	,	125002	,	-18814	,	-15653	,	47.976883	,	68
10,59	,	125018	,	-18833	,	-15658	,	48.02607	,	72
10,59	,	125050	,	-18832	,	-15661	,	44.40953	,	71
10,59	,	125066	,	-18828	,	-15665	,	37.807167	,	67
10,59	,	125082	,	-18832	,	-15652	,	29.36361	,	59
10,59	,	125114	,	-18838	,	-15664	,	20.300928	,	48
10,59	,	125130	,	-18836	,	-15660	,	11.58577	,	35
11,0	,	125146	,	-18846	,	-15650	,	3.8912659	,	22
11,0	,	125178	,	-18847	,	-15665	,	-2.4208832	,	11
11,0	,	125194	,	-18863	,	-15678	,	-7.3147326	,	4
11,0	,	125226	,	-18861	,	-15663	,	-10.98606	,	0
11,0	,	125242	,	-18875	,	-15697	,	-13.693336	,	0
11,0	,	125258	,	-18888	,	-15703	,	-15.719646	,	0
11,0	,	125290	,	-18898	,	-15683	,	-17.41937	,	0
11,0	,	125306	,	-18906	,	-15687	,	-19.091225	,	0
11,0	,	125322	,	-18918	,	-15699	,	-20.85979	,	0
11,0	,	125354	,	-18930	,	-15692	,	-22.741781	,	0
11,0	,	125370	,	-18933	,	-15697	,	-24.686165	,	0
11,0	,	125386	,	-18941	,	-15708	,	-26.526812	,	0
11,0	,	125418	,	-18941	,	-15708	,	-28.005774	,	0
11,0	,	125434	,	-18955	,	-15720	,	-28.90163	,	0
11,0	,	125466	,	-18956	,	-15710	,	-29.148123	,	0
11,0	,	125482	,	-18968	,	-15718	,	-28.826569	,	0
11,0	,	125498	,	-18988	,	-15727	,	-28.17133	,	0
11,0	,	125530	,	-18982	,	-15718	,	-27.514587	,	0
11,0	,	125546	,	-18951	,	-15706	,	-26.807331	,	0
11,0	,	125562	,	-18901	,	-15688	,	-25.131985	,	0
11,0	,	125594	,	-18867	,	-15666	,	-20.975464	,	1
11,0	,	125610	,	-18850	,	-15665	,	-13.222743	,	5
11,0	,	125642	,	-18843	,	-15677	,	-2.016797	,	12
11,0	,	125658	,	-18849	,	-15657	,	11.193421	,	23
11,0	,	125674	,	-18838	,	-15657	,	24.308308	,	36
11,0	,	125706	,	-18843	,	-15665	,	35.40963	,	49
11,0	,	125722	,	-18840	,	-15656	,	43.215073	,	60
11,0	,	125738	,	-18846	,	-15662	,	47.116035	,	67
11,0	,	125770	,	-18855	,	-15669	,	47.06266	,	70
11,0	,	125786	,	-18859	,	-15664	,	43.421898	,	69
11,0	,	125802	,	-18862	,	-15672	,	36.92119	,	65
11,0	,	125834	,	-18859	,	-15683	,	28.601486	,	58
11,0	,	125850	,	-18859	,	-15668	,	19.660906	,	47
11,0	,	125882	,	-18860	,	-15668	,	11.202646	,	34
11,0	,	125898	,	-18865	,	-15670	,	3.9874353	,	21
11,0	,	125914	,	-18865	,	-15673	,	-1.6353979	,	10
11,0	,	125946	,	-18872	,	-15684	,	-5.63774	,	3
11,0	,	125962	,	-18885	,	-15671	,	-8.270749	,	0
11,0	,	125978	,	-18899	,	-15687	,	-10.056342	,	0
11,0	,	126010	,	-18906	,	-15682	,	-11.600385	,	0
11,0	,	126026	,	-18920	,	-15689	,	-13.334057	,	0
11,0	,	126058	,	-18922	,	-15696	,	-15.4164295	,	0
11,0	,	126074	,	-18936	,	-15699	,	-17.775433	,	0
11,0	,	126090	,	-18935	,	-15704	,	-20.199518	,	0
11,0	,	126122	,	-18949	,	-15711	,	-22.428581	,	0
11,0	,	126138	,	-18958	,	-15709	,	-24.28675	,	0
11,1	,	126154	,	-18948	,	-15715	,	-25.672592	,	0
11,1	,	126186	,	-18962	,	-15733	,	-26.40485	,	0
11,1	,	126202	,	-18969	,	-15709	,	-26.378998	,	0
11,1	,	126218	,	-18963	,	-15713	,	-25.692177	,	0
11,1	,	126250	,	-18922	,	-15693	,	-24.20988	,	0
11,1	,	126265	,	-18876	,	-15683	,	-21.109495	,	1
11,1	,	126298	,	-18853	,	-15679	,	-15.218285	,	4
11,1	,	126314	,	-18849	,	-15656	,	-6.0504313	,	9
11,1	,	126330	,	-18841	,	-15658	,	5.5883436	,	18
11,1	,	126362	,	-18849	,	-15657	,	17.965387	,	29
11,1	,	126378	,	-18832	,	-15655	,	29.198536	,	41
11,1	,	126394	,	-18824	,	-15655	,	37.961235	,	52
11,1	,	126426	,	-18826	,	-15663	,	43.686157	,	60
11,1	,	126441	,	-18822	,	-15658	,	46.27568	,	65
11,1	,	126474	,	-18836	,	-15651	,	45.859177	,	66
11,1	,	126490	,	-18850	,	-15668	,	42.63925	,	63
11,1	,	126506	,	-18853	,	-15658	,	36.87592	,	58
11,1	,	126538	,	-18843	,	-15664	,	29.167877	,	49
11,1	,	126554	,	-18846	,	-15657	,	20.56703	,	38
11,1	,	126570	,	-18842	,	-15663	,	12.235004	,	26
11,1	,	126602	,	-18851	,	-15658	,	5.031767	,	15
11,1	,	126618	,	-18853	,	-15656	,	-0.65074253	,	7
11,1	,	126649	,	-18867	,	-15671	,	-4.854178	,	2
11,1	,	126665	,	-18869	,	-15668	,	-7.900444	,	0
11,1	,	126681	,	-18880	,	-15683	,	-10.176253	,	0
11,1	,	126714	,	-18887	,	-15685	,	-12.006058	,	0
11,1	,	126730	,	-18905	,	-15686	,	-13.6863365	,	0
11,1	,	126746	,	-18910	,	-15690	,	-15.495422	,	0
11,1	,	126777	,	-18916	,	-15695	,	-17.547905	,	0
11,1	,	126793	,	-18919	,	-15697	,	-19.694792	,	0
11,1	,	126809	,	-18933	,	-15701	,	-21.677217	,	0
11,1	,	126842	,	-18949	,	-15701	,	-23.395159	,	0
11,1	,	126858	,	-18958	,	-15702	,	-24.969852	,	0
11,1	,	126889	,	-18955	,	-15703	,	-26.481047	,	0
11,1	,	126905	,	-18936	,	-15698	,	-27.624006	,	0
11,1	,	126921	,	-18893	,	-15683	,	-27.524345	,	0
11,1	,	126953	,	-18848	,	-15651	,	-24.830997	,	0
11,1	,	126970	,	-18817	,	-15646	,	-18.278687	,	2
11,1	,	126986	,	-18818	,	-15649	,	-7.5895605	,	8
11,1	,	127018	,	-18807	,	-15659	,	6.0583572	,	18
11,1	,	127034	,	-18804	,	-15640	,	20.556206	,	31
11,1	,	127065	,	-18806	,	-15647	,	33.743828	,	45
11,1	,	127081	,	-18800	,	-15653	,	43.929596	,	58
11,1	,	127097	,	-18797	,	-15651	,	50.16959	,	68
11,1	,	127129	,	-18799	,	-15643	,	52.30428	,	74
11,2	,	127145	,	-18807	,	-15638	,	50.683613	,	76
11,2	,	127161	,	-18816	,	-15650	,	45.880474	,	74
11,2	,	127194	,	-18815	,	-15636	,	38.623444	,	68
11,2	,	127209	,	-18810	,	-15637	,	29.87618	,	58
11,2	,	127225	,	-18817	,	-15643	,	20.747599	,	45
11,2	,	127257	,	-18816	,	-15657	,	12.187105	,	31
11,2	,	127273	,	-18815	,	-15645	,	4.843438	,	18
11,2	,	127305	,	-18821	,	-15644	,	-0.90591145	,	8
11,2	,	127321	,	-18836	,	-15659	,	-5.043884	,	2
11,2	,	127337	,	-18837	,	-15648	,	-7.9194174	,	0
11,2	,	127369	,	-18851	,	-15651	,	-10.000542	,	0
11,2	,	127385	,	-18857	,	-15657	,	-11.699606	,	0
11,2	,	127401	,	-18864	,	-15663	,	-13.318696	,	0
11,2	,	127434	,	-18863	,	-15662	,	-14.947462	,	0
11,2	,	127449	,	-18869	,	-15668	,	-16.449848	,	0
11,2	,	127481	,	-18896	,	-15693	,	-17.733322	,	0
11,2	,	127497	,	-18898	,	-15683	,	-18.992527	,	0
11,2	,	127513	,	-18895	,	-15675	,	-20.408243	,	0
11,2	,	127545	,	-18861	,	-15662	,	-21.606026	,	0
11,2	,	127561	,	-18821	,	-15648	,	-21.482876	,	0
11,2	,	127577	,	-18789	,	-15652	,	-18.605772	,	0
11,2	,	127610	,	-18775	,	-15647	,	-12.059726	,	2
11,2	,	127625	,	-18769	,	-15629	,	-2.110942	,	8
11,2	,	127641	,	-18772	,	-15627	,	9.824287	,	17
11,2	,	127673	,	-18766	,	-15638	,	21.775118	,	28
11,2	,	127689	,	-18756	,	-15629	,	31.994257	,	39
11,2	,	127721	,	-18741	,	-15629	,	39.50097	,	49
11,2	,	127737	,	-18738	,	-15620	,	44.096302	,	56
11,2	,	127753	,	-18741	,	-15614	,	45.960495	,	60
11,2	,	127785	,	-18746	,	-15622	,	45.294067	,	61
11,2	,	127801	,	-18752	,	-15613	,	42.28566	,	59
11,2	,	127817	,	-18753	,	-15614	,	37.259262	,	53
11,2	,	127849	,	-18754	,	-15623	,	30.768341	,	44
11,2	,	127865	,	-18756	,	-15622	,	23.529945	,	33
11,2	,	127897	,	-18761	,	-15635	,	16.241825	,	22
11,2	,	127913	,	-18766	,	-15639	,	9.42595	,	12
11,2	,	127929	,	-18766	,	-15605	,	3.410162	,	5
11,2	,	127961	,	-18779	,	-15645	,	-1.6395869	,	1
11,2	,	127977	,	-18785	,	-15645	,	-5.7565694	,	0
11,2	,	127993	,	-18799	,	-15641	,	-9.154106	,	0
11,2	,	128025	,	-18807	,	-15634	,	-12.109333	,	0
11,2	,	128041	,	-18806	,	-15639	,	-14.790639	,	0
11,2	,	128073	,	-18823	,	-15640	,	-17.182152	,	0
11,2	,	128089	,	-18827	,	-15644	,	-19.25188	,	0
11,2	,	128105	,	-18831	,	-15649	,	-21.006678	,	0
11,2	,	128137	,	-18837	,	-15649	,	-22.378223	,	0
11,3	,	128153	,	-18849	,	-15660	,	-23.299065	,	0
11,3	,	128169	,	-18837	,	-15631	,	-23.74494	,	0
11,3	,	128201	,	-18765	,	-15634	,	-23.217728	,	0
11,3	,	128217	,	-18742	,	-15599	,	-20.364048	,	0
11,3	,	128233	,	-18741	,	-15600	,	-13.990983	,	2
11,3	,	128265	,	-18726	,	-15600	,	-4.308958	,	8
11,3	,	128281	,	-18712	,	-15608	,	7.3428917	,	17
11,3	,	128313	,	-18706	,	-15606	,	19.386217	,	28
11,3	,	128329	,	-18697	,	-15581	,	30.396284	,	40
11,3	,	128345	,	-18697	,	-15605	,	39.2445	,	51
11,3	,	128377	,	-18688	,	-15609	,	45.21708	,	59
11,3	,	128393	,	-18696	,	-15615	,	48.03678	,	64
11,3	,	128409	,	-18687	,	-15595	,	47.791473	,	66
11,3	,	128441	,	-18699	,	-15607	,	44.85465	,	64
11,3	,	128457	,	-18700	,	-15610	,	39.758923	,	58
11,3	,	128489	,	-18701	,	-15601	,	33.117287	,	49
11,3	,	128505	,	-18700	,	-15615	,	25.66146	,	38
11,3	,	128521	,	-18712	,	-15598	,	18.116056	,	26
11,3	,	128553	,	-18713	,	-15615	,	10.980372	,	15
11,3	,	128569	,	-18718	,	-15608	,	4.5520544	,	7
11,3	,	128585	,	-18730	,	-15605	,	-0.99919987	,	2
11,3	,	128617	,	-18730	,	-15622	,	-5.6551194	,	0
11,3	,	128633	,	-18742	,	-15625	,	-9.477662	,	0
11,3	,	128649	,	-18753	,	-15637	,	-12.582261	,	0
11,3	,	128681	,	-18752	,	-15619	,	-15.13397	,	0
11,3	,	128697	,	-18779	,	-15627	,	-17.29475	,	0
11,3	,	128729	,	-18788	,	-15650	,	-19.324286	,	0
11,3	,	128745	,	-18786	,	-15633	,	-21.45681	,	0
11,3	,	128761	,	-18794	,	-15628	,	-23.584023	,	0
11,3	,	128793	,	-18802	,	-15654	,	-25.39413	,	0
11,3	,	128809	,	-18812	,	-15639	,	-26.70528	,	0
11,3	,	128825	,	-18816	,	-15644	,	-27.5009	,	0
11,3	,	128857	,	-18807	,	-15640	,	-27.735287	,	0
11,3	,	128873	,	-18776	,	-15635	,	-27.049267	,	0
11,3	,	128905	,	-18739	,	-15629	,	-24.616968	,	0
11,3	,	128921	,	-18709	,	-15595	,	-19.432938	,	2
11,3	,	128937	,	-18693	,	-15599	,	-10.96988	,	7
11,3	,	128969	,	-18692	,	-15582	,	0.28815746	,	15
11,3	,	128984	,	-18678	,	-15606	,	12.921337	,	26
11,3	,	129000	,	-18669	,	-15576	,	25.236282	,	38
11,3	,	129032	,	-18664	,	-15590	,	35.842564	,	50
11,3	,	129049	,	-18657	,	-15592	,	43.7984	,	60
11,3	,	129065	,	-18650	,	-15595	,	48.64715	,	67
11,3	,	129097	,	-18655	,	-15584	,	50.373505	,	71
11,3	,	129113	,	-18654	,	-15596	,	49.209766	,	70
11,4	,	129145	,	-18672	,	-15582	,	45.48103	,	65
11,4	,	129161	,	-18670	,	-15592	,	39.571342	,	57
11,4	,	129177	,	-18672	,	-15592	,	32.044434	,	46
11,4	,	129208	,	-18679	,	-15599	,	23.67894	,	34
11,4	,	129224	,	-18688	,	-15593	,	15.217894	,	22
11,4	,	129241	,	-18685	,	-15601	,	7.2242966	,	12
11,4	,	129273	,	-18695	,	-15603	,	0.1475277	,	5
11,4	,	129289	,	-18703	,	-15611	,	-5.741462	,	1
11,4	,	129320	,	-18704	,	-15614	,	-10.400944	,	0
11,4	,	129337	,	-18711	,	-15618	,	-13.880072	,	0
11,4	,	129353	,	-18710	,	-15616	,	-16.234558	,	0
11,4	,	129384	,	-18723	,	-15604	,	-17.570482	,	0
11,4	,	129400	,	-18733	,	-15621	,	-18.146801	,	0
11,4	,	129417	,	-18739	,	-15625	,	-18.361567	,	0
11,4	,	129449	,	-18761	,	-15634	,	-18.621075	,	0
11,4	,	129465	,	-18764	,	-15631	,	-19.273869	,	0
11,4	,	129481	,	-18772	,	-15641	,	-20.463696	,	0
11,4	,	129512	,	-18784	,	-15635	,	-22.064087	,	0
11,4	,	129528	,	-18788	,	-15634	,	-23.85192	,	0
11,4	,	129560	,	-18807	,	-15648	,	-25.640388	,	0
11,4	,	129577	,	-18810	,	-15639	,	-27.326237	,	0
11,4	,	129593	,	-18796	,	-15637	,	-28.719238	,	0
11,4	,	129625	,	-18770	,	-15626	,	-29.210049	,	0
11,4	,	129641	,	-18728	,	-15637	,	-27.731031	,	0
11,4	,	129656	,	-18700	,	-15616	,	-23.134083	,	1
11,4	,	129688	,	-18686	,	-15596	,	-14.859479	,	5
11,4	,	129704	,	-18678	,	-15596	,	-3.4402504	,	13
11,4	,	129736	,	-18672	,	-15599	,	9.644589	,	24
11,4	,	129753	,	-18666	,	-15588	,	22.561451	,	37
11,4	,	129769	,	-18650	,	-15570	,	33.738297	,	49
11,4	,	129800	,	-18647	,	-15587	,	42.22226	,	60
11,4	,	129816	,	-18646	,	-15586	,	47.60559	,	68
11,4	,	129832	,	-18650	,	-15590	,	49.779594	,	73
11,4	,	129864	,	-18657	,	-15591	,	48.82139	,	74
11,4	,	129880	,	-18661	,	-15587	,	45.000526	,	70
11,4	,	129913	,	-18663	,	-15579	,	38.841675	,	62
11,4	,	129929	,	-18660	,	-15583	,	31.140781	,	51
11,4	,	129944	,	-18664	,	-15591	,	22.840899	,	38
11,4	,	129976	,	-18664	,	-15601	,	14.81649	,	26
11,4	,	129992	,	-18676	,	-15590	,	7.6701612	,	15
11,4	,	130008	,	-18677	,	-15578	,	1.654439	,	7
11,4	,	130040	,	-18689	,	-15605	,	-3.2403564	,	2
11,4	,	130056	,	-18693	,	-15596	,	-7.1637454	,	0
11,4	,	130072	,	-18701	,	-15594	,	-10.311807	,	0
11,4	,	130104	,	-18716	,	-15615	,	-12.897152	,	0
11,4	,	130120	,	-18721	,	-15624	,	-15.165306	,	0
11,5	,	130152	,	-18736	,	-15612	,	-17.321718	,	0
11,5	,	130169	,	-18734	,	-15603	,	-19.42929	,	0
11,5	,	130184	,	-18759	,	-15625	,	-21.446693	,	0
11,5	,	130216	,	-18759	,	-15626	,	-23.370256	,	0
11,5	,	130232	,	-18770	,	-15647	,	-25.198975	,	0
11,5	,	130248	,	-18777	,	-15635	,	-26.832878	,	0
11,5	,	130280	,	-18784	,	-15640	,	-28.145267	,	0
11,5	,	130296	,	-18794	,	-15651	,	-29.051676	,	0
11,5	,	130328	,	-18805	,	-15656	,	-29.556057	,	0
11,5	,	130344	,	-18823	,	-15641	,	-29.813848	,	0
11,5	,	130360	,	-18828	,	-15653	,	-30.06578	,	0
11,5	,	130392	,	-18824	,	-15660	,	-30.38237	,	0
11,5	,	130408	,	-18826	,	-15642	,	-30.506157	,	0
11,5	,	130424	,	-18746	,	-15621	,	-29.666712	,	0
11,5	,	130457	,	-18727	,	-15605	,	-26.397518	,	0
11,5	,	130472	,	-18712	,	-15593	,	-19.406075	,	3
11,5	,	130488	,	-18701	,	-15589	,	-8.758827	,	9
11,5	,	130520	,	-18699	,	-15592	,	4.1870317	,	19
11,5	,	130536	,	-18693	,	-15585	,	17.52238	,	31
11,5	,	130568	,	-18686	,	-15606	,	29.432646	,	44
11,5	,	130584	,	-18666	,	-15577	,	38.714874	,	55
11,5	,	130600	,	-18666	,	-15593	,	44.94027	,	64
11,5	,	130632	,	-18656	,	-15604	,	48.193604	,	70
11,5	,	130648	,	-18664	,	-15580	,	48.740406	,	73
11,5	,	130664	,	-18673	,	-15606	,	46.823162	,	70
11,5	,	130696	,	-18679	,	-15592	,	42.624104	,	64
11,5	,	130712	,	-18673	,	-15591	,	36.48912	,	54
11,5	,	130744	,	-18678	,	-15577	,	29.094875	,	42
11,5	,	130760	,	-18685	,	-15597	,	21.241951	,	29
11,5	,	130776	,	-18690	,	-15605	,	13.5625305	,	18
11,5	,	130808	,	-18691	,	-15603	,	6.489215	,	9
11,5	,	130824	,	-18696	,	-15601	,	0.3457594	,	3
11,5	,	130840	,	-18704	,	-15596	,	-4.679131	,	0
11,5	,	130872	,	-18710	,	-15625	,	-8.593505	,	0
11,5	,	130888	,	-18713	,	-15589	,	-11.538299	,	0
11,5	,	130904	,	-18737	,	-15612	,	-13.75273	,	0
11,5	,	130936	,	-18745	,	-15608	,	-15.639387	,	0
11,5	,	130952	,	-18757	,	-15633	,	-17.617271	,	0
11,5	,	130984	,	-18769	,	-15630	,	-19.891808	,	0
11,5	,	131000	,	-18767	,	-15624	,	-22.404501	,	0
11,5	,	131016	,	-18784	,	-15634	,	-24.889862	,	0
11,5	,	131048	,	-18789	,	-15648	,	-27.076748	,	0
11,5	,	131064	,	-18788	,	-15634	,	-28.769962	,	0
11,5	,	131080	,	-18807	,	-15637	,	-29.803417	,	0
11,5	,	131112	,	-18803	,	-15651	,	-30.144947	,	0
11,5	,	131128	,	-18825	,	-15636	,	-29.91999	,	0
11,6	,	131160	,	-18823	,	-15649	,	-29.336124	,	0
11,6	,	131176	,	-18844	,	-15661	,	-28.634613	,	0
11,6	,	131192	,	-18853	,	-15663	,	-28.072102	,	0
11,6	,	131224	,	-18869	,	-15654	,	-27.907904	,	0
11,6	,	131240	,	-18878	,	-15680	,	-28.30792	,	0
11,6	,	131256	,	-18878	,	-15669	,	-29.213472	,	0
11,6	,	131288	,	-18864	,	-15658	,	-30.194569	,	0
11,6	,	131304	,	-18819	,	-15647	,	-30.291851	,	0
11,6	,	131320	,	-18768	,	-15620	,	-28.004023	,	0
11,6	,	131352	,	-18760	,	-15628	,	-21.91476	,	2
11,6	,	131368	,	-18746	,	-15619	,	-11.765814	,	8
11,6	,	131400	,	-18733	,	-15606	,	1.3046436	,	18
11,6	,	131416	,	-18722	,	-15605	,	15.496671	,	31
11,6	,	131432	,	-18704	,	-15613	,	29.073349	,	45
11,6	,	131464	,	-18703	,	-15610	,	40.691654	,	58
11,6	,	131480	,	-18693	,	-15612	,	49.43365	,	69
11,6	,	131496	,	-18689	,	-15588	,	54.807587	,	77
11,6	,	131528	,	-18691	,	-15606	,	56.74668	,	82
11,6	,	131544	,	-18698	,	-15611	,	55.445137	,	81
11,6	,	131576	,	-18713	,	-15596	,	51.188023	,	75
11,6	,	131592	,	-18708	,	-15615	,	44.388397	,	65
11,6	,	131608	,	-18712	,	-15606	,	35.769844	,	52
11,6	,	131640	,	-18709	,	-15602	,	26.340393	,	38
11,6	,	131656	,	-18718	,	-15602	,	17.09085	,	25
11,6	,	131672	,	-18725	,	-15620	,	8.713474	,	14
11,6	,	131704	,	-18730	,	-15606	,	1.5364237	,	6
11,6	,	131720	,	-18732	,	-15621	,	-4.330493	,	1
11,6	,	131752	,	-18743	,	-15634	,	-8.887495	,	0
11,6	,	131768	,	-18756	,	-15626	,	-12.3074665	,	0
11,6	,	131784	,	-18758	,	-15625	,	-14.908104	,	0
11,6	,	131815	,	-18778	,	-15631	,	-17.002104	,	0
11,6	,	131832	,	-18780	,	-15649	,	-18.857225	,	0
11,6	,	131848	,	-18784	,	-15641	,	-20.609211	,	0
11,6	,	131880	,	-18793	,	-15632	,	-22.17884	,	0
11,6	,	131896	,	-18805	,	-15640	,	-23.459227	,	0
11,6	,	131912	,	-18817	,	-15640	,	-24.499084	,	0
11,6	,	131944	,	-18827	,	-15644	,	-25.449059	,	0
11,6	,	131960	,	-18833	,	-15654	,	-26.407488	,	0
11,6	,	131991	,	-18841	,	-15646	,	-27.339682	,	0
11,6	,	132008	,	-18862	,	-15651	,	-28.199097	,	0
11,6	,	132024	,	-18855	,	-15658	,	-29.005596	,	0
11,6	,	132056	,	-18856	,	-15663	,	-29.623272	,	0
11,6	,	132072	,	-18866	,	-15677	,	-29.737429	,	0
11,6	,	132088	,	-18885	,	-15684	,	-29.25349	,	0
11,6	,	132120	,	-18890	,	-15683	,	-28.44843	,	0
11,6	,	132136	,	-18894	,	-15680	,	-27.645323	,	0
11,7	,	132167	,	-18916	,	-15679	,	-27.021729	,	0
11,7	,	132183	,	-18883	,	-15669	,	-26.564747	,	0
11,7	,	132199	,	-18840	,	-15659	,	-25.620174	,	0
11,7	,	132232	,	-18794	,	-15631	,	-22.708307	,	0
11,7	,	132248	,	-18776	,	-15626	,	-16.375055	,	2
11,7	,	132264	,	-18778	,	-15629	,	-6.3384657	,	8
11,7	,	132296	,	-18764	,	-15625	,	6.2140656	,	18
11,7	,	132311	,	-18751	,	-15624	,	19.40501	,	30
11,7	,	132327	,	-18743	,	-15621	,	31.551922	,	43
11,7	,	132360	,	-18741	,	-15625	,	41.42627	,	55
11,7	,	132376	,	-18733	,	-15619	,	48.243813	,	64
11,7	,	132407	,	-18734	,	-15613	,	51.69496	,	70
11,7	,	132424	,	-18734	,	-15630	,	51.876114	,	73
11,7	,	132440	,	-18740	,	-15633	,	49.13319	,	71
11,7	,	132472	,	-18745	,	-15617	,	43.958538	,	65
11,7	,	132488	,	-18741	,	-15630	,	36.99346	,	55
11,7	,	132503	,	-18743	,	-15605	,	29.053675	,	43
11,7	,	132536	,	-18732	,	-15636	,	21.05114	,	30
11,7	,	132552	,	-18755	,	-15606	,	13.741936	,	18
11,7	,	132583	,	-18755	,	-15616	,	7.432845	,	9
11,7	,	132599	,	-18760	,	-15650	,	2.0794573	,	3
11,7	,	132615	,	-18769	,	-15607	,	-2.4089146	,	0
11,7	,	132647	,	-18782	,	-15630	,	-6.174556	,	0
11,7	,	132663	,	-18786	,	-15653	,	-9.44754	,	0
11,7	,	132680	,	-18795	,	-15653	,	-12.395616	,	0
11,7	,	132712	,	-18804	,	-15627	,	-15.072756	,	0
11,7	,	132728	,	-18816	,	-15636	,	-17.513329	,	0
11,7	,	132743	,	-18819	,	-15645	,	-19.754717	,	0
11,7	,	132775	,	-18838	,	-15651	,	-21.808445	,	0
11,7	,	132791	,	-18848	,	-15652	,	-23.731186	,	0
11,7	,	132823	,	-18840	,	-15661	,	-25.53732	,	0
11,7	,	132839	,	-18845	,	-15668	,	-26.96706	,	0
11,7	,	132856	,	-18860	,	-15656	,	-27.688545	,	0
11,7	,	132887	,	-18873	,	-15671	,	-27.722376	,	0
11,7	,	132903	,	-18885	,	-15677	,	-27.42973	,	0
11,7	,	132919	,	-18890	,	-15694	,	-27.183296	,	0
11,7	,	132952	,	-18895	,	-15684	,	-27.125341	,	0
11,7	,	132967	,	-18905	,	-15688	,	-27.186033	,	0
11,7	,	132999	,	-18914	,	-15693	,	-27.270683	,	0
11,7	,	133015	,	-18929	,	-15696	,	-27.384708	,	0
11,7	,	133031	,	-18943	,	-15703	,	-27.649921	,	0
11,7	,	133063	,	-18929	,	-15701	,	-28.109043	,	0
11,7	,	133079	,	-18899	,	-15684	,	-28.290295	,	0
11,7	,	133095	,	-18856	,	-15659	,	-27.028126	,	0
11,7	,	133127	,	-18820	,	-15646	,	-22.882078	,	1
11,8	,	133143	,	-18793	,	-15663	,	-14.881207	,	5
11,8	,	133160	,	-18788	,	-15630	,	-3.154193	,	13
11,8	,	133191	,	-18785	,	-15642	,	10.921526	,	24
11,8	,	133207	,	-18775	,	-15623	,	25.24708	,	38
11,8	,	133239	,	-18770	,	-15627	,	37.848877	,	52
11,8	,	133255	,	-18758	,	-15625	,	47.40994	,	64
11,8	,	133271	,	-18763	,	-15621	,	53.32114	,	73
11,8	,	133303	,	-18762	,	-15634	,	55.467712	,	78
11,8	,	133319	,	-18780	,	-15632	,	53.996418	,	79
11,8	,	133335	,	-18777	,	-15637	,	49.244934	,	75
11,8	,	133367	,	-18784	,	-15620	,	41.847145	,	67
11,8	,	133383	,	-18785	,	-15643	,	32.747574	,	56
11,8	,	133415	,	-18791	,	-15629	,	22.988588	,	42
11,8	,	133431	,	-18796	,	-15647	,	13.481003	,	28
11,8	,	133447	,	-18802	,	-15639	,	4.8815365	,	16
11,8	,	133479	,	-18804	,	-15638	,	-2.4059324	,	7
11,8	,	133495	,	-18809	,	-15651	,	-8.166164	,	2
11,8	,	133511	,	-18823	,	-15662	,	-12.397984	,	0
11,8	,	133543	,	-18834	,	-15652	,	-15.382349	,	0
11,8	,	133559	,	-18833	,	-15655	,	-17.524017	,	0
11,8	,	133575	,	-18845	,	-15656	,	-19.088306	,	0
11,8	,	133607	,	-18853	,	-15648	,	-20.225166	,	0
11,8	,	133623	,	-18867	,	-15662	,	-21.12434	,	0
11,8	,	133655	,	-18877	,	-15679	,	-22.017046	,	0
11,8	,	133671	,	-18885	,	-15673	,	-23.074112	,	0
11,8	,	133687	,	-18889	,	-15677	,	-24.296246	,	0
11,8	,	133719	,	-18902	,	-15678	,	-25.536291	,	0
11,8	,	133735	,	-18910	,	-15678	,	-26.660583	,	0
11,8	,	133751	,	-18913	,	-15685	,	-27.58907	,	0
11,8	,	133783	,	-18927	,	-15694	,	-28.24176	,	0
11,8	,	133799	,	-18931	,	-15700	,	-28.591593	,	0
11,8	,	133831	,	-18944	,	-15712	,	-28.690973	,	0
11,8	,	133847	,	-18949	,	-15697	,	-28.620197	,	0
11,8	,	133863	,	-18962	,	-15712	,	-28.46452	,	0
11,8	,	133895	,	-18967	,	-15708	,	-28.304182	,	0
11,8	,	133911	,	-18919	,	-15688	,	-27.909992	,	0
11,8	,	133927	,	-18867	,	-15653	,	-26.19134	,	0
11,8	,	133959	,	-18834	,	-15676	,	-21.45377	,	1
11,8	,	133975	,	-18819	,	-15648	,	-12.634806	,	5
11,8	,	134007	,	-18811	,	-15642	,	-0.1539793	,	13
11,8	,	134023	,	-18801	,	-15648	,	14.329304	,	25
11,8	,	134039	,	-18805	,	-15663	,	28.672934	,	39
11,8	,	134071	,	-18802	,	-15658	,	40.86697	,	53
11,8	,	134087	,	-18800	,	-15636	,	49.45514	,	65
11,8	,	134103	,	-18799	,	-15652	,	53.777794	,	73
11,8	,	134135	,	-18800	,	-15656	,	53.915504	,	77
11,9	,	134151	,	-18806	,	-15636	,	50.439896	,	76
11,9	,	134183	,	-18808	,	-15641	,	44.17286	,	72
11,9	,	134199	,	-18807	,	-15655	,	36.078255	,	64
11,9	,	134215	,	-18810	,	-15641	,	27.18677	,	52
11,9	,	134247	,	-18806	,	-15658	,	18.44835	,	38
11,9	,	134263	,	-18809	,	-15655	,	10.621834	,	24
11,9	,	134279	,	-18817	,	-15642	,	4.171468	,	12
11,9	,	134311	,	-18823	,	-15674	,	-0.8264065	,	4
11,9	,	134327	,	-18834	,	-15656	,	-4.6083584	,	0
11,9	,	134343	,	-18846	,	-15644	,	-7.570768	,	0
11,9	,	134375	,	-18852	,	-15668	,	-10.129869	,	0
11,9	,	134392	,	-18874	,	-15664	,	-12.628317	,	0
11,9	,	134423	,	-18880	,	-15676	,	-15.333263	,	0
11,9	,	134439	,	-18896	,	-15691	,	-18.382515	,	0
11,9	,	134455	,	-18897	,	-15681	,	-21.691395	,	0
11,9	,	134487	,	-18906	,	-15682	,	-24.952223	,	0
11,9	,	134503	,	-18909	,	-15694	,	-27.753159	,	0
11,9	,	134519	,	-18926	,	-15688	,	-29.801476	,	0
11,9	,	134550	,	-18931	,	-15694	,	-31.06538	,	0
11,9	,	134567	,	-18947	,	-15715	,	-31.704403	,	0
11,9	,	134583	,	-18951	,	-15689	,	-31.929375	,	0
11,9	,	134615	,	-18963	,	-15714	,	-31.909792	,	0
11,9	,	134631	,	-18981	,	-15723	,	-31.798935	,	0
11,9	,	134662	,	-18994	,	-15716	,	-31.822548	,	0
11,9	,	134679	,	-18985	,	-15714	,	-32.103516	,	0
11,9	,	134695	,	-18945	,	-15700	,	-32.17873	,	0
11,9	,	134727	,	-18886	,	-15675	,	-30.67694	,	0
11,9	,	134743	,	-18861	,	-15662	,	-25.79974	,	1
11,9	,	134759	,	-18841	,	-15650	,	-16.529512	,	5
11,9	,	134791	,	-18846	,	-15654	,	-3.4470015	,	14
11,9	,	134807	,	-18832	,	-15657	,	11.543717	,	27
11,9	,	134839	,	-18844	,	-15636	,	26.093061	,	41
11,9	,	134855	,	-18833	,	-15659	,	38.140377	,	55
11,9	,	134871	,	-18825	,	-15646	,	46.403927	,	67
11,9	,	134903	,	-18819	,	-15647	,	50.588387	,	75
11,9	,	134919	,	-18827	,	-15644	,	51.05961	,	79
11,9	,	134934	,	-18841	,	-15669	,	48.315536	,	78
11,9	,	134967	,	-18839	,	-15653	,	42.839325	,	74
11,9	,	134983	,	-18835	,	-15650	,	35.342773	,	65
11,9	,	134999	,	-18846	,	-15656	,	26.802551	,	52
11,9	,	135031	,	-18841	,	-15662	,	18.16043	,	38
11,9	,	135047	,	-18844	,	-15662	,	10.1804085	,	24
11,9	,	135078	,	-18843	,	-15661	,	3.4372911	,	12
11,9	,	135094	,	-18865	,	-15670	,	-1.84309	,	4
11,9	,	135110	,	-18873	,	-15666	,	-5.9088087	,	0
11,10	,	135143	,	-18887	,	-15674	,	-9.279022	,	0
11,10	,	135159	,	-18888	,	-15677	,	-12.366115	,	0
11,10	,	135175	,	-18900	,	-15686	,	-15.297115	,	0
11,10	,	135206	,	-18903	,	-15682	,	-18.00066	,	0
11,10	,	135222	,	-18918	,	-15683	,	-20.376781	,	0
11,10	,	135255	,	-18926	,	-15689	,	-22.409473	,	0
11,10	,	135271	,	-18932	,	-15692	,	-24.137585	,	0
11,10	,	135287	,	-18928	,	-15701	,	-25.492123	,	0
11,10	,	135318	,	-18938	,	-15714	,	-26.266129	,	0
11,10	,	135334	,	-18951	,	-15707	,	-26.37128	,	0
11,10	,	135351	,	-18977	,	-15720	,	-26.09745	,	0
11,10	,	135383	,	-18983	,	-15722	,	-26.006983	,	0
11,10	,	135399	,	-18981	,	-15722	,	-26.447819	,	0
11,10	,	135430	,	-18980	,	-15714	,	-27.213306	,	0
11,10	,	135446	,	-18933	,	-15691	,	-27.526077	,	0
11,10	,	135462	,	-18897	,	-15670	,	-26.060886	,	0
11,10	,	135494	,	-18860	,	-15655	,	-21.356789	,	1
11,10	,	135510	,	-18841	,	-15656	,	-12.646829	,	5
11,10	,	135526	,	-18841	,	-15654	,	-0.41958046	,	13
11,10	,	135559	,	-18841	,	-15671	,	13.621208	,	25
11,10	,	135574	,	-18839	,	-15642	,	27.206717	,	39
11,10	,	135590	,	-18842	,	-15657	,	38.32435	,	52
11,10	,	135622	,	-18841	,	-15642	,	45.671844	,	63
11,10	,	135638	,	-18839	,	-15660	,	48.77224	,	70
11,10	,	135670	,	-18854	,	-15650	,	47.82948	,	73
11,10	,	135686	,	-18853	,	-15670	,	43.426975	,	72
11,10	,	135702	,	-18858	,	-15657	,	36.40448	,	68
11,10	,	135734	,	-18864	,	-15653	,	27.793428	,	60
11,10	,	135750	,	-18856	,	-15659	,	18.657417	,	48
11,10	,	135766	,	-18864	,	-15668	,	9.983593	,	34
11,10	,	135798	,	-18856	,	-15666	,	2.5522575	,	21
11,10	,	135814	,	-18862	,	-15652	,	-3.16008	,	10
11,10	,	135846	,	-18872	,	-15675	,	-7.047364	,	3
11,10	,	135862	,	-18888	,	-15667	,	-9.465187	,	0
11,10	,	135878	,	-18901	,	-15674	,	-11.1060915	,	0
11,10	,	135910	,	-18906	,	-15680	,	-12.63914	,	0
11,10	,	135926	,	-18905	,	-15684	,	-14.367535	,	0
11,10	,	135943	,	-18921	,	-15691	,	-16.223286	,	0
11,10	,	135975	,	-18934	,	-15691	,	-18.109686	,	0
11,10	,	135990	,	-18935	,	-15692	,	-20.032341	,	0
11,10	,	136006	,	-18930	,	-15687	,	-21.837982	,	0
11,10	,	136038	,	-18944	,	-15701	,	-23.179005	,	0
11,10	,	136054	,	-18952	,	-15696	,	-23.872688	,	0
11,10	,	136086	,	-18958	,	-15702	,	-24.032955	,	0
11,10	,	136102	,	-18981	,	-15707	,	-23.932789	,	0
11,10	,	136118	,	-18960	,	-15703	,	-23.816463	,	0
11,11	,	136150	,	-18905	,	-15682	,	-23.303305	,	0
11,11	,	136166	,	-18868	,	-15665	,	-21.018852	,	0
11,11	,	136182	,	-18850	,	-15643	,	-15.475645	,	2
11,11	,	136214	,	-18838	,	-15657	,	-6.287175	,	7
11,11	,	136230	,	-18836	,	-15651	,	5.578721	,	16
11,11	,	136262	,	-18825	,	-15642	,	18.358627	,	27
11,11	,	136278	,	-18833	,	-15644	,	30.170298	,	39
11,11	,	136294	,	-18833	,	-15648	,	39.418606	,	50
11,11	,	136326	,	-18834	,	-15649	,	45.042534	,	59
11,11	,	136342	,	-18828	,	-15645	,	46.73141	,	64
11,11	,	136358	,	-18843	,	-15659	,	44.836067	,	65
11,11	,	136390	,	-18848	,	-15665	,	39.9858	,	63
11,11	,	136406	,	-18847	,	-15649	,	32.9254	,	58
11,11	,	136438	,	-18849	,	-15647	,	24.59811	,	49
11,11	,	136454	,	-18844	,	-15672	,	16.057184	,	38
11,11	,	136470	,	-18831	,	-15662	,	8.312013	,	26
11,11	,	136502	,	-18844	,	-15656	,	2.1668139	,	15
11,11	,	136518	,	-18840	,	-15671	,	-2.056293	,	6
11,11	,	136534	,	-18854	,	-15671	,	-4.5639415	,	1
11,11	,	136566	,	-18863	,	-15663	,	-5.9010315	,	0
11,11	,	136582	,	-18886	,	-15690	,	-6.816966	,	0
11,11	,	136598	,	-18890	,	-15676	,	-8.061478	,	0
11,11	,	136630	,	-18896	,	-15678	,	-10.041365	,	0
11,11	,	136646	,	-18906	,	-15676	,	-12.7018795	,	0
11,11	,	136678	,	-18906	,	-15682	,	-15.716837	,	0
11,11	,	136694	,	-18915	,	-15689	,	-18.659742	,	0
11,11	,	136710	,	-18923	,	-15698	,	-21.165422	,	0
11,11	,	136742	,	-18927	,	-15694	,	-23.055538	,	0
11,11	,	136758	,	-18944	,	-15701	,	-24.324272	,	0
11,11	,	136774	,	-18945	,	-15700	,	-25.10396	,	0
11,11	,	136806	,	-18935	,	-15685	,	-25.457176	,	0
11,11	,	136822	,	-18864	,	-15661	,	-24.826351	,	0
11,11	,	136854	,	-18826	,	-15642	,	-21.754173	,	0
11,11	,	136870	,	-18823	,	-15635	,	-14.851855	,	3
11,11	,	136886	,	-18812	,	-15637	,	-4.1715107	,	9
11,11	,	136918	,	-18817	,	-15632	,	8.732404	,	19
11,11	,	136934	,	-18802	,	-15643	,	21.744598	,	31
11,11	,	136950	,	-18804	,	-15641	,	33.026104	,	44
11,11	,	136982	,	-18795	,	-15645	,	41.37901	,	55
11,11	,	136998	,	-18794	,	-15631	,	46.27145	,	63
11,11	,	137014	,	-18797	,	-15640	,	47.71012	,	67
11,11	,	137046	,	-18802	,	-15631	,	46.008263	,	68
11,11	,	137062	,	-18806	,	-15650	,	41.647247	,	65
11,11	,	137094	,	-18802	,	-15635	,	35.301804	,	59
11,11	,	137110	,	-18820	,	-15633	,	27.761833	,	49
11,11	,	137126	,	-18804	,	-15636	,	19.77562	,	37
11,12	,	137158	,	-18816	,	-15638	,	12.067671	,	24
11,12	,	137174	,	-18818	,	-15657	,	5.2480345	,	13
11,12	,	137190	,	-18828	,	-15647	,	-0.40773392	,	5
11,12	,	137222	,	-18826	,	-15646	,	-4.894299	,	1
11,12	,	137238	,	-18832	,	-15663	,	-8.278064	,	0
11,12	,	137269	,	-18848	,	-15667	,	-10.708565	,	0
11,12	,	137285	,	-18854	,	-15668	,	-12.5161495	,	0
11,12	,	137302	,	-18860	,	-15657	,	-14.065981	,	0
11,12	,	137334	,	-18872	,	-15672	,	-15.569619	,	0
11,12	,	137350	,	-18881	,	-15666	,	-17.134523	,	0
11,12	,	137366	,	-18887	,	-15674	,	-18.80711	,	0
11,12	,	137398	,	-18896	,	-15671	,	-20.53115	,	0
11,12	,	137414	,	-18903	,	-15679	,	-22.186432	,	0
11,12	,	137430	,	-18896	,	-15663	,	-23.584545	,	0
11,12	,	137461	,	-18850	,	-15647	,	-24.176071	,	0
11,12	,	137478	,	-18799	,	-15626	,	-22.728888	,	0
11,12	,	137510	,	-18785	,	-15640	,	-17.805962	,	1
11,12	,	137526	,	-18762	,	-15631	,	-8.873931	,	5
11,12	,	137542	,	-18766	,	-15619	,	3.2222214	,	13
11,12	,	137574	,	-18759	,	-15602	,	16.65126	,	25
11,12	,	137590	,	-18753	,	-15634	,	29.33313	,	38
11,12	,	137606	,	-18743	,	-15607	,	39.654865	,	50
11,12	,	137638	,	-18730	,	-15593	,	46.80349	,	60
11,12	,	137653	,	-18728	,	-15620	,	50.67413	,	67
11,12	,	137686	,	-18739	,	-15610	,	51.484276	,	70
11,12	,	137702	,	-18750	,	-15610	,	49.408096	,	69
11,12	,	137718	,	-18756	,	-15628	,	44.60617	,	65
11,12	,	137750	,	-18752	,	-15607	,	37.52664	,	57
11,12	,	137765	,	-18752	,	-15617	,	29.04413	,	45
11,12	,	137781	,	-18756	,	-15604	,	20.21937	,	32
11,12	,	137813	,	-18762	,	-15612	,	11.917618	,	20
11,12	,	137829	,	-18773	,	-15627	,	4.6172953	,	10
11,12	,	137861	,	-18775	,	-15612	,	-1.5369978	,	3
11,12	,	137878	,	-18778	,	-15621	,	-6.5360956	,	0
11,12	,	137894	,	-18789	,	-15625	,	-10.408706	,	0
11,12	,	137925	,	-18791	,	-15624	,	-13.276305	,	0
11,12	,	137941	,	-18801	,	-15625	,	-15.330015	,	0
11,12	,	137958	,	-18811	,	-15645	,	-16.790258	,	0
11,12	,	137989	,	-18821	,	-15632	,	-17.921314	,	0
11,12	,	138005	,	-18837	,	-15641	,	-19.011486	,	0
11,12	,	138021	,	-18842	,	-15641	,	-20.304626	,	0
11,12	,	138053	,	-18850	,	-15647	,	-21.867416	,	0
11,12	,	138070	,	-18839	,	-15656	,	-23.470207	,	0
11,12	,	138101	,	-18782	,	-15619	,	-24.339336	,	0
11,12	,	138117	,	-18760	,	-15606	,	-23.057878	,	0
11,12	,	138133	,	-18736	,	-15608	,	-18.329916	,	1
11,13	,	138166	,	-18723	,	-15610	,	-9.899492	,	5
11,13	,	138181	,	-18719	,	-15612	,	1.3369112	,	13
11,13	,	138197	,	-18719	,	-15611	,	13.712052	,	24
11,13	,	138229	,	-18706	,	-15612	,	25.378702	,	36
11,13	,	138245	,	-18703	,	-15606	,	34.917145	,	47
11,13	,	138277	,	-18696	,	-15595	,	41.55916	,	56
11,13	,	138294	,	-18692	,	-15598	,	45.095337	,	62
11,13	,	138309	,	-18695	,	-15594	,	45.6998	,	65
11,13	,	138341	,	-18702	,	-15597	,	43.70161	,	64
11,13	,	138357	,	-18701	,	-15600	,	39.485115	,	60
11,13	,	138373	,	-18714	,	-15604	,	33.536858	,	52
11,13	,	138405	,	-18706	,	-15606	,	26.45119	,	41
