Data recorded on Mon Jul 24 09-09-52 CAT 2017
Time: 9:9:58
Time		Millis		IR PPG		Red PPG		Filtered		SSF
10,7	,	73739	,	-16395	,	-13198	,	-6.7413826	,	1
10,7	,	73771	,	-16397	,	-13202	,	-5.788389	,	0
10,7	,	73787	,	-16404	,	-13197	,	-4.689849	,	0
10,7	,	73819	,	-16403	,	-13186	,	-3.6286912	,	1
10,7	,	73835	,	-16387	,	-13191	,	-2.7046707	,	2
10,7	,	73851	,	-16374	,	-13192	,	-1.6888025	,	2
10,7	,	73883	,	-16402	,	-13199	,	-0.3203069	,	3
10,7	,	73899	,	-16401	,	-13192	,	1.1506929	,	4
10,7	,	73931	,	-16395	,	-13200	,	2.1947947	,	5
10,7	,	73947	,	-16414	,	-13209	,	2.5233302	,	6
10,7	,	73963	,	-16409	,	-13209	,	2.037077	,	6
10,7	,	73995	,	-16414	,	-13215	,	0.7739719	,	6
10,7	,	74011	,	-16407	,	-13228	,	-0.9842323	,	5
10,7	,	74027	,	-16408	,	-13226	,	-2.8014622	,	4
10,7	,	74059	,	-16411	,	-13235	,	-4.2891135	,	4
10,7	,	74075	,	-16405	,	-13237	,	-5.234162	,	3
10,7	,	74091	,	-16408	,	-13249	,	-5.5607123	,	2
10,7	,	74123	,	-16418	,	-13250	,	-5.3469677	,	1
10,7	,	74139	,	-16419	,	-13248	,	-4.8825345	,	0
10,7	,	74170	,	-16435	,	-13275	,	-4.557059	,	0
10,7	,	74187	,	-16434	,	-13279	,	-4.712039	,	0
10,7	,	74203	,	-16436	,	-13285	,	-5.4815316	,	0
10,7	,	74235	,	-16451	,	-13297	,	-6.7748394	,	0
10,7	,	74250	,	-16462	,	-13308	,	-8.520251	,	0
10,7	,	74267	,	-16471	,	-13316	,	-10.74609	,	0
10,7	,	74299	,	-16476	,	-13334	,	-13.399563	,	0
10,7	,	74315	,	-16506	,	-13345	,	-16.364758	,	0
10,7	,	74331	,	-16521	,	-13365	,	-19.69984	,	0
10,7	,	74362	,	-16537	,	-13370	,	-23.567467	,	0
10,7	,	74378	,	-16568	,	-13402	,	-28.016674	,	0
10,7	,	74411	,	-16574	,	-13408	,	-32.982048	,	0
10,7	,	74427	,	-16603	,	-13410	,	-38.261364	,	0
10,7	,	74443	,	-16614	,	-13430	,	-43.536327	,	0
10,7	,	74475	,	-16629	,	-13436	,	-48.443413	,	0
10,7	,	74491	,	-16655	,	-13444	,	-52.645313	,	0
10,7	,	74506	,	-16654	,	-13455	,	-55.926666	,	0
10,7	,	74538	,	-16681	,	-13464	,	-58.13761	,	0
10,7	,	74554	,	-16690	,	-13473	,	-59.226326	,	0
10,7	,	74587	,	-16760	,	-13486	,	-59.56891	,	0
10,7	,	74603	,	-16725	,	-13484	,	-59.88063	,	0
10,7	,	74618	,	-16774	,	-13510	,	-60.472046	,	0
10,7	,	74650	,	-16757	,	-13513	,	-61.077827	,	0
10,7	,	74666	,	-16800	,	-13521	,	-61.356308	,	0
10,7	,	74683	,	-16807	,	-13527	,	-61.206184	,	0
10,7	,	74715	,	-16823	,	-13528	,	-60.733162	,	0
10,7	,	74730	,	-16824	,	-13540	,	-59.944305	,	0
10,8	,	74762	,	-16837	,	-13544	,	-58.65291	,	0
10,8	,	74778	,	-16842	,	-13549	,	-56.677364	,	1
10,8	,	74795	,	-16838	,	-13545	,	-53.905987	,	2
10,8	,	74826	,	-16873	,	-13558	,	-50.37889	,	4
10,8	,	74842	,	-16854	,	-13558	,	-46.402775	,	7
10,8	,	74858	,	-16909	,	-13573	,	-42.459377	,	10
10,8	,	74891	,	-16879	,	-13577	,	-39.060547	,	13
10,8	,	74907	,	-16885	,	-13582	,	-36.3377	,	16
10,8	,	74922	,	-16890	,	-13590	,	-33.88764	,	18
10,8	,	74954	,	-16886	,	-13588	,	-31.296598	,	20
10,8	,	74970	,	-16883	,	-13597	,	-28.337261	,	21
10,8	,	75002	,	-16878	,	-13599	,	-24.853008	,	22
10,8	,	75018	,	-16890	,	-13601	,	-20.868885	,	23
10,8	,	75034	,	-16925	,	-13610	,	-16.86779	,	23
10,8	,	75066	,	-16925	,	-13603	,	-13.778568	,	24
10,8	,	75082	,	-16931	,	-13608	,	-12.318466	,	24
10,8	,	75098	,	-16901	,	-13611	,	-12.346788	,	22
10,8	,	75130	,	-16907	,	-13620	,	-12.941956	,	20
10,8	,	75146	,	-16924	,	-13620	,	-13.214432	,	18
10,8	,	75178	,	-16958	,	-13623	,	-13.128841	,	16
10,8	,	75194	,	-16942	,	-13627	,	-13.298195	,	14
10,8	,	75211	,	-16933	,	-13631	,	-13.971586	,	11
10,8	,	75242	,	-16971	,	-13634	,	-14.855955	,	8
10,8	,	75258	,	-16943	,	-13642	,	-15.759235	,	4
10,8	,	75274	,	-16982	,	-13651	,	-16.65465	,	1
10,8	,	75306	,	-16992	,	-13641	,	-17.660347	,	0
10,8	,	75322	,	-16974	,	-13656	,	-18.971468	,	0
10,8	,	75338	,	-17007	,	-13664	,	-20.462437	,	0
10,8	,	75370	,	-17020	,	-13676	,	-21.99968	,	0
10,8	,	75386	,	-17037	,	-13681	,	-23.791492	,	0
10,8	,	75418	,	-17050	,	-13685	,	-26.056059	,	0
10,8	,	75434	,	-17065	,	-13694	,	-28.81021	,	0
10,8	,	75450	,	-17080	,	-13695	,	-31.926346	,	0
10,8	,	75482	,	-17087	,	-13713	,	-35.170372	,	0
10,8	,	75498	,	-17096	,	-13723	,	-38.19574	,	0
10,8	,	75514	,	-17128	,	-13740	,	-40.7224	,	0
10,8	,	75546	,	-17140	,	-13740	,	-42.798553	,	0
10,8	,	75562	,	-17193	,	-13788	,	-44.826756	,	0
10,8	,	75594	,	-17218	,	-13800	,	-47.471096	,	0
10,8	,	75610	,	-17249	,	-13821	,	-51.33156	,	0
10,8	,	75626	,	-17263	,	-13831	,	-56.47657	,	0
10,8	,	75658	,	-17285	,	-13836	,	-62.368095	,	0
10,8	,	75674	,	-17296	,	-13850	,	-68.14287	,	0
10,8	,	75690	,	-17324	,	-13853	,	-72.97403	,	0
10,8	,	75722	,	-17328	,	-13852	,	-76.31239	,	0
10,8	,	75738	,	-17333	,	-13863	,	-77.79423	,	0
10,9	,	75754	,	-17326	,	-13870	,	-77.04564	,	0
10,9	,	75786	,	-17336	,	-13849	,	-73.79228	,	0
10,9	,	75802	,	-17346	,	-13855	,	-68.1896	,	3
10,9	,	75834	,	-17340	,	-13856	,	-60.85492	,	8
10,9	,	75850	,	-17339	,	-13854	,	-52.48215	,	15
10,9	,	75866	,	-17340	,	-13845	,	-43.620285	,	23
10,9	,	75898	,	-17331	,	-13840	,	-34.736015	,	31
10,9	,	75914	,	-17331	,	-13841	,	-26.20823	,	39
10,9	,	75930	,	-17319	,	-13834	,	-18.287876	,	47
10,9	,	75962	,	-17293	,	-13830	,	-10.987389	,	54
10,9	,	75978	,	-17287	,	-13824	,	-4.030408	,	61
10,9	,	76010	,	-17277	,	-13827	,	2.8202152	,	64
10,9	,	76026	,	-17267	,	-13795	,	9.48758	,	65
10,9	,	76042	,	-17224	,	-13786	,	15.868837	,	64
10,9	,	76074	,	-17212	,	-13778	,	22.172693	,	62
10,9	,	76090	,	-17199	,	-13770	,	28.61438	,	60
10,9	,	76106	,	-17176	,	-13757	,	35.04547	,	58
10,9	,	76138	,	-17160	,	-13751	,	41.148888	,	56
10,9	,	76154	,	-17143	,	-13748	,	46.650764	,	55
10,9	,	76186	,	-17147	,	-13742	,	51.212074	,	53
10,9	,	76202	,	-17107	,	-13735	,	54.485214	,	51
10,9	,	76218	,	-17124	,	-13731	,	56.34715	,	48
10,9	,	76250	,	-17111	,	-13738	,	56.732597	,	43
10,9	,	76266	,	-17110	,	-13723	,	55.500816	,	37
10,9	,	76282	,	-17095	,	-13723	,	52.72291	,	31
10,9	,	76314	,	-17103	,	-13717	,	48.730164	,	25
10,9	,	76330	,	-17096	,	-13716	,	43.87655	,	19
10,9	,	76346	,	-17095	,	-13713	,	38.47679	,	13
10,9	,	76378	,	-17098	,	-13712	,	32.84288	,	8
10,9	,	76394	,	-17089	,	-13708	,	27.267916	,	4
10,9	,	76426	,	-17097	,	-13716	,	22.02308	,	1
10,9	,	76442	,	-17088	,	-13715	,	17.313286	,	0
10,9	,	76458	,	-17083	,	-13714	,	13.303051	,	0
10,9	,	76490	,	-17088	,	-13716	,	10.142747	,	0
10,9	,	76506	,	-17056	,	-13710	,	7.9711275	,	0
10,9	,	76522	,	-17072	,	-13706	,	6.971232	,	0
10,9	,	76554	,	-17068	,	-13701	,	7.093528	,	0
10,9	,	76570	,	-17055	,	-13704	,	7.9472547	,	0
10,9	,	76602	,	-17044	,	-13694	,	9.2416725	,	0
10,9	,	76618	,	-17074	,	-13698	,	10.758529	,	1
10,9	,	76634	,	-17069	,	-13695	,	11.94579	,	2
10,9	,	76665	,	-17073	,	-13696	,	12.182716	,	3
10,9	,	76681	,	-17049	,	-13697	,	11.373861	,	3
10,9	,	76698	,	-17076	,	-13698	,	9.897915	,	3
10,9	,	76730	,	-17076	,	-13696	,	8.013212	,	3
10,10	,	76746	,	-17086	,	-13693	,	5.67201	,	3
10,10	,	76762	,	-17090	,	-13700	,	2.8314772	,	3
10,10	,	76793	,	-17084	,	-13701	,	-0.3443246	,	3
10,10	,	76810	,	-17082	,	-13698	,	-3.4450688	,	2
10,10	,	76841	,	-17080	,	-13694	,	-5.9644966	,	1
10,10	,	76858	,	-17080	,	-13700	,	-7.5645413	,	0
10,10	,	76874	,	-17078	,	-13698	,	-8.153457	,	0
10,10	,	76905	,	-17083	,	-13690	,	-7.838705	,	0
10,10	,	76922	,	-17077	,	-13697	,	-6.8595133	,	0
10,10	,	76938	,	-17095	,	-13697	,	-5.547353	,	0
10,10	,	76970	,	-17079	,	-13678	,	-4.2669144	,	1
10,10	,	76986	,	-17088	,	-13683	,	-3.222524	,	2
10,10	,	77017	,	-17083	,	-13684	,	-2.4216182	,	3
10,10	,	77033	,	-17091	,	-13677	,	-1.8538383	,	3
10,10	,	77049	,	-17092	,	-13682	,	-1.5608991	,	3
10,10	,	77082	,	-17089	,	-13677	,	-1.5617412	,	3
10,10	,	77097	,	-17077	,	-13672	,	-1.7072631	,	3
10,10	,	77113	,	-17066	,	-13673	,	-1.6240393	,	3
10,10	,	77146	,	-17063	,	-13672	,	-0.900277	,	3
10,10	,	77162	,	-17046	,	-13669	,	0.70063794	,	2
10,10	,	77178	,	-17038	,	-13673	,	3.242414	,	2
10,10	,	77209	,	-17034	,	-13655	,	6.6172547	,	3
10,10	,	77226	,	-17013	,	-13660	,	10.549618	,	6
10,10	,	77257	,	-17011	,	-13650	,	14.755569	,	9
10,10	,	77274	,	-16946	,	-13642	,	19.214115	,	13
10,10	,	77290	,	-16955	,	-13639	,	24.27658	,	17
10,10	,	77321	,	-16954	,	-13634	,	30.010494	,	22
10,10	,	77338	,	-16985	,	-13631	,	35.494198	,	27
10,10	,	77353	,	-16982	,	-13630	,	39.207092	,	32
10,10	,	77385	,	-16938	,	-13633	,	40.23948	,	34
10,10	,	77402	,	-16970	,	-13634	,	38.887543	,	33
10,10	,	77433	,	-16927	,	-13643	,	35.982315	,	30
10,10	,	77449	,	-16966	,	-13620	,	32.241074	,	27
10,10	,	77465	,	-16942	,	-13627	,	28.09174	,	23
10,10	,	77498	,	-16938	,	-13627	,	23.81952	,	19
10,10	,	77514	,	-16961	,	-13626	,	19.730366	,	14
10,10	,	77529	,	-16951	,	-13622	,	15.871953	,	9
10,10	,	77561	,	-16947	,	-13625	,	12.171547	,	4
10,10	,	77577	,	-16951	,	-13621	,	8.782429	,	1
10,10	,	77609	,	-16972	,	-13620	,	5.791572	,	0
10,10	,	77625	,	-16957	,	-13625	,	3.0297933	,	0
10,10	,	77641	,	-16984	,	-13620	,	0.33273172	,	0
10,10	,	77673	,	-16990	,	-13634	,	-2.448456	,	0
10,10	,	77689	,	-16985	,	-13616	,	-5.4474287	,	0
10,10	,	77705	,	-16976	,	-13616	,	-8.440572	,	0
10,10	,	77737	,	-16977	,	-13621	,	-10.857679	,	0
10,11	,	77753	,	-16966	,	-13617	,	-12.166473	,	0
10,11	,	77769	,	-16954	,	-13616	,	-12.023871	,	0
10,11	,	77801	,	-16997	,	-13619	,	-10.494871	,	0
10,11	,	77818	,	-16988	,	-13620	,	-8.341141	,	1
10,11	,	77849	,	-16975	,	-13627	,	-6.4275875	,	3
10,11	,	77865	,	-16991	,	-13623	,	-5.023983	,	4
10,11	,	77881	,	-16987	,	-13625	,	-4.107606	,	5
10,11	,	77913	,	-17009	,	-13632	,	-3.7580404	,	5
10,11	,	77929	,	-16993	,	-13620	,	-4.0711985	,	5
10,11	,	77945	,	-17014	,	-13626	,	-4.9801736	,	5
10,11	,	77977	,	-17031	,	-13629	,	-6.4176254	,	5
10,11	,	77993	,	-17003	,	-13628	,	-8.352663	,	5
10,11	,	78025	,	-17036	,	-13631	,	-10.485524	,	4
10,11	,	78042	,	-17037	,	-13630	,	-12.525835	,	2
10,11	,	78057	,	-17035	,	-13631	,	-14.432558	,	1
10,11	,	78089	,	-17050	,	-13629	,	-16.125294	,	0
10,11	,	78105	,	-17035	,	-13631	,	-17.434729	,	0
10,11	,	78121	,	-17047	,	-13633	,	-18.148483	,	0
10,11	,	78153	,	-17054	,	-13627	,	-18.157219	,	0
10,11	,	78169	,	-17059	,	-13621	,	-17.640545	,	0
10,11	,	78185	,	-17075	,	-13625	,	-16.950188	,	0
10,11	,	78217	,	-17071	,	-13634	,	-16.422485	,	0
10,11	,	78233	,	-17069	,	-13630	,	-16.157791	,	0
10,11	,	78265	,	-17074	,	-13625	,	-15.961262	,	0
10,11	,	78281	,	-17058	,	-13632	,	-15.530841	,	0
10,11	,	78297	,	-17052	,	-13632	,	-14.506775	,	0
10,11	,	78329	,	-17039	,	-13621	,	-12.518286	,	1
10,11	,	78345	,	-17024	,	-13621	,	-9.325585	,	2
10,11	,	78361	,	-17043	,	-13625	,	-5.0173044	,	5
10,11	,	78393	,	-17027	,	-13625	,	-0.16089249	,	9
10,11	,	78409	,	-17037	,	-13622	,	4.4893975	,	13
10,11	,	78441	,	-17033	,	-13621	,	8.335081	,	17
10,11	,	78457	,	-17000	,	-13621	,	11.148741	,	20
10,11	,	78473	,	-16991	,	-13619	,	13.307529	,	22
10,11	,	78505	,	-16998	,	-13626	,	15.37154	,	24
10,11	,	78521	,	-17013	,	-13622	,	17.327614	,	25
10,11	,	78537	,	-16991	,	-13632	,	18.695906	,	25
10,11	,	78569	,	-17004	,	-13626	,	19.175724	,	23
10,11	,	78585	,	-17007	,	-13624	,	18.705425	,	19
10,11	,	78601	,	-16983	,	-13629	,	17.35143	,	15
10,11	,	78633	,	-16980	,	-13639	,	15.545437	,	11
10,11	,	78649	,	-16980	,	-13634	,	13.887286	,	8
10,11	,	78681	,	-16962	,	-13640	,	12.7479515	,	6
10,11	,	78697	,	-16979	,	-13637	,	12.240461	,	4
10,11	,	78713	,	-16967	,	-13629	,	12.194675	,	2
10,12	,	78745	,	-16985	,	-13627	,	12.215658	,	1
10,12	,	78761	,	-16956	,	-13627	,	11.986633	,	0
10,12	,	78777	,	-16968	,	-13629	,	11.508107	,	0
10,12	,	78809	,	-16975	,	-13627	,	10.87586	,	0
10,12	,	78825	,	-16948	,	-13621	,	10.093073	,	0
10,12	,	78857	,	-16959	,	-13621	,	9.3265085	,	0
10,12	,	78873	,	-16962	,	-13615	,	8.751569	,	0
10,12	,	78889	,	-16986	,	-13616	,	8.128011	,	0
10,12	,	78921	,	-16962	,	-13619	,	7.028185	,	0
10,12	,	78937	,	-16967	,	-13618	,	5.41244	,	0
10,12	,	78953	,	-16953	,	-13616	,	3.6974742	,	0
10,12	,	78985	,	-16967	,	-13619	,	2.3239758	,	0
10,12	,	79001	,	-16956	,	-13617	,	1.4652796	,	0
10,12	,	79017	,	-16957	,	-13614	,	1.1046218	,	0
10,12	,	79049	,	-16944	,	-13614	,	1.2342103	,	0
10,12	,	79065	,	-16940	,	-13614	,	1.919529	,	0
10,12	,	79096	,	-16934	,	-13613	,	3.2079594	,	0
10,12	,	79113	,	-16939	,	-13604	,	4.9736495	,	1
10,12	,	79129	,	-16938	,	-13604	,	6.866263	,	2
10,12	,	79161	,	-16948	,	-13606	,	8.426447	,	3
10,12	,	79177	,	-16926	,	-13604	,	9.340004	,	4
10,12	,	79193	,	-16958	,	-13602	,	9.535603	,	4
10,12	,	79225	,	-16922	,	-13606	,	9.05038	,	4
10,12	,	79241	,	-16945	,	-13606	,	8.0807495	,	4
10,12	,	79273	,	-16931	,	-13607	,	6.9136286	,	4
10,12	,	79289	,	-16959	,	-13607	,	5.6207194	,	4
10,12	,	79305	,	-16927	,	-13603	,	4.1455984	,	3
10,12	,	79337	,	-16948	,	-13619	,	2.6171317	,	2
10,12	,	79353	,	-16946	,	-13599	,	1.2197618	,	1
10,12	,	79369	,	-16974	,	-13608	,	-0.1686604	,	0
10,12	,	79401	,	-16949	,	-13604	,	-1.8255897	,	0
10,12	,	79416	,	-16927	,	-13601	,	-3.5447094	,	0
10,12	,	79448	,	-16911	,	-13597	,	-4.457568	,	0
10,12	,	79465	,	-16927	,	-13599	,	-3.8101702	,	0
10,12	,	79481	,	-16903	,	-13590	,	-1.5966778	,	0
10,12	,	79513	,	-16926	,	-13593	,	1.6565192	,	2
10,12	,	79529	,	-16901	,	-13593	,	5.2632356	,	5
10,12	,	79545	,	-16906	,	-13594	,	8.673071	,	8
10,12	,	79576	,	-16918	,	-13609	,	11.504077	,	11
10,12	,	79593	,	-16951	,	-13604	,	13.159214	,	13
10,12	,	79608	,	-16953	,	-13622	,	12.830885	,	14
10,12	,	79640	,	-16949	,	-13627	,	10.16749	,	14
10,12	,	79657	,	-16926	,	-13625	,	5.7931633	,	14
10,12	,	79689	,	-16928	,	-13621	,	1.0420213	,	14
10,12	,	79705	,	-16922	,	-13626	,	-2.8356242	,	12
10,12	,	79721	,	-16939	,	-13614	,	-5.254506	,	9
10,13	,	79752	,	-16927	,	-13618	,	-6.2875957	,	6
10,13	,	79769	,	-16908	,	-13616	,	-6.1502266	,	3
10,13	,	79785	,	-16932	,	-13616	,	-4.9512763	,	1
10,13	,	79817	,	-16942	,	-13628	,	-3.1308901	,	1
10,13	,	79833	,	-16927	,	-13604	,	-1.4326453	,	2
10,13	,	79864	,	-16951	,	-13622	,	-0.33968234	,	3
10,13	,	79880	,	-16926	,	-13613	,	0.018683195	,	4
10,13	,	79896	,	-16919	,	-13618	,	-0.103150666	,	4
10,13	,	79928	,	-16950	,	-13607	,	-0.28238773	,	4
10,13	,	79944	,	-16906	,	-13610	,	-0.35837746	,	4
10,13	,	79960	,	-16913	,	-13608	,	-0.114704736	,	4
10,13	,	79993	,	-16921	,	-13610	,	0.7437149	,	4
10,13	,	80008	,	-16924	,	-13609	,	2.0368724	,	3
10,13	,	80024	,	-16944	,	-13609	,	3.1704888	,	3
10,13	,	80056	,	-16926	,	-13618	,	3.5949354	,	3
10,13	,	80072	,	-16957	,	-13595	,	3.0727844	,	2
10,13	,	80105	,	-16965	,	-13609	,	1.4919674	,	2
10,13	,	80120	,	-16928	,	-13606	,	-1.0612544	,	2
10,13	,	80137	,	-16945	,	-13600	,	-3.8803349	,	2
10,13	,	80168	,	-16958	,	-13599	,	-6.1937656	,	2
10,13	,	80184	,	-16951	,	-13595	,	-7.841757	,	2
10,13	,	80200	,	-16959	,	-13597	,	-8.941166	,	2
10,13	,	80232	,	-16941	,	-13603	,	-9.489095	,	1
10,13	,	80248	,	-16928	,	-13606	,	-9.256943	,	0
10,13	,	80280	,	-16967	,	-13598	,	-8.08855	,	0
10,13	,	80296	,	-16973	,	-13606	,	-6.504494	,	1
10,13	,	80312	,	-16977	,	-13596	,	-5.4361596	,	2
10,13	,	80345	,	-16964	,	-13604	,	-5.3301764	,	3
10,13	,	80361	,	-16965	,	-13598	,	-5.906913	,	3
10,13	,	80376	,	-16926	,	-13587	,	-6.421975	,	3
10,13	,	80408	,	-16937	,	-13588	,	-5.9893055	,	3
10,13	,	80424	,	-16913	,	-13588	,	-4.061186	,	3
10,13	,	80440	,	-16905	,	-13580	,	-0.5939684	,	4
10,13	,	80472	,	-16899	,	-13581	,	4.1419864	,	7
10,13	,	80488	,	-16914	,	-13586	,	9.506476	,	10
10,13	,	80520	,	-16897	,	-13578	,	14.558883	,	14
10,13	,	80536	,	-16893	,	-13583	,	18.579758	,	18
10,13	,	80553	,	-16879	,	-13562	,	21.379173	,	22
10,13	,	80584	,	-16886	,	-13558	,	23.06771	,	24
10,13	,	80600	,	-16869	,	-13555	,	23.790676	,	25
10,13	,	80616	,	-16864	,	-13555	,	23.772339	,	25
10,13	,	80648	,	-16877	,	-13550	,	23.241306	,	24
10,13	,	80664	,	-16865	,	-13545	,	22.2131	,	21
10,13	,	80696	,	-16865	,	-13538	,	20.670853	,	17
10,13	,	80712	,	-16871	,	-13538	,	18.718796	,	12
10,13	,	80728	,	-16861	,	-13544	,	16.45917	,	7
10,14	,	80760	,	-16856	,	-13536	,	14.081043	,	3
10,14	,	80776	,	-16854	,	-13542	,	11.903481	,	1
10,14	,	80792	,	-16864	,	-13538	,	10.112905	,	0
10,14	,	80824	,	-16863	,	-13538	,	8.613926	,	0
10,14	,	80840	,	-16859	,	-13540	,	7.2280884	,	0
10,14	,	80856	,	-16871	,	-13548	,	5.8603964	,	0
10,14	,	80888	,	-16864	,	-13546	,	4.4391646	,	0
10,14	,	80904	,	-16878	,	-13542	,	2.9035773	,	0
10,14	,	80936	,	-16872	,	-13547	,	1.2373135	,	0
10,14	,	80952	,	-16859	,	-13545	,	-0.41770315	,	0
10,14	,	80968	,	-16868	,	-13555	,	-1.7204461	,	0
10,14	,	81000	,	-16878	,	-13560	,	-2.4965878	,	0
10,14	,	81016	,	-16877	,	-13564	,	-2.9437907	,	0
10,14	,	81032	,	-16871	,	-13555	,	-3.2876015	,	0
10,14	,	81064	,	-16888	,	-13560	,	-3.59721	,	0
10,14	,	81080	,	-16886	,	-13565	,	-3.984816	,	0
10,14	,	81112	,	-16875	,	-13563	,	-4.5211782	,	0
10,14	,	81128	,	-16888	,	-13565	,	-5.0502443	,	0
10,14	,	81144	,	-16889	,	-13566	,	-5.436946	,	0
10,14	,	81176	,	-16884	,	-13575	,	-5.6902905	,	0
10,14	,	81192	,	-16889	,	-13571	,	-5.7866	,	0
10,14	,	81208	,	-16893	,	-13567	,	-5.710824	,	0
10,14	,	81240	,	-16896	,	-13568	,	-5.561103	,	0
10,14	,	81256	,	-16883	,	-13569	,	-5.3973103	,	0
10,14	,	81272	,	-16891	,	-13563	,	-5.113645	,	0
10,14	,	81304	,	-16917	,	-13571	,	-4.7462406	,	0
10,14	,	81320	,	-16899	,	-13573	,	-4.63997	,	0
10,14	,	81352	,	-16886	,	-13572	,	-4.8751183	,	0
10,14	,	81368	,	-16885	,	-13570	,	-4.9907255	,	0
10,14	,	81384	,	-16859	,	-13566	,	-4.405072	,	0
10,14	,	81416	,	-16843	,	-13571	,	-2.607661	,	0
10,14	,	81432	,	-16842	,	-13565	,	0.7110138	,	1
10,14	,	81448	,	-16829	,	-13562	,	5.3680525	,	4
10,14	,	81480	,	-16827	,	-13571	,	10.764262	,	8
10,14	,	81496	,	-16828	,	-13568	,	16.137186	,	13
10,14	,	81528	,	-16810	,	-13566	,	20.782589	,	18
10,14	,	81544	,	-16797	,	-13567	,	24.377552	,	22
10,14	,	81560	,	-16808	,	-13561	,	26.927433	,	25
10,14	,	81592	,	-16801	,	-13568	,	28.359867	,	27
10,14	,	81608	,	-16803	,	-13558	,	28.520905	,	28
10,14	,	81624	,	-16804	,	-13565	,	27.398523	,	27
10,14	,	81656	,	-16794	,	-13570	,	25.170822	,	24
10,14	,	81672	,	-16797	,	-13572	,	22.199839	,	20
10,14	,	81688	,	-16823	,	-13576	,	18.76745	,	15
10,14	,	81720	,	-16827	,	-13576	,	14.785841	,	10
10,14	,	81736	,	-16827	,	-13573	,	10.111353	,	6
10,15	,	81768	,	-16835	,	-13576	,	4.9448013	,	3
10,15	,	81784	,	-16842	,	-13578	,	-0.31567383	,	1
10,15	,	81800	,	-16849	,	-13577	,	-5.3334	,	0
10,15	,	81832	,	-16847	,	-13577	,	-9.827482	,	0
10,15	,	81848	,	-16863	,	-13584	,	-13.557062	,	0
10,15	,	81864	,	-16836	,	-13590	,	-16.308985	,	0
10,15	,	81896	,	-16862	,	-13591	,	-17.85073	,	0
10,15	,	81912	,	-16835	,	-13590	,	-18.0654	,	0
10,15	,	81944	,	-16860	,	-13591	,	-17.048027	,	0
10,15	,	81960	,	-16861	,	-13591	,	-15.161795	,	1
10,15	,	81976	,	-16863	,	-13585	,	-12.989821	,	2
10,15	,	82008	,	-16838	,	-13591	,	-10.872511	,	4
10,15	,	82024	,	-16854	,	-13594	,	-8.716282	,	6
10,15	,	82039	,	-16862	,	-13597	,	-6.494961	,	8
10,15	,	82071	,	-16861	,	-13594	,	-4.5297294	,	10
10,15	,	82087	,	-16882	,	-13598	,	-3.2296295	,	11
10,15	,	82120	,	-16891	,	-13596	,	-2.9686627	,	12
10,15	,	82136	,	-16862	,	-13594	,	-3.838639	,	12
10,15	,	82152	,	-16848	,	-13591	,	-5.183598	,	11
10,15	,	82183	,	-16876	,	-13594	,	-6.055553	,	10
10,15	,	82200	,	-16876	,	-13607	,	-6.1995625	,	8
10,15	,	82215	,	-16910	,	-13594	,	-6.146941	,	6
10,15	,	82247	,	-16924	,	-13610	,	-6.742836	,	4
10,15	,	82264	,	-16893	,	-13610	,	-8.489822	,	2
10,15	,	82280	,	-16923	,	-13624	,	-11.055944	,	1
10,15	,	82312	,	-16917	,	-13608	,	-13.792327	,	0
10,15	,	82327	,	-16896	,	-13610	,	-16.153336	,	0
10,15	,	82359	,	-16925	,	-13609	,	-17.596474	,	0
10,15	,	82375	,	-16912	,	-13615	,	-17.91035	,	0
10,15	,	82391	,	-16945	,	-13603	,	-17.388039	,	0
10,15	,	82423	,	-16885	,	-13606	,	-16.340813	,	0
10,15	,	82440	,	-16906	,	-13613	,	-14.586825	,	1
10,15	,	82456	,	-16902	,	-13598	,	-11.840328	,	2
10,15	,	82488	,	-16879	,	-13603	,	-8.233425	,	4
10,15	,	82504	,	-16876	,	-13600	,	-3.9639869	,	7
10,15	,	82535	,	-16884	,	-13597	,	0.76009417	,	11
10,15	,	82551	,	-16865	,	-13598	,	5.4764214	,	15
10,15	,	82567	,	-16862	,	-13593	,	9.7760315	,	19
10,15	,	82600	,	-16860	,	-13597	,	13.473812	,	23
10,15	,	82615	,	-16863	,	-13587	,	16.379808	,	26
10,15	,	82631	,	-16852	,	-13587	,	18.284916	,	27
10,15	,	82664	,	-16847	,	-13591	,	19.179977	,	27
10,15	,	82680	,	-16843	,	-13596	,	19.279902	,	25
10,15	,	82695	,	-16875	,	-13581	,	18.680918	,	22
10,15	,	82727	,	-16854	,	-13593	,	17.186794	,	18
10,16	,	82743	,	-16834	,	-13589	,	14.876617	,	14
10,16	,	82775	,	-16866	,	-13584	,	12.301065	,	10
10,16	,	82791	,	-16863	,	-13595	,	9.736113	,	6
10,16	,	82807	,	-16850	,	-13585	,	7.116855	,	3
10,16	,	82839	,	-16867	,	-13589	,	4.553717	,	1
10,16	,	82855	,	-16869	,	-13585	,	2.1668968	,	0
10,16	,	82871	,	-16874	,	-13589	,	-0.113891125	,	0
10,16	,	82903	,	-16865	,	-13588	,	-2.2970982	,	0
10,16	,	82919	,	-16876	,	-13598	,	-4.221504	,	0
10,16	,	82951	,	-16883	,	-13578	,	-5.7853184	,	0
10,16	,	82967	,	-16884	,	-13584	,	-7.074626	,	0
10,16	,	82983	,	-16887	,	-13580	,	-8.187714	,	0
10,16	,	83015	,	-16884	,	-13576	,	-9.093266	,	0
10,16	,	83031	,	-16895	,	-13578	,	-9.713103	,	0
10,16	,	83047	,	-16875	,	-13570	,	-9.975749	,	0
10,16	,	83079	,	-16896	,	-13566	,	-9.783514	,	0
10,16	,	83095	,	-16893	,	-13574	,	-9.180025	,	0
10,16	,	83111	,	-16889	,	-13566	,	-8.367553	,	0
10,16	,	83143	,	-16889	,	-13571	,	-7.4338517	,	0
10,16	,	83159	,	-16897	,	-13578	,	-6.3963456	,	0
10,16	,	83191	,	-16890	,	-13563	,	-5.3637247	,	1
10,16	,	83207	,	-16904	,	-13570	,	-4.4781485	,	2
10,16	,	83223	,	-16905	,	-13573	,	-3.9088447	,	2
10,16	,	83255	,	-16910	,	-13580	,	-3.8234031	,	2
10,16	,	83271	,	-16910	,	-13575	,	-4.2500606	,	2
10,16	,	83287	,	-16909	,	-13579	,	-5.0313478	,	2
10,16	,	83319	,	-16923	,	-13585	,	-5.957528	,	2
10,16	,	83335	,	-16912	,	-13584	,	-6.9017777	,	2
10,16	,	83367	,	-16930	,	-13589	,	-7.7850676	,	2
10,16	,	83383	,	-16918	,	-13593	,	-8.542909	,	1
10,16	,	83399	,	-16926	,	-13607	,	-9.095708	,	0
10,16	,	83431	,	-16940	,	-13597	,	-9.418334	,	0
10,16	,	83447	,	-16950	,	-13601	,	-9.737535	,	0
10,16	,	83463	,	-16928	,	-13604	,	-10.271185	,	0
10,16	,	83495	,	-16943	,	-13606	,	-10.839293	,	0
10,16	,	83511	,	-16935	,	-13606	,	-11.110269	,	0
10,16	,	83527	,	-16920	,	-13600	,	-10.8323765	,	0
10,16	,	83559	,	-16911	,	-13593	,	-9.682995	,	0
10,16	,	83575	,	-16907	,	-13589	,	-7.396859	,	1
10,16	,	83607	,	-16913	,	-13598	,	-4.0936627	,	3
10,16	,	83623	,	-16878	,	-13588	,	-0.146554	,	6
10,16	,	83639	,	-16874	,	-13587	,	4.270299	,	9
10,16	,	83671	,	-16874	,	-13581	,	9.084345	,	13
10,16	,	83687	,	-16830	,	-13578	,	14.099999	,	17
10,16	,	83703	,	-16836	,	-13569	,	19.245546	,	22
10,16	,	83735	,	-16824	,	-13573	,	24.415962	,	27
10,17	,	83751	,	-16828	,	-13577	,	29.137808	,	32
10,17	,	83783	,	-16818	,	-13574	,	32.79458	,	35
10,17	,	83799	,	-16827	,	-13574	,	34.916428	,	36
10,17	,	83815	,	-16818	,	-13573	,	35.25499	,	35
10,17	,	83847	,	-16817	,	-13575	,	33.859436	,	32
10,17	,	83863	,	-16818	,	-13580	,	31.060413	,	28
10,17	,	83879	,	-16807	,	-13574	,	27.329626	,	24
10,17	,	83911	,	-16831	,	-13577	,	23.106054	,	19
10,17	,	83927	,	-16813	,	-13577	,	18.654469	,	14
10,17	,	83943	,	-16852	,	-13576	,	14.064909	,	9
10,17	,	83975	,	-16845	,	-13587	,	9.244805	,	5
10,17	,	83991	,	-16857	,	-13587	,	4.094717	,	2
10,17	,	84023	,	-16845	,	-13587	,	-1.1536565	,	0
10,17	,	84039	,	-16855	,	-13589	,	-5.9741607	,	0
10,17	,	84055	,	-16871	,	-13594	,	-9.95782	,	0
10,17	,	84087	,	-16858	,	-13588	,	-13.020831	,	0
10,17	,	84103	,	-16865	,	-13594	,	-15.126255	,	0
10,17	,	84119	,	-16863	,	-13596	,	-16.173244	,	0
10,17	,	84151	,	-16874	,	-13598	,	-16.222214	,	0
10,17	,	84167	,	-16875	,	-13601	,	-15.551043	,	0
10,17	,	84199	,	-16893	,	-13599	,	-14.574131	,	0
10,17	,	84215	,	-16887	,	-13601	,	-13.715862	,	0
10,17	,	84231	,	-16887	,	-13603	,	-13.166911	,	0
10,17	,	84263	,	-16895	,	-13601	,	-12.82979	,	0
10,17	,	84279	,	-16900	,	-13603	,	-12.590186	,	0
10,17	,	84295	,	-16934	,	-13605	,	-12.596699	,	0
10,17	,	84327	,	-16936	,	-13611	,	-13.288817	,	0
10,17	,	84343	,	-16893	,	-13618	,	-14.749411	,	0
10,17	,	84359	,	-16909	,	-13606	,	-16.167206	,	0
10,17	,	84391	,	-16927	,	-13608	,	-16.701616	,	0
10,17	,	84407	,	-16950	,	-13613	,	-16.473274	,	0
10,17	,	84439	,	-16934	,	-13619	,	-16.142195	,	0
10,17	,	84455	,	-16950	,	-13615	,	-16.049562	,	0
10,17	,	84471	,	-16972	,	-13621	,	-16.269104	,	0
10,17	,	84503	,	-16966	,	-13619	,	-16.959946	,	0
10,17	,	84519	,	-16931	,	-13618	,	-17.927227	,	0
10,17	,	84535	,	-16979	,	-13623	,	-18.504423	,	0
10,17	,	84566	,	-16982	,	-13627	,	-18.49846	,	0
10,17	,	84582	,	-17002	,	-13632	,	-18.44764	,	0
10,17	,	84614	,	-17005	,	-13628	,	-18.896759	,	0
10,17	,	84630	,	-17001	,	-13635	,	-19.940693	,	0
10,17	,	84646	,	-17017	,	-13637	,	-21.272816	,	0
10,17	,	84679	,	-17011	,	-13637	,	-22.50798	,	0
10,17	,	84695	,	-17016	,	-13641	,	-23.335854	,	0
10,17	,	84711	,	-17012	,	-13642	,	-23.481544	,	0
10,18	,	84743	,	-17006	,	-13647	,	-22.732817	,	0
10,18	,	84759	,	-17015	,	-13645	,	-21.008602	,	0
10,18	,	84791	,	-17022	,	-13653	,	-18.512142	,	1
10,18	,	84807	,	-17025	,	-13660	,	-15.720139	,	3
10,18	,	84823	,	-17013	,	-13668	,	-13.043586	,	5
10,18	,	84854	,	-17027	,	-13660	,	-10.632556	,	7
10,18	,	84870	,	-17026	,	-13664	,	-8.572299	,	9
10,18	,	84886	,	-17041	,	-13674	,	-7.041718	,	11
10,18	,	84918	,	-17034	,	-13667	,	-6.2065086	,	12
10,18	,	84934	,	-17035	,	-13675	,	-6.0218987	,	12
10,18	,	84951	,	-17036	,	-13674	,	-6.218899	,	12
10,18	,	84982	,	-17042	,	-13675	,	-6.537788	,	11
10,18	,	84998	,	-17035	,	-13670	,	-6.832058	,	9
10,18	,	85030	,	-17036	,	-13665	,	-6.954854	,	7
10,18	,	85046	,	-17024	,	-13666	,	-6.701337	,	5
10,18	,	85062	,	-16991	,	-13669	,	-5.708524	,	3
10,18	,	85094	,	-17035	,	-13658	,	-3.659879	,	1
10,18	,	85110	,	-17025	,	-13666	,	-0.922277	,	2
10,18	,	85127	,	-17028	,	-13669	,	1.6475942	,	4
10,18	,	85158	,	-17048	,	-13671	,	3.3927174	,	6
10,18	,	85174	,	-17042	,	-13670	,	3.907516	,	7
10,18	,	85206	,	-17050	,	-13665	,	3.0800004	,	7
10,18	,	85222	,	-17049	,	-13665	,	1.1782576	,	7
10,18	,	85238	,	-17046	,	-13665	,	-1.315126	,	7
10,18	,	85270	,	-17061	,	-13659	,	-3.906692	,	7
10,18	,	85286	,	-17046	,	-13654	,	-6.2483826	,	7
10,18	,	85303	,	-17048	,	-13668	,	-8.042545	,	5
10,18	,	85334	,	-17036	,	-13646	,	-8.951576	,	3
10,18	,	85351	,	-17058	,	-13656	,	-8.837632	,	1
10,18	,	85366	,	-17076	,	-13662	,	-8.08753	,	0
10,18	,	85398	,	-17082	,	-13660	,	-7.5065565	,	0
10,18	,	85414	,	-17082	,	-13665	,	-7.711828	,	0
10,18	,	85446	,	-17092	,	-13663	,	-8.7910595	,	0
10,18	,	85462	,	-17091	,	-13670	,	-10.495927	,	0
10,18	,	85478	,	-17101	,	-13668	,	-12.480117	,	0
10,18	,	85510	,	-17102	,	-13673	,	-14.427118	,	0
10,18	,	85526	,	-17109	,	-13683	,	-16.106922	,	0
10,18	,	85542	,	-17119	,	-13692	,	-17.40603	,	0
10,18	,	85574	,	-17128	,	-13687	,	-18.376228	,	0
10,18	,	85590	,	-17139	,	-13701	,	-19.193068	,	0
10,18	,	85622	,	-17150	,	-13705	,	-20.054752	,	0
10,18	,	85638	,	-17155	,	-13712	,	-21.089478	,	0
10,18	,	85654	,	-17158	,	-13718	,	-22.253376	,	0
10,18	,	85686	,	-17168	,	-13722	,	-23.358501	,	0
10,18	,	85702	,	-17151	,	-13729	,	-24.131931	,	0
10,18	,	85718	,	-17161	,	-13740	,	-24.199944	,	0
10,19	,	85750	,	-17172	,	-13739	,	-23.355152	,	0
10,19	,	85766	,	-17166	,	-13735	,	-21.776829	,	0
10,19	,	85782	,	-17168	,	-13748	,	-19.731886	,	1
10,19	,	85814	,	-17184	,	-13753	,	-17.441113	,	3
10,19	,	85830	,	-17212	,	-13767	,	-15.387447	,	5
10,19	,	85862	,	-17210	,	-13775	,	-14.275169	,	7
10,19	,	85878	,	-17220	,	-13787	,	-14.483618	,	8
10,19	,	85894	,	-17230	,	-13792	,	-15.869024	,	8
10,19	,	85926	,	-17230	,	-13788	,	-18.027027	,	8
10,19	,	85942	,	-17232	,	-13793	,	-20.418236	,	8
10,19	,	85974	,	-17245	,	-13802	,	-22.500164	,	8
10,19	,	85990	,	-17240	,	-13814	,	-23.937483	,	7
10,19	,	86006	,	-17255	,	-13824	,	-24.6063	,	5
10,19	,	86038	,	-17268	,	-13833	,	-24.61457	,	3
10,19	,	86054	,	-17274	,	-13835	,	-24.302658	,	1
10,19	,	86070	,	-17300	,	-13859	,	-24.081606	,	0
10,19	,	86102	,	-17317	,	-13870	,	-24.398438	,	0
10,19	,	86118	,	-17325	,	-13886	,	-25.620125	,	0
10,19	,	86134	,	-17340	,	-13890	,	-27.766937	,	0
10,19	,	86166	,	-17345	,	-13896	,	-30.518887	,	0
10,19	,	86182	,	-17350	,	-13898	,	-33.369095	,	0
10,19	,	86214	,	-17359	,	-13909	,	-35.76838	,	0
10,19	,	86230	,	-17360	,	-13906	,	-37.296547	,	0
10,19	,	86246	,	-17362	,	-13914	,	-37.693325	,	0
10,19	,	86278	,	-17365	,	-13902	,	-36.83012	,	0
10,19	,	86294	,	-17368	,	-13904	,	-34.75847	,	0
10,19	,	86310	,	-17363	,	-13913	,	-31.67459	,	2
10,19	,	86342	,	-17369	,	-13908	,	-27.827059	,	5
10,19	,	86358	,	-17385	,	-13910	,	-23.611708	,	8
10,19	,	86390	,	-17382	,	-13911	,	-19.606564	,	12
10,19	,	86406	,	-17382	,	-13907	,	-16.244333	,	16
10,19	,	86422	,	-17387	,	-13913	,	-13.616167	,	19
10,19	,	86454	,	-17397	,	-13912	,	-11.698842	,	21
10,19	,	86470	,	-17394	,	-13913	,	-10.497349	,	22
10,19	,	86486	,	-17397	,	-13909	,	-9.916489	,	23
10,19	,	86518	,	-17402	,	-13920	,	-9.7459135	,	21
10,19	,	86534	,	-17409	,	-13914	,	-9.829067	,	18
10,19	,	86566	,	-17411	,	-13917	,	-10.115152	,	15
10,19	,	86582	,	-17420	,	-13914	,	-10.580842	,	11
10,19	,	86597	,	-17425	,	-13920	,	-11.21295	,	7
10,19	,	86630	,	-17424	,	-13922	,	-11.979592	,	4
10,19	,	86646	,	-17414	,	-13920	,	-12.688264	,	2
10,19	,	86662	,	-17411	,	-13925	,	-12.951029	,	1
10,19	,	86693	,	-17401	,	-13920	,	-12.370085	,	0
10,19	,	86709	,	-17406	,	-13925	,	-10.756754	,	0
10,19	,	86725	,	-17393	,	-13915	,	-8.2076235	,	1
10,20	,	86758	,	-17399	,	-13915	,	-5.00962	,	3
10,20	,	86774	,	-17394	,	-13916	,	-1.5500641	,	6
10,20	,	86806	,	-17384	,	-13911	,	1.8021674	,	9
10,20	,	86822	,	-17370	,	-13907	,	4.918783	,	12
10,20	,	86838	,	-17371	,	-13902	,	7.8780317	,	15
10,20	,	86869	,	-17366	,	-13904	,	10.670863	,	17
10,20	,	86885	,	-17359	,	-13898	,	13.140999	,	19
10,20	,	86901	,	-17356	,	-13903	,	15.155337	,	21
10,20	,	86934	,	-17351	,	-13899	,	16.65714	,	22
10,20	,	86950	,	-17351	,	-13904	,	17.612131	,	21
10,20	,	86982	,	-17354	,	-13890	,	17.9518	,	18
10,20	,	86998	,	-17341	,	-13887	,	17.628033	,	15
10,20	,	87014	,	-17336	,	-13887	,	16.797653	,	12
10,20	,	87045	,	-17337	,	-13891	,	15.7661495	,	9
10,20	,	87061	,	-17344	,	-13888	,	14.675822	,	7
10,20	,	87077	,	-17336	,	-13892	,	13.454945	,	5
10,20	,	87110	,	-17344	,	-13884	,	12.034443	,	3
10,20	,	87126	,	-17345	,	-13892	,	10.395323	,	1
10,20	,	87142	,	-17346	,	-13888	,	8.52577	,	0
10,20	,	87173	,	-17343	,	-13891	,	6.499219	,	0
10,20	,	87189	,	-17343	,	-13893	,	4.4934587	,	0
10,20	,	87221	,	-17338	,	-13877	,	2.7168214	,	0
10,20	,	87237	,	-17345	,	-13885	,	1.326293	,	0
10,20	,	87253	,	-17347	,	-13879	,	0.32615328	,	0
10,20	,	87286	,	-17353	,	-13886	,	-0.43783593	,	0
10,20	,	87302	,	-17354	,	-13886	,	-1.1565272	,	0
10,20	,	87318	,	-17352	,	-13885	,	-1.928649	,	0
10,20	,	87349	,	-17352	,	-13879	,	-2.7043672	,	0
10,20	,	87365	,	-17357	,	-13890	,	-3.373119	,	0
10,20	,	87397	,	-17354	,	-13880	,	-3.8766913	,	0
10,20	,	87413	,	-17360	,	-13879	,	-4.2081513	,	0
10,20	,	87429	,	-17368	,	-13889	,	-4.4401717	,	0
10,20	,	87461	,	-17369	,	-13875	,	-4.739587	,	0
10,20	,	87477	,	-17366	,	-13882	,	-5.203904	,	0
10,20	,	87494	,	-17375	,	-13878	,	-5.774626	,	0
10,20	,	87526	,	-17373	,	-13877	,	-6.364195	,	0
10,20	,	87541	,	-17382	,	-13871	,	-6.9392104	,	0
10,20	,	87557	,	-17377	,	-13862	,	-7.483802	,	0
10,20	,	87589	,	-17382	,	-13862	,	-7.941926	,	0
10,20	,	87605	,	-17384	,	-13865	,	-8.242809	,	0
10,20	,	87637	,	-17378	,	-13859	,	-8.336309	,	0
10,20	,	87653	,	-17378	,	-13858	,	-8.137563	,	0
10,20	,	87669	,	-17385	,	-13866	,	-7.5909443	,	0
10,20	,	87701	,	-17384	,	-13854	,	-6.7916627	,	0
10,20	,	87717	,	-17390	,	-13852	,	-5.927106	,	0
10,20	,	87733	,	-17376	,	-13853	,	-5.1150436	,	0
10,21	,	87765	,	-17363	,	-13851	,	-4.221826	,	0
10,21	,	87781	,	-17367	,	-13844	,	-2.9288325	,	0
10,21	,	87813	,	-17354	,	-13840	,	-1.0594251	,	1
10,21	,	87829	,	-17338	,	-13845	,	1.4093076	,	2
10,21	,	87845	,	-17332	,	-13843	,	4.5146847	,	4
10,21	,	87877	,	-17333	,	-13842	,	8.146354	,	7
10,21	,	87893	,	-17328	,	-13844	,	11.896196	,	10
10,21	,	87909	,	-17311	,	-13855	,	15.323801	,	13
10,21	,	87941	,	-17305	,	-13838	,	18.264742	,	16
10,21	,	87957	,	-17291	,	-13842	,	20.77546	,	18
10,21	,	87973	,	-17282	,	-13839	,	22.960205	,	20
10,21	,	88005	,	-17285	,	-13840	,	24.843018	,	21
10,21	,	88021	,	-17287	,	-13845	,	26.222515	,	21
10,21	,	88053	,	-17279	,	-13843	,	26.775862	,	20
10,21	,	88069	,	-17283	,	-13841	,	26.336023	,	17
10,21	,	88085	,	-17283	,	-13835	,	24.915266	,	14
10,21	,	88117	,	-17278	,	-13837	,	22.631182	,	11
10,21	,	88133	,	-17267	,	-13839	,	19.790707	,	8
10,21	,	88149	,	-17270	,	-13848	,	16.85508	,	6
10,21	,	88181	,	-17272	,	-13832	,	14.1642	,	4
10,21	,	88197	,	-17267	,	-13837	,	11.816593	,	2
10,21	,	88229	,	-17270	,	-13835	,	9.809048	,	1
10,21	,	88245	,	-17271	,	-13839	,	8.097668	,	0
10,21	,	88261	,	-17260	,	-13831	,	6.6406617	,	0
10,21	,	88293	,	-17254	,	-13836	,	5.5470867	,	0
10,21	,	88309	,	-17258	,	-13842	,	4.99148	,	0
10,21	,	88325	,	-17261	,	-13839	,	4.9275475	,	0
10,21	,	88357	,	-17263	,	-13840	,	5.0663395	,	0
10,21	,	88373	,	-17264	,	-13837	,	5.101736	,	0
10,21	,	88405	,	-17259	,	-13842	,	4.8790674	,	0
10,21	,	88421	,	-17270	,	-13837	,	4.3756666	,	0
10,21	,	88437	,	-17270	,	-13838	,	3.5649357	,	0
10,21	,	88469	,	-17271	,	-13844	,	2.425408	,	0
10,21	,	88485	,	-17265	,	-13839	,	1.0732813	,	0
10,21	,	88501	,	-17275	,	-13846	,	-0.2808367	,	0
10,21	,	88533	,	-17269	,	-13843	,	-1.4910032	,	0
10,21	,	88549	,	-17276	,	-13845	,	-2.492627	,	0
10,21	,	88565	,	-17273	,	-13842	,	-3.2503777	,	0
10,21	,	88597	,	-17283	,	-13840	,	-3.7867618	,	0
10,21	,	88613	,	-17286	,	-13841	,	-4.2273264	,	0
10,21	,	88645	,	-17285	,	-13850	,	-4.716891	,	0
10,21	,	88661	,	-17290	,	-13845	,	-5.286741	,	0
10,21	,	88677	,	-17295	,	-13846	,	-5.905905	,	0
10,21	,	88709	,	-17309	,	-13841	,	-6.632564	,	0
10,21	,	88725	,	-17302	,	-13850	,	-7.580082	,	0
10,22	,	88741	,	-17309	,	-13852	,	-8.711643	,	0
10,22	,	88773	,	-17313	,	-13850	,	-9.848442	,	0
10,22	,	88789	,	-17312	,	-13852	,	-10.8429	,	0
10,22	,	88821	,	-17316	,	-13848	,	-11.580568	,	0
10,22	,	88837	,	-17315	,	-13843	,	-11.954493	,	0
10,22	,	88853	,	-17315	,	-13851	,	-11.89422	,	0
10,22	,	88885	,	-17315	,	-13838	,	-11.370993	,	0
10,22	,	88901	,	-17315	,	-13845	,	-10.407749	,	0
10,22	,	88917	,	-17320	,	-13850	,	-9.107429	,	0
10,22	,	88949	,	-17313	,	-13841	,	-7.6375895	,	1
10,22	,	88965	,	-17301	,	-13847	,	-6.0626	,	2
10,22	,	88981	,	-17296	,	-13848	,	-4.238902	,	3
10,22	,	89013	,	-17298	,	-13851	,	-2.0321858	,	4
10,22	,	89029	,	-17291	,	-13844	,	0.46807098	,	6
10,22	,	89060	,	-17287	,	-13841	,	3.0482597	,	8
10,22	,	89077	,	-17289	,	-13843	,	5.5002966	,	10
10,22	,	89093	,	-17277	,	-13842	,	7.6475515	,	12
10,22	,	89125	,	-17284	,	-13831	,	9.380234	,	14
10,22	,	89141	,	-17271	,	-13838	,	10.646492	,	14
10,22	,	89157	,	-17258	,	-13830	,	11.5395775	,	14
10,22	,	89189	,	-17261	,	-13834	,	12.316866	,	13
10,22	,	89205	,	-17261	,	-13832	,	13.095217	,	12
10,22	,	89236	,	-17273	,	-13836	,	13.656286	,	10
10,22	,	89253	,	-17270	,	-13831	,	13.619957	,	8
10,22	,	89268	,	-17268	,	-13836	,	12.769352	,	6
10,22	,	89301	,	-17266	,	-13833	,	11.210163	,	4
10,22	,	89317	,	-17268	,	-13834	,	9.231324	,	2
10,22	,	89332	,	-17262	,	-13836	,	7.1382585	,	1
10,22	,	89364	,	-17268	,	-13829	,	5.193016	,	0
10,22	,	89380	,	-17269	,	-13836	,	3.5320973	,	0
10,22	,	89397	,	-17264	,	-13838	,	2.1697047	,	0
10,22	,	89429	,	-17274	,	-13837	,	1.0860662	,	0
10,22	,	89445	,	-17269	,	-13834	,	0.22016943	,	0
10,22	,	89476	,	-17277	,	-13841	,	-0.52019083	,	0
10,22	,	89492	,	-17282	,	-13837	,	-1.2445822	,	0
10,22	,	89508	,	-17270	,	-13833	,	-2.0218656	,	0
10,22	,	89540	,	-17283	,	-13831	,	-2.7744205	,	0
10,22	,	89556	,	-17275	,	-13830	,	-3.3890564	,	0
10,22	,	89572	,	-17281	,	-13839	,	-3.8187637	,	0
10,22	,	89605	,	-17292	,	-13819	,	-4.106922	,	0
10,22	,	89621	,	-17288	,	-13832	,	-4.416504	,	0
10,22	,	89652	,	-17296	,	-13825	,	-4.880105	,	0
10,22	,	89669	,	-17289	,	-13832	,	-5.476248	,	0
10,22	,	89685	,	-17290	,	-13827	,	-6.0432367	,	0
10,22	,	89716	,	-17296	,	-13822	,	-6.3988576	,	0
10,22	,	89733	,	-17296	,	-13824	,	-6.505755	,	0
10,23	,	89749	,	-17303	,	-13825	,	-6.458893	,	0
10,23	,	89780	,	-17303	,	-13824	,	-6.3847313	,	0
10,23	,	89796	,	-17312	,	-13817	,	-6.402829	,	0
10,23	,	89812	,	-17305	,	-13821	,	-6.575463	,	0
10,23	,	89844	,	-17308	,	-13800	,	-6.825889	,	0
10,23	,	89860	,	-17306	,	-13808	,	-6.9803348	,	0
10,23	,	89892	,	-17311	,	-13802	,	-6.920948	,	0
10,23	,	89908	,	-17312	,	-13807	,	-6.6572285	,	0
10,23	,	89925	,	-17311	,	-13798	,	-6.264067	,	0
10,23	,	89956	,	-17316	,	-13795	,	-5.8008013	,	0
10,23	,	89972	,	-17314	,	-13796	,	-5.315755	,	0
10,23	,	89988	,	-17315	,	-13801	,	-4.8395157	,	0
10,23	,	90020	,	-17319	,	-13796	,	-4.384118	,	0
10,23	,	90036	,	-17317	,	-13795	,	-3.9875467	,	0
10,23	,	90068	,	-17320	,	-13806	,	-3.681659	,	0
10,23	,	90084	,	-17324	,	-13783	,	-3.481656	,	0
10,23	,	90100	,	-17322	,	-13800	,	-3.4162765	,	0
10,23	,	90132	,	-17323	,	-13800	,	-3.4725037	,	0
10,23	,	90148	,	-17320	,	-13800	,	-3.5629914	,	0
10,23	,	90165	,	-17314	,	-13796	,	-3.5463235	,	0
10,23	,	90196	,	-17307	,	-13802	,	-3.223518	,	0
10,23	,	90212	,	-17308	,	-13804	,	-2.4163237	,	0
10,23	,	90244	,	-17290	,	-13799	,	-1.0441262	,	0
10,23	,	90260	,	-17288	,	-13796	,	0.9389694	,	1
10,23	,	90276	,	-17291	,	-13800	,	3.4639137	,	2
10,23	,	90308	,	-17284	,	-13813	,	6.2100816	,	4
10,23	,	90324	,	-17272	,	-13798	,	8.830805	,	6
10,23	,	90340	,	-17277	,	-13794	,	11.162357	,	8
10,23	,	90372	,	-17274	,	-13804	,	13.067874	,	10
10,23	,	90388	,	-17283	,	-13799	,	14.315924	,	11
10,23	,	90404	,	-17274	,	-13806	,	14.697476	,	12
10,23	,	90436	,	-17271	,	-13799	,	14.218187	,	12
10,23	,	90452	,	-17265	,	-13803	,	13.1443405	,	11
10,23	,	90484	,	-17268	,	-13797	,	11.815382	,	10
10,23	,	90500	,	-17262	,	-13805	,	10.467848	,	8
10,23	,	90516	,	-17259	,	-13797	,	9.252861	,	6
10,23	,	90548	,	-17261	,	-13808	,	8.2678795	,	4
10,23	,	90564	,	-17271	,	-13798	,	7.454225	,	2
10,23	,	90580	,	-17257	,	-13802	,	6.6419625	,	1
10,23	,	90612	,	-17270	,	-13801	,	5.7576265	,	0
10,23	,	90628	,	-17260	,	-13810	,	4.8182054	,	0
10,23	,	90660	,	-17268	,	-13808	,	3.8488793	,	0
10,23	,	90676	,	-17271	,	-13804	,	2.855464	,	0
10,23	,	90692	,	-17254	,	-13802	,	1.8741734	,	0
10,23	,	90724	,	-17270	,	-13804	,	1.0562707	,	0
10,23	,	90740	,	-17255	,	-13807	,	0.53193057	,	0
10,24	,	90756	,	-17255	,	-13809	,	0.36773837	,	0
10,24	,	90788	,	-17267	,	-13808	,	0.56851685	,	0
10,24	,	90804	,	-17276	,	-13803	,	0.8680272	,	0
10,24	,	90820	,	-17280	,	-13803	,	0.8120168	,	0
10,24	,	90852	,	-17278	,	-13804	,	0.12975231	,	0
10,24	,	90868	,	-17292	,	-13807	,	-1.1673735	,	0
10,24	,	90900	,	-17287	,	-13813	,	-2.9469366	,	0
10,24	,	90916	,	-17296	,	-13803	,	-5.006664	,	0
10,24	,	90932	,	-17294	,	-13805	,	-7.0803742	,	0
10,24	,	90964	,	-17305	,	-13811	,	-8.947696	,	0
10,24	,	90980	,	-17301	,	-13806	,	-10.485861	,	0
10,24	,	90996	,	-17311	,	-13816	,	-11.633542	,	0
10,24	,	91028	,	-17317	,	-13814	,	-12.417673	,	0
10,24	,	91044	,	-17321	,	-13808	,	-12.967281	,	0
10,24	,	91076	,	-17324	,	-13808	,	-13.397768	,	0
10,24	,	91092	,	-17318	,	-13807	,	-13.691681	,	0
10,24	,	91108	,	-17327	,	-13809	,	-13.7162895	,	0
10,24	,	91140	,	-17325	,	-13809	,	-13.385328	,	0
10,24	,	91156	,	-17329	,	-13814	,	-12.734749	,	0
10,24	,	91172	,	-17328	,	-13812	,	-11.840004	,	0
10,24	,	91204	,	-17323	,	-13812	,	-10.737828	,	0
10,24	,	91220	,	-17325	,	-13814	,	-9.410388	,	1
10,24	,	91236	,	-17318	,	-13810	,	-7.835167	,	2
10,24	,	91268	,	-17316	,	-13810	,	-6.010627	,	3
10,24	,	91284	,	-17307	,	-13807	,	-3.9357076	,	4
10,24	,	91316	,	-17301	,	-13806	,	-1.5953782	,	6
10,24	,	91331	,	-17300	,	-13805	,	0.99013996	,	8
10,24	,	91348	,	-17298	,	-13803	,	3.6691437	,	10
10,24	,	91380	,	-17293	,	-13807	,	6.199642	,	12
10,24	,	91396	,	-17286	,	-13808	,	8.408412	,	14
10,24	,	91412	,	-17291	,	-13810	,	10.207075	,	15
10,24	,	91444	,	-17277	,	-13807	,	11.531696	,	15
10,24	,	91460	,	-17283	,	-13801	,	12.387122	,	15
10,24	,	91492	,	-17282	,	-13801	,	12.7891655	,	14
10,24	,	91508	,	-17275	,	-13793	,	12.7121525	,	12
10,24	,	91524	,	-17282	,	-13801	,	12.184912	,	10
10,24	,	91556	,	-17275	,	-13805	,	11.279409	,	8
10,24	,	91572	,	-17290	,	-13800	,	10.0362215	,	6
10,24	,	91588	,	-17276	,	-13800	,	8.482538	,	4
10,24	,	91619	,	-17276	,	-13793	,	6.7700872	,	2
10,24	,	91635	,	-17287	,	-13796	,	5.129405	,	1
10,24	,	91651	,	-17282	,	-13799	,	3.6280658	,	0
10,24	,	91683	,	-17296	,	-13795	,	2.1813552	,	0
10,24	,	91699	,	-17297	,	-13799	,	0.65623283	,	0
10,24	,	91732	,	-17289	,	-13804	,	-0.9989195	,	0
10,25	,	91748	,	-17293	,	-13792	,	-2.6033473	,	0
10,25	,	91764	,	-17299	,	-13807	,	-3.9252753	,	0
10,25	,	91796	,	-17301	,	-13803	,	-4.9232364	,	0
10,25	,	91812	,	-17302	,	-13804	,	-5.6745687	,	0
10,25	,	91828	,	-17307	,	-13808	,	-6.2411814	,	0
10,25	,	91860	,	-17307	,	-13804	,	-6.663721	,	0
10,25	,	91876	,	-17322	,	-13810	,	-7.023928	,	0
10,25	,	91907	,	-17319	,	-13806	,	-7.471826	,	0
10,25	,	91923	,	-17324	,	-13802	,	-8.097249	,	0
10,25	,	91939	,	-17318	,	-13811	,	-8.80081	,	0
10,25	,	91971	,	-17325	,	-13806	,	-9.36635	,	0
10,25	,	91987	,	-17324	,	-13793	,	-9.634023	,	0
10,25	,	92003	,	-17335	,	-13801	,	-9.610575	,	0
10,25	,	92035	,	-17338	,	-13797	,	-9.462317	,	0
10,25	,	92052	,	-17342	,	-13796	,	-9.395259	,	0
10,25	,	92068	,	-17346	,	-13797	,	-9.522689	,	0
10,25	,	92100	,	-17340	,	-13786	,	-9.804974	,	0
10,25	,	92115	,	-17349	,	-13788	,	-10.080318	,	0
10,25	,	92147	,	-17341	,	-13792	,	-10.1823435	,	0
10,25	,	92163	,	-17352	,	-13790	,	-10.017588	,	0
10,25	,	92180	,	-17356	,	-13794	,	-9.625519	,	0
10,25	,	92212	,	-17353	,	-13796	,	-9.15618	,	0
10,25	,	92228	,	-17354	,	-13780	,	-8.683294	,	0
10,25	,	92243	,	-17353	,	-13791	,	-8.155096	,	0
10,25	,	92275	,	-17367	,	-13802	,	-7.5680833	,	0
10,25	,	92291	,	-17368	,	-13797	,	-7.08682	,	0
10,25	,	92323	,	-17360	,	-13792	,	-6.853904	,	0
10,25	,	92339	,	-17346	,	-13789	,	-6.685711	,	0
10,25	,	92355	,	-17351	,	-13795	,	-6.1717787	,	0
10,25	,	92387	,	-17341	,	-13790	,	-5.048519	,	0
10,25	,	92403	,	-17324	,	-13791	,	-3.2201796	,	1
10,25	,	92420	,	-17319	,	-13794	,	-0.58145046	,	2
10,25	,	92451	,	-17331	,	-13795	,	2.7656803	,	4
10,25	,	92467	,	-17316	,	-13787	,	6.3336067	,	7
10,25	,	92483	,	-17314	,	-13799	,	9.613514	,	10
10,25	,	92515	,	-17297	,	-13797	,	12.408587	,	13
10,25	,	92531	,	-17293	,	-13795	,	14.784513	,	15
10,25	,	92563	,	-17292	,	-13794	,	16.837997	,	17
10,25	,	92579	,	-17285	,	-13795	,	18.5234	,	19
10,25	,	92595	,	-17285	,	-13788	,	19.716429	,	19
10,25	,	92627	,	-17286	,	-13785	,	20.292267	,	19
10,25	,	92643	,	-17276	,	-13786	,	20.167698	,	17
10,25	,	92659	,	-17268	,	-13787	,	19.453697	,	14
10,25	,	92691	,	-17273	,	-13798	,	18.416088	,	11
10,25	,	92707	,	-17261	,	-13777	,	17.2538	,	8
10,26	,	92739	,	-17261	,	-13784	,	16.093225	,	6
10,26	,	92755	,	-17259	,	-13780	,	15.032145	,	4
10,26	,	92771	,	-17248	,	-13780	,	14.120239	,	2
10,26	,	92803	,	-17244	,	-13780	,	13.44075	,	1
10,26	,	92819	,	-17242	,	-13778	,	13.078395	,	0
10,26	,	92835	,	-17250	,	-13785	,	12.938768	,	0
10,26	,	92867	,	-17242	,	-13786	,	12.7571335	,	0
10,26	,	92883	,	-17228	,	-13782	,	12.405184	,	0
10,26	,	92899	,	-17234	,	-13788	,	12.023397	,	0
10,26	,	92931	,	-17240	,	-13798	,	11.683145	,	0
10,26	,	92947	,	-17244	,	-13781	,	11.170895	,	0
10,26	,	92979	,	-17247	,	-13790	,	10.203111	,	0
10,26	,	92995	,	-17257	,	-13795	,	8.612776	,	0
10,26	,	93011	,	-17252	,	-13783	,	6.3800917	,	0
10,26	,	93043	,	-17263	,	-13793	,	3.6578803	,	0
10,26	,	93059	,	-17255	,	-13790	,	0.7237668	,	0
10,26	,	93075	,	-17262	,	-13794	,	-2.094756	,	0
10,26	,	93107	,	-17267	,	-13797	,	-4.5298486	,	0
10,26	,	93123	,	-17262	,	-13795	,	-6.451042	,	0
10,26	,	93155	,	-17277	,	-13797	,	-7.8270383	,	0
10,26	,	93171	,	-17273	,	-13799	,	-8.741337	,	0
10,26	,	93187	,	-17276	,	-13789	,	-9.319393	,	0
10,26	,	93219	,	-17285	,	-13798	,	-9.640184	,	0
10,26	,	93235	,	-17292	,	-13796	,	-9.846165	,	0
10,26	,	93251	,	-17288	,	-13803	,	-10.107205	,	0
10,26	,	93283	,	-17295	,	-13806	,	-10.445216	,	0
10,26	,	93299	,	-17299	,	-13805	,	-10.786643	,	0
10,26	,	93315	,	-17297	,	-13810	,	-11.07345	,	0
10,26	,	93347	,	-17294	,	-13801	,	-11.196304	,	0
10,26	,	93363	,	-17297	,	-13805	,	-10.98598	,	0
10,26	,	93395	,	-17303	,	-13806	,	-10.388362	,	0
10,26	,	93411	,	-17304	,	-13811	,	-9.546606	,	0
10,26	,	93427	,	-17305	,	-13796	,	-8.656234	,	0
10,26	,	93459	,	-17295	,	-13802	,	-7.779701	,	0
10,26	,	93475	,	-17282	,	-13796	,	-6.743071	,	0
10,26	,	93491	,	-17273	,	-13795	,	-5.19453	,	1
10,26	,	93523	,	-17273	,	-13798	,	-2.881916	,	2
10,26	,	93539	,	-17274	,	-13797	,	0.08749342	,	4
10,26	,	93571	,	-17252	,	-13798	,	3.3853674	,	6
10,26	,	93587	,	-17253	,	-13791	,	6.79684	,	9
10,26	,	93603	,	-17245	,	-13801	,	10.190283	,	12
10,26	,	93635	,	-17242	,	-13786	,	13.350251	,	15
10,26	,	93651	,	-17234	,	-13794	,	16.049946	,	18
10,26	,	93667	,	-17228	,	-13779	,	18.16361	,	20
10,26	,	93699	,	-17232	,	-13793	,	19.633335	,	21
10,26	,	93715	,	-17225	,	-13785	,	20.38279	,	21
10,27	,	93747	,	-17223	,	-13788	,	20.377342	,	19
10,27	,	93763	,	-17229	,	-13787	,	19.660114	,	17
10,27	,	93779	,	-17216	,	-13790	,	18.31202	,	14
10,27	,	93811	,	-17218	,	-13785	,	16.535557	,	11
10,27	,	93827	,	-17225	,	-13788	,	14.569655	,	8
10,27	,	93843	,	-17227	,	-13780	,	12.473346	,	5
10,27	,	93875	,	-17226	,	-13790	,	10.210432	,	3
10,27	,	93891	,	-17235	,	-13792	,	7.7983785	,	1
10,27	,	93907	,	-17230	,	-13786	,	5.297395	,	0
10,27	,	93939	,	-17228	,	-13787	,	2.8563414	,	0
10,27	,	93954	,	-17234	,	-13790	,	0.6931889	,	0
10,27	,	93987	,	-17233	,	-13797	,	-1.0622635	,	0
10,27	,	94003	,	-17242	,	-13797	,	-2.4181914	,	0
10,27	,	94019	,	-17238	,	-13789	,	-3.460792	,	0
10,27	,	94051	,	-17252	,	-13791	,	-4.3095746	,	0
10,27	,	94067	,	-17248	,	-13794	,	-5.104178	,	0
10,27	,	94083	,	-17248	,	-13791	,	-5.903562	,	0
10,27	,	94115	,	-17252	,	-13796	,	-6.6188	,	0
10,27	,	94130	,	-17258	,	-13791	,	-7.1722317	,	0
10,27	,	94163	,	-17260	,	-13788	,	-7.602215	,	0
10,27	,	94179	,	-17265	,	-13787	,	-7.9804206	,	0
10,27	,	94195	,	-17270	,	-13788	,	-8.364168	,	0
10,27	,	94227	,	-17270	,	-13788	,	-8.793119	,	0
10,27	,	94243	,	-17278	,	-13785	,	-9.266404	,	0
10,27	,	94259	,	-17281	,	-13788	,	-9.776738	,	0
10,27	,	94291	,	-17284	,	-13781	,	-10.327844	,	0
10,27	,	94306	,	-17282	,	-13780	,	-10.859774	,	0
10,27	,	94322	,	-17277	,	-13784	,	-11.193998	,	0
10,27	,	94354	,	-17280	,	-13778	,	-11.103037	,	0
10,27	,	94371	,	-17287	,	-13772	,	-10.503237	,	0
10,27	,	94403	,	-17288	,	-13775	,	-9.550707	,	0
10,27	,	94419	,	-17295	,	-13781	,	-8.523411	,	0
10,27	,	94435	,	-17302	,	-13782	,	-7.7044287	,	1
10,27	,	94467	,	-17305	,	-13776	,	-7.31991	,	1
10,27	,	94482	,	-17311	,	-13782	,	-7.459985	,	1
10,27	,	94499	,	-17309	,	-13794	,	-8.047804	,	1
10,27	,	94531	,	-17304	,	-13785	,	-8.829658	,	1
10,27	,	94546	,	-17294	,	-13794	,	-9.383459	,	1
10,27	,	94578	,	-17281	,	-13786	,	-9.206896	,	1
10,27	,	94594	,	-17275	,	-13796	,	-7.883456	,	1
10,27	,	94610	,	-17276	,	-13789	,	-5.3176465	,	2
10,27	,	94643	,	-17266	,	-13793	,	-1.8094225	,	3
10,27	,	94659	,	-17254	,	-13792	,	2.2169101	,	6
10,27	,	94675	,	-17259	,	-13792	,	6.4061847	,	10
10,27	,	94707	,	-17251	,	-13788	,	10.365722	,	14
10,27	,	94722	,	-17249	,	-13787	,	13.693067	,	17
10,28	,	94738	,	-17244	,	-13787	,	16.14393	,	20
10,28	,	94770	,	-17239	,	-13788	,	17.66412	,	22
10,28	,	94786	,	-17245	,	-13792	,	18.299595	,	23
10,28	,	94818	,	-17238	,	-13784	,	18.097761	,	22
10,28	,	94834	,	-17238	,	-13793	,	17.158272	,	20
10,28	,	94850	,	-17240	,	-13783	,	15.667318	,	17
10,28	,	94883	,	-17232	,	-13789	,	13.830423	,	13
10,28	,	94899	,	-17229	,	-13790	,	11.904476	,	9
10,28	,	94914	,	-17230	,	-13785	,	10.160711	,	6
10,28	,	94946	,	-17222	,	-13797	,	8.764782	,	3
10,28	,	94962	,	-17217	,	-13791	,	7.8180285	,	1
10,28	,	94994	,	-17217	,	-13794	,	7.384644	,	0
10,28	,	95010	,	-17233	,	-13793	,	7.3181486	,	0
10,28	,	95026	,	-17223	,	-13798	,	7.23416	,	0
10,28	,	95058	,	-17219	,	-13796	,	6.868416	,	0
10,28	,	95075	,	-17219	,	-13802	,	6.280332	,	0
10,28	,	95090	,	-17231	,	-13795	,	5.5744467	,	0
10,28	,	95122	,	-17234	,	-13800	,	4.6571665	,	0
10,28	,	95138	,	-17235	,	-13800	,	3.3717113	,	0
10,28	,	95154	,	-17237	,	-13803	,	1.7165539	,	0
10,28	,	95186	,	-17242	,	-13805	,	-0.17010498	,	0
10,28	,	95202	,	-17240	,	-13798	,	-2.1194363	,	0
10,28	,	95234	,	-17237	,	-13802	,	-3.9144087	,	0
10,28	,	95250	,	-17255	,	-13804	,	-5.370793	,	0
10,28	,	95266	,	-17262	,	-13795	,	-6.574685	,	0
10,28	,	95298	,	-17255	,	-13803	,	-7.7514553	,	0
10,28	,	95314	,	-17262	,	-13812	,	-8.905615	,	0
10,28	,	95330	,	-17269	,	-13792	,	-9.909091	,	0
10,28	,	95362	,	-17270	,	-13809	,	-10.738029	,	0
10,28	,	95378	,	-17273	,	-13804	,	-11.405209	,	0
10,28	,	95410	,	-17277	,	-13806	,	-11.882413	,	0
10,28	,	95426	,	-17280	,	-13802	,	-12.153327	,	0
10,28	,	95442	,	-17278	,	-13814	,	-12.208387	,	0
10,28	,	95474	,	-17287	,	-13812	,	-12.032521	,	0
10,28	,	95490	,	-17284	,	-13806	,	-11.661967	,	0
10,28	,	95506	,	-17289	,	-13808	,	-11.162758	,	0
10,28	,	95538	,	-17280	,	-13816	,	-10.536371	,	0
10,28	,	95554	,	-17281	,	-13836	,	-9.69182	,	0
10,28	,	95570	,	-17280	,	-13802	,	-8.538801	,	0
10,28	,	95602	,	-17266	,	-13808	,	-7.028726	,	1
10,28	,	95618	,	-17265	,	-13810	,	-5.074866	,	2
10,28	,	95650	,	-17270	,	-13810	,	-2.6814208	,	3
10,28	,	95666	,	-17270	,	-13809	,	-0.12972355	,	5
10,28	,	95682	,	-17265	,	-13810	,	2.1942968	,	7
10,28	,	95714	,	-17268	,	-13810	,	4.043124	,	9
10,28	,	95730	,	-17263	,	-13808	,	5.3211207	,	10
10,29	,	95746	,	-17252	,	-13807	,	6.100199	,	11
10,29	,	95778	,	-17255	,	-13810	,	6.6121364	,	11
10,29	,	95794	,	-17256	,	-13815	,	7.0180583	,	10
10,29	,	95826	,	-17255	,	-13800	,	7.2830005	,	9
10,29	,	95842	,	-17253	,	-13805	,	7.324624	,	8
10,29	,	95858	,	-17261	,	-13811	,	7.0902324	,	6
10,29	,	95890	,	-17256	,	-13811	,	6.5233917	,	4
10,29	,	95906	,	-17251	,	-13806	,	5.66022	,	2
10,29	,	95922	,	-17258	,	-13804	,	4.670031	,	1
10,29	,	95954	,	-17257	,	-13809	,	3.683331	,	0
10,29	,	95970	,	-17271	,	-13809	,	2.6691015	,	0
10,29	,	95986	,	-17258	,	-13805	,	1.5231183	,	0
10,29	,	96018	,	-17268	,	-13806	,	0.2540623	,	0
10,29	,	96034	,	-17278	,	-13817	,	-1.0785991	,	0
10,29	,	96066	,	-17268	,	-13804	,	-2.4792142	,	0
10,29	,	96082	,	-17276	,	-13817	,	-3.856351	,	0
10,29	,	96098	,	-17276	,	-13813	,	-5.042991	,	0
10,29	,	96130	,	-17284	,	-13810	,	-5.9927554	,	0
10,29	,	96146	,	-17295	,	-13811	,	-6.8197184	,	0
10,29	,	96162	,	-17292	,	-13810	,	-7.7011046	,	0
10,29	,	96194	,	-17289	,	-13813	,	-8.64801	,	0
10,29	,	96210	,	-17290	,	-13810	,	-9.436941	,	0
10,29	,	96242	,	-17298	,	-13810	,	-9.861522	,	0
10,29	,	96258	,	-17295	,	-13804	,	-9.90283	,	0
10,29	,	96274	,	-17307	,	-13818	,	-9.6723	,	0
10,29	,	96306	,	-17309	,	-13802	,	-9.365761	,	0
10,29	,	96322	,	-17319	,	-13802	,	-9.214664	,	0
10,29	,	96338	,	-17321	,	-13804	,	-9.386432	,	0
10,29	,	96370	,	-17317	,	-13803	,	-9.880058	,	0
10,29	,	96386	,	-17324	,	-13803	,	-10.499517	,	0
10,29	,	96402	,	-17325	,	-13795	,	-11.025595	,	0
10,29	,	96434	,	-17335	,	-13794	,	-11.385767	,	0
10,29	,	96450	,	-17327	,	-13792	,	-11.595383	,	0
10,29	,	96482	,	-17339	,	-13793	,	-11.638193	,	0
10,29	,	96498	,	-17343	,	-13799	,	-11.540022	,	0
10,29	,	96514	,	-17344	,	-13811	,	-11.417797	,	0
10,29	,	96546	,	-17349	,	-13802	,	-11.340458	,	0
10,29	,	96562	,	-17335	,	-13797	,	-11.224936	,	0
10,29	,	96578	,	-17330	,	-13799	,	-10.7955	,	0
10,29	,	96609	,	-17319	,	-13800	,	-9.676312	,	0
10,29	,	96626	,	-17320	,	-13808	,	-7.63859	,	1
10,29	,	96658	,	-17317	,	-13802	,	-4.775147	,	3
10,29	,	96674	,	-17318	,	-13802	,	-1.4631553	,	5
10,29	,	96690	,	-17316	,	-13809	,	1.8232703	,	8
10,29	,	96722	,	-17304	,	-13803	,	4.732625	,	11
10,30	,	96738	,	-17296	,	-13808	,	7.195892	,	13
10,30	,	96753	,	-17301	,	-13808	,	9.300629	,	15
10,30	,	96785	,	-17291	,	-13801	,	11.044467	,	17
10,30	,	96801	,	-17291	,	-13808	,	12.372566	,	18
10,30	,	96833	,	-17298	,	-13802	,	13.220991	,	18
10,30	,	96849	,	-17289	,	-13805	,	13.4668	,	16
10,30	,	96865	,	-17293	,	-13808	,	13.06547	,	14
10,30	,	96897	,	-17290	,	-13807	,	12.113417	,	11
10,30	,	96913	,	-17281	,	-13803	,	10.801309	,	8
10,30	,	96929	,	-17302	,	-13807	,	9.327378	,	6
10,30	,	96962	,	-17284	,	-13808	,	7.7512293	,	4
10,30	,	96978	,	-17285	,	-13812	,	6.1553864	,	2
10,30	,	96994	,	-17288	,	-13800	,	4.746587	,	1
10,30	,	97026	,	-17286	,	-13808	,	3.6231744	,	0
10,30	,	97042	,	-17289	,	-13810	,	2.7459662	,	0
10,30	,	97074	,	-17285	,	-13815	,	2.0664814	,	0
10,30	,	97090	,	-17287	,	-13816	,	1.5617067	,	0
10,30	,	97105	,	-17285	,	-13812	,	1.218064	,	0
10,30	,	97138	,	-17288	,	-13819	,	1.0037171	,	0
10,30	,	97154	,	-17288	,	-13812	,	0.8599035	,	0
10,30	,	97170	,	-17287	,	-13817	,	0.7233595	,	0
10,30	,	97201	,	-17287	,	-13813	,	0.5682374	,	0
10,30	,	97217	,	-17290	,	-13817	,	0.3963751	,	0
10,30	,	97250	,	-17286	,	-13810	,	0.20878065	,	0
10,30	,	97266	,	-17290	,	-13812	,	0.015789688	,	0
10,30	,	97281	,	-17297	,	-13811	,	-0.2078515	,	0
10,30	,	97313	,	-17310	,	-13813	,	-0.62704766	,	0
10,30	,	97329	,	-17306	,	-13819	,	-1.4773552	,	0
10,30	,	97345	,	-17313	,	-13824	,	-2.821387	,	0
10,30	,	97377	,	-17316	,	-13827	,	-4.510622	,	0
10,30	,	97393	,	-17314	,	-13820	,	-6.315211	,	0
10,30	,	97409	,	-17308	,	-13819	,	-7.923654	,	0
10,30	,	97442	,	-17302	,	-13803	,	-8.949602	,	0
10,30	,	97457	,	-17312	,	-13809	,	-9.1305065	,	0
10,30	,	97489	,	-17304	,	-13804	,	-8.497819	,	0
10,30	,	97505	,	-17302	,	-13791	,	-7.2367187	,	0
10,30	,	97521	,	-17286	,	-13781	,	-5.4376874	,	1
10,30	,	97553	,	-17270	,	-13777	,	-3.0026963	,	2
10,30	,	97569	,	-17271	,	-13775	,	0.20703244	,	4
10,30	,	97585	,	-17248	,	-13764	,	4.14371	,	7
10,30	,	97617	,	-17247	,	-13758	,	8.604467	,	10
10,30	,	97633	,	-17234	,	-13759	,	13.306452	,	14
10,30	,	97665	,	-17226	,	-13754	,	17.90036	,	18
10,30	,	97681	,	-17216	,	-13751	,	22.08152	,	22
10,30	,	97697	,	-17211	,	-13750	,	25.622746	,	26
10,30	,	97729	,	-17194	,	-13727	,	28.379597	,	28
10,31	,	97745	,	-17186	,	-13737	,	30.373407	,	29
10,31	,	97761	,	-17174	,	-13733	,	31.761606	,	28
10,31	,	97793	,	-17170	,	-13728	,	32.683907	,	26
10,31	,	97809	,	-17159	,	-13722	,	33.187935	,	23
10,31	,	97825	,	-17156	,	-13725	,	33.27102	,	19
10,31	,	97857	,	-17161	,	-13725	,	32.856197	,	15
10,31	,	97873	,	-17169	,	-13731	,	31.698015	,	11
10,31	,	97905	,	-17180	,	-13731	,	29.434692	,	7
10,31	,	97921	,	-17169	,	-13743	,	25.872162	,	4
10,31	,	97937	,	-17185	,	-13753	,	21.19754	,	2
10,31	,	97969	,	-17192	,	-13742	,	15.771186	,	1
10,31	,	97985	,	-17198	,	-13749	,	9.889417	,	0
10,31	,	98017	,	-17207	,	-13762	,	3.8433752	,	0
10,31	,	98033	,	-17209	,	-13764	,	-2.0331483	,	0
10,31	,	98049	,	-17212	,	-13765	,	-7.371977	,	0
10,31	,	98081	,	-17222	,	-13767	,	-11.842609	,	0
10,31	,	98097	,	-17221	,	-13767	,	-15.276439	,	0
10,31	,	98113	,	-17232	,	-13766	,	-17.660551	,	0
10,31	,	98145	,	-17243	,	-13774	,	-19.14026	,	0
10,31	,	98161	,	-17236	,	-13777	,	-19.95636	,	0
10,31	,	98177	,	-17250	,	-13791	,	-20.253586	,	0
10,31	,	98209	,	-17253	,	-13772	,	-20.134325	,	0
10,31	,	98225	,	-17275	,	-13795	,	-19.845308	,	0
10,31	,	98257	,	-17277	,	-13794	,	-19.743952	,	0
10,31	,	98273	,	-17274	,	-13804	,	-20.01487	,	0
10,31	,	98289	,	-17292	,	-13807	,	-20.53464	,	0
10,31	,	98321	,	-17293	,	-13811	,	-21.137466	,	0
10,31	,	98337	,	-17286	,	-13802	,	-21.673637	,	0
10,31	,	98353	,	-17294	,	-13807	,	-21.855572	,	0
10,31	,	98385	,	-17307	,	-13803	,	-21.50072	,	0
10,31	,	98401	,	-17312	,	-13803	,	-20.771503	,	0
10,31	,	98417	,	-17322	,	-13802	,	-19.987257	,	0
10,31	,	98449	,	-17321	,	-13801	,	-19.370644	,	0
10,31	,	98465	,	-17336	,	-13802	,	-19.000362	,	0
10,31	,	98497	,	-17331	,	-13801	,	-18.868345	,	0
10,31	,	98513	,	-17336	,	-13803	,	-18.856396	,	0
10,31	,	98529	,	-17339	,	-13803	,	-18.759583	,	0
10,31	,	98561	,	-17345	,	-13802	,	-18.448107	,	0
10,31	,	98577	,	-17342	,	-13802	,	-17.892405	,	0
10,31	,	98593	,	-17348	,	-13803	,	-17.072351	,	0
10,31	,	98625	,	-17352	,	-13796	,	-16.009724	,	0
10,31	,	98641	,	-17344	,	-13805	,	-14.764816	,	1
10,31	,	98673	,	-17345	,	-13793	,	-13.312717	,	2
10,31	,	98689	,	-17343	,	-13802	,	-11.5816765	,	3
10,31	,	98705	,	-17343	,	-13804	,	-9.591837	,	4
10,31	,	98737	,	-17344	,	-13804	,	-7.465381	,	5
10,32	,	98753	,	-17334	,	-13810	,	-5.3264494	,	7
10,32	,	98769	,	-17338	,	-13808	,	-3.226406	,	9
10,32	,	98800	,	-17331	,	-13815	,	-1.2046988	,	11
10,32	,	98817	,	-17332	,	-13814	,	0.67199063	,	13
10,32	,	98849	,	-17333	,	-13826	,	2.322153	,	13
10,32	,	98865	,	-17332	,	-13821	,	3.6287313	,	13
10,32	,	98881	,	-17334	,	-13831	,	4.482271	,	13
10,32	,	98913	,	-17333	,	-13823	,	4.842519	,	12
10,32	,	98929	,	-17321	,	-13833	,	4.804325	,	11
10,32	,	98944	,	-17318	,	-13829	,	4.642559	,	9
10,32	,	98976	,	-17317	,	-13822	,	4.6525564	,	7
10,32	,	98993	,	-17321	,	-13819	,	4.917591	,	5
10,32	,	99009	,	-17297	,	-13820	,	5.3975315	,	3
10,32	,	99041	,	-17310	,	-13820	,	6.139821	,	2
10,32	,	99057	,	-17304	,	-13812	,	7.1196938	,	1
10,32	,	99088	,	-17306	,	-13811	,	8.103104	,	0
10,32	,	99105	,	-17289	,	-13811	,	8.908941	,	0
10,32	,	99121	,	-17290	,	-13825	,	9.596668	,	0
10,32	,	99153	,	-17294	,	-13807	,	10.255582	,	0
10,32	,	99169	,	-17284	,	-13819	,	10.808352	,	0
10,32	,	99185	,	-17285	,	-13814	,	11.159288	,	0
10,32	,	99217	,	-17281	,	-13808	,	11.295914	,	0
10,32	,	99233	,	-17283	,	-13818	,	11.203012	,	0
10,32	,	99265	,	-17285	,	-13812	,	10.822748	,	0
10,32	,	99281	,	-17284	,	-13807	,	10.08947	,	0
10,32	,	99296	,	-17282	,	-13809	,	9.016109	,	0
10,32	,	99328	,	-17274	,	-13813	,	7.758595	,	0
10,32	,	99344	,	-17260	,	-13804	,	6.642918	,	0
10,32	,	99360	,	-17270	,	-13808	,	6.0191774	,	0
10,32	,	99392	,	-17268	,	-13785	,	5.938979	,	0
10,32	,	99408	,	-17262	,	-13792	,	6.1747923	,	0
10,32	,	99424	,	-17274	,	-13798	,	6.476858	,	0
10,32	,	99456	,	-17271	,	-13800	,	6.590596	,	0
10,32	,	99473	,	-17276	,	-13792	,	6.292901	,	0
10,32	,	99505	,	-17277	,	-13792	,	5.502345	,	0
10,32	,	99521	,	-17275	,	-13791	,	4.2808504	,	0
10,32	,	99537	,	-17284	,	-13782	,	2.7762876	,	0
10,32	,	99568	,	-17277	,	-13790	,	1.1425872	,	0
10,32	,	99584	,	-17275	,	-13781	,	-0.42451358	,	0
10,32	,	99600	,	-17277	,	-13792	,	-1.6765026	,	0
10,32	,	99632	,	-17269	,	-13772	,	-2.429409	,	0
10,32	,	99648	,	-17271	,	-13775	,	-2.5965033	,	0
10,32	,	99680	,	-17259	,	-13772	,	-2.1502838	,	0
10,32	,	99696	,	-17244	,	-13767	,	-1.0188473	,	0
10,32	,	99712	,	-17242	,	-13763	,	0.9316076	,	1
10,33	,	99744	,	-17228	,	-13760	,	3.7047358	,	2
10,33	,	99760	,	-17237	,	-13762	,	7.048424	,	4
10,33	,	99776	,	-17229	,	-13762	,	10.481232	,	7
10,33	,	99808	,	-17217	,	-13752	,	13.531594	,	10
10,33	,	99824	,	-17202	,	-13750	,	16.060081	,	13
10,33	,	99840	,	-17209	,	-13762	,	18.161058	,	15
10,33	,	99873	,	-17208	,	-13737	,	19.780716	,	17
10,33	,	99889	,	-17200	,	-13745	,	20.704943	,	18
10,33	,	99920	,	-17201	,	-13745	,	20.837164	,	17
10,33	,	99936	,	-17197	,	-13743	,	20.245949	,	16
10,33	,	99952	,	-17194	,	-13749	,	19.073437	,	14
10,33	,	99984	,	-17189	,	-13744	,	17.521095	,	11
10,33	,	100000	,	-17193	,	-13739	,	15.791409	,	8
10,33	,	100016	,	-17187	,	-13739	,	14.010284	,	5
10,33	,	100048	,	-17192	,	-13732	,	12.24194	,	3
10,33	,	100064	,	-17184	,	-13742	,	10.538441	,	1
10,33	,	100096	,	-17194	,	-13750	,	8.943617	,	0
10,33	,	100112	,	-17201	,	-13734	,	7.3946133	,	0
10,33	,	100128	,	-17204	,	-13740	,	5.6936016	,	0
10,33	,	100160	,	-17209	,	-13743	,	3.6869693	,	0
10,33	,	100176	,	-17210	,	-13745	,	1.3863046	,	0
10,33	,	100192	,	-17210	,	-13745	,	-1.0481553	,	0
10,33	,	100224	,	-17223	,	-13749	,	-3.4156518	,	0
10,33	,	100240	,	-17221	,	-13748	,	-5.615471	,	0
10,33	,	100256	,	-17226	,	-13747	,	-7.59947	,	0
10,33	,	100288	,	-17228	,	-13750	,	-9.280304	,	0
10,33	,	100304	,	-17228	,	-13754	,	-10.559827	,	0
10,33	,	100336	,	-17233	,	-13757	,	-11.368273	,	0
10,33	,	100352	,	-17227	,	-13740	,	-11.674337	,	0
10,33	,	100368	,	-17234	,	-13747	,	-11.47086	,	0
10,33	,	100400	,	-17243	,	-13752	,	-10.859137	,	0
10,33	,	100416	,	-17238	,	-13755	,	-10.082916	,	0
10,33	,	100432	,	-17237	,	-13746	,	-9.301285	,	0
10,33	,	100464	,	-17241	,	-13749	,	-8.495818	,	0
10,33	,	100480	,	-17253	,	-13750	,	-7.702392	,	0
10,33	,	100512	,	-17259	,	-13747	,	-7.1563888	,	0
10,33	,	100528	,	-17259	,	-13754	,	-7.1062	,	0
10,33	,	100544	,	-17265	,	-13756	,	-7.5859103	,	0
10,33	,	100576	,	-17267	,	-13752	,	-8.450062	,	0
10,33	,	100592	,	-17269	,	-13748	,	-9.494823	,	0
10,33	,	100608	,	-17270	,	-13767	,	-10.495296	,	0
10,33	,	100640	,	-17285	,	-13770	,	-11.306918	,	0
10,33	,	100656	,	-17285	,	-13776	,	-11.969786	,	0
10,33	,	100672	,	-17287	,	-13784	,	-12.57089	,	0
10,33	,	100704	,	-17291	,	-13785	,	-13.0824585	,	0
10,33	,	100720	,	-17300	,	-13785	,	-13.454778	,	0
10,34	,	100752	,	-17292	,	-13784	,	-13.675013	,	0
10,34	,	100768	,	-17297	,	-13789	,	-13.660987	,	0
10,34	,	100784	,	-17297	,	-13799	,	-13.297867	,	0
10,34	,	100816	,	-17302	,	-13801	,	-12.574879	,	0
10,34	,	100832	,	-17315	,	-13813	,	-11.6513	,	0
10,34	,	100848	,	-17352	,	-13838	,	-11.007564	,	0
10,34	,	100880	,	-17366	,	-13857	,	-11.452889	,	0
10,34	,	100896	,	-17389	,	-13879	,	-13.673265	,	0
10,34	,	100928	,	-17421	,	-13908	,	-17.906599	,	0
10,34	,	100944	,	-17443	,	-13924	,	-24.0648	,	0
10,34	,	100960	,	-17475	,	-13955	,	-31.826643	,	0
10,34	,	100992	,	-17522	,	-13979	,	-40.778374	,	0
10,34	,	101008	,	-17557	,	-14013	,	-50.648453	,	0
10,34	,	101024	,	-17601	,	-14049	,	-61.24176	,	0
10,34	,	101056	,	-17623	,	-14057	,	-72.18695	,	0
10,34	,	101072	,	-17647	,	-14086	,	-82.773506	,	0
10,34	,	101104	,	-17701	,	-14121	,	-92.19871	,	0
10,34	,	101120	,	-17720	,	-14136	,	-100.02725	,	0
10,34	,	101136	,	-17728	,	-14132	,	-105.987335	,	0
10,34	,	101168	,	-17738	,	-14143	,	-109.523575	,	0
10,34	,	101184	,	-17736	,	-14145	,	-109.95238	,	0
10,34	,	101199	,	-17735	,	-14143	,	-106.7906	,	0
10,34	,	101232	,	-17731	,	-14137	,	-99.92044	,	3
10,34	,	101248	,	-17741	,	-14140	,	-89.74357	,	9
10,34	,	101264	,	-17750	,	-14155	,	-77.25867	,	19
10,34	,	101295	,	-17754	,	-14151	,	-63.847065	,	31
10,34	,	101312	,	-17782	,	-14177	,	-50.94276	,	44
10,34	,	101344	,	-17800	,	-14198	,	-39.907246	,	56
10,34	,	101360	,	-17821	,	-14219	,	-31.851707	,	67
10,34	,	101376	,	-17862	,	-14236	,	-27.458035	,	75
10,34	,	101408	,	-17880	,	-14262	,	-27.005447	,	79
10,34	,	101424	,	-17907	,	-14271	,	-30.261019	,	76
10,34	,	101440	,	-17900	,	-14257	,	-36.280643	,	70
10,34	,	101471	,	-17882	,	-14243	,	-43.34117	,	60
10,34	,	101487	,	-17846	,	-14227	,	-49.110878	,	48
10,34	,	101520	,	-17817	,	-14191	,	-51.23197	,	35
10,34	,	101536	,	-17766	,	-14147	,	-47.97368	,	23
10,34	,	101552	,	-17723	,	-14125	,	-38.510864	,	15
10,34	,	101583	,	-17714	,	-14126	,	-23.148252	,	16
10,34	,	101600	,	-17712	,	-14118	,	-3.6463757	,	27
10,34	,	101615	,	-17703	,	-14115	,	17.11164	,	46
10,34	,	101647	,	-17690	,	-14108	,	36.206768	,	66
10,34	,	101664	,	-17686	,	-14121	,	51.535156	,	85
10,34	,	101679	,	-17692	,	-14125	,	61.91147	,	100
10,34	,	101712	,	-17692	,	-14110	,	66.854164	,	110
10,34	,	101728	,	-17680	,	-14120	,	66.585754	,	114
10,35	,	101759	,	-17679	,	-14123	,	62.068382	,	111
10,35	,	101775	,	-17670	,	-14099	,	54.70896	,	102
10,35	,	101791	,	-17653	,	-14102	,	46.03023	,	87
10,35	,	101823	,	-17640	,	-14100	,	37.51772	,	68
10,35	,	101839	,	-17640	,	-14094	,	30.33203	,	48
10,35	,	101855	,	-17636	,	-14088	,	24.988941	,	29
10,35	,	101887	,	-17623	,	-14087	,	21.458284	,	14
10,35	,	101904	,	-17629	,	-14089	,	19.461197	,	4
10,35	,	101935	,	-17622	,	-14086	,	18.552227	,	0
10,35	,	101951	,	-17621	,	-14090	,	18.213535	,	0
10,35	,	101967	,	-17613	,	-14082	,	18.050419	,	0
10,35	,	101999	,	-17619	,	-14089	,	17.814201	,	0
10,35	,	102015	,	-17619	,	-14071	,	17.286472	,	0
10,35	,	102031	,	-17628	,	-14083	,	16.23714	,	0
10,35	,	102063	,	-17623	,	-14080	,	14.511018	,	0
10,35	,	102079	,	-17628	,	-14074	,	12.141783	,	0
10,35	,	102095	,	-17606	,	-14068	,	9.437326	,	0
10,35	,	102127	,	-17609	,	-14070	,	6.952811	,	0
10,35	,	102144	,	-17609	,	-14066	,	5.1695957	,	0
10,35	,	102176	,	-17614	,	-14054	,	4.16919	,	0
10,35	,	102191	,	-17610	,	-14062	,	3.719718	,	0
10,35	,	102207	,	-17604	,	-14053	,	3.5827928	,	0
10,35	,	102239	,	-17600	,	-14063	,	3.686061	,	0
10,35	,	102255	,	-17604	,	-14043	,	4.0293317	,	0
10,35	,	102271	,	-17602	,	-14036	,	4.513523	,	0
10,35	,	102303	,	-17595	,	-14039	,	4.996243	,	0
10,35	,	102319	,	-17601	,	-14037	,	5.40173	,	0
10,35	,	102352	,	-17593	,	-14037	,	5.679014	,	0
10,35	,	102367	,	-17594	,	-14038	,	5.812091	,	0
10,35	,	102383	,	-17592	,	-14034	,	5.8426948	,	0
10,35	,	102415	,	-17584	,	-14033	,	5.8319726	,	0
10,35	,	102431	,	-17590	,	-14029	,	5.8446145	,	0
10,35	,	102447	,	-17571	,	-14027	,	5.9497237	,	0
10,35	,	102479	,	-17560	,	-14027	,	6.340505	,	0
10,35	,	102495	,	-17551	,	-14011	,	7.331609	,	0
10,35	,	102511	,	-17549	,	-14016	,	9.067946	,	0
10,35	,	102543	,	-17544	,	-14010	,	11.364806	,	1
10,35	,	102559	,	-17537	,	-14002	,	13.8569	,	3
10,35	,	102591	,	-17529	,	-14000	,	16.224083	,	5
10,35	,	102607	,	-17511	,	-13990	,	18.339886	,	7
10,35	,	102623	,	-17510	,	-13984	,	20.257483	,	9
10,35	,	102655	,	-17512	,	-13984	,	21.959623	,	10
10,35	,	102671	,	-17503	,	-13979	,	23.226974	,	11
10,35	,	102687	,	-17500	,	-13980	,	23.85791	,	12
10,35	,	102719	,	-17502	,	-13976	,	23.786217	,	12
10,35	,	102735	,	-17502	,	-13976	,	22.972023	,	11
10,36	,	102767	,	-17498	,	-13967	,	21.413597	,	9
10,36	,	102783	,	-17500	,	-13969	,	19.236357	,	7
10,36	,	102799	,	-17504	,	-13966	,	16.626284	,	5
10,36	,	102831	,	-17505	,	-13971	,	13.728553	,	3
10,36	,	102847	,	-17506	,	-13969	,	10.677599	,	2
10,36	,	102863	,	-17506	,	-13966	,	7.6464233	,	1
10,36	,	102895	,	-17511	,	-13968	,	4.803662	,	0
10,36	,	102911	,	-17517	,	-13972	,	2.2211614	,	0
10,36	,	102943	,	-17512	,	-13977	,	-0.10169649	,	0
10,36	,	102959	,	-17519	,	-13968	,	-2.1193202	,	0
10,36	,	102975	,	-17520	,	-13979	,	-3.7696922	,	0
10,36	,	103007	,	-17530	,	-13983	,	-5.0844355	,	0
10,36	,	103023	,	-17532	,	-13983	,	-6.193878	,	0
10,36	,	103039	,	-17532	,	-13978	,	-7.2108893	,	0
10,36	,	103071	,	-17538	,	-13979	,	-8.138137	,	0
10,36	,	103087	,	-17529	,	-13985	,	-8.890608	,	0
10,36	,	103103	,	-17546	,	-13986	,	-9.374592	,	0
10,36	,	103136	,	-17555	,	-13993	,	-9.671794	,	0
10,36	,	103151	,	-17547	,	-13993	,	-10.004042	,	0
10,36	,	103183	,	-17553	,	-14000	,	-10.409275	,	0
10,36	,	103199	,	-17557	,	-13993	,	-10.757711	,	0
10,36	,	103215	,	-17561	,	-14004	,	-10.989868	,	0
10,36	,	103247	,	-17563	,	-13998	,	-11.118723	,	0
10,36	,	103263	,	-17558	,	-13989	,	-11.116169	,	0
10,36	,	103279	,	-17551	,	-13999	,	-10.830521	,	0
10,36	,	103311	,	-17552	,	-13998	,	-10.047712	,	0
10,36	,	103327	,	-17545	,	-13996	,	-8.662432	,	0
10,36	,	103359	,	-17529	,	-13997	,	-6.642867	,	1
10,36	,	103375	,	-17533	,	-13986	,	-3.946364	,	3
10,36	,	103391	,	-17521	,	-13992	,	-0.6624975	,	5
10,36	,	103423	,	-17519	,	-13990	,	2.9555533	,	8
10,36	,	103439	,	-17510	,	-13972	,	6.6294184	,	11
10,36	,	103455	,	-17494	,	-13981	,	10.170273	,	14
10,36	,	103487	,	-17493	,	-13983	,	13.521706	,	17
10,36	,	103503	,	-17489	,	-13976	,	16.597477	,	20
10,36	,	103519	,	-17487	,	-13982	,	19.161497	,	23
10,36	,	103551	,	-17487	,	-13979	,	20.935492	,	24
10,36	,	103567	,	-17491	,	-13982	,	21.687393	,	23
10,36	,	103599	,	-17491	,	-13982	,	21.268538	,	21
10,36	,	103615	,	-17486	,	-13983	,	19.716991	,	18
10,36	,	103631	,	-17480	,	-13987	,	17.342146	,	15
10,36	,	103663	,	-17498	,	-13991	,	14.541092	,	12
10,36	,	103679	,	-17488	,	-13983	,	11.531031	,	9
10,36	,	103695	,	-17495	,	-13991	,	8.436923	,	6
10,36	,	103727	,	-17507	,	-13993	,	5.3775105	,	3
10,37	,	103743	,	-17505	,	-13995	,	2.366506	,	1
10,37	,	103775	,	-17507	,	-13993	,	-0.56047297	,	0
10,37	,	103791	,	-17518	,	-13998	,	-3.276963	,	0
10,37	,	103807	,	-17510	,	-14001	,	-5.6768446	,	0
10,37	,	103839	,	-17513	,	-13995	,	-7.6143785	,	0
10,37	,	103854	,	-17519	,	-14000	,	-8.931304	,	0
10,37	,	103870	,	-17518	,	-13997	,	-9.619498	,	0
10,37	,	103902	,	-17520	,	-14000	,	-9.776705	,	0
10,37	,	103919	,	-17528	,	-13983	,	-9.543505	,	0
10,37	,	103935	,	-17529	,	-13994	,	-9.131446	,	0
10,37	,	103967	,	-17526	,	-13994	,	-8.706386	,	0
10,37	,	103983	,	-17525	,	-13993	,	-8.254988	,	0
10,37	,	104015	,	-17526	,	-13988	,	-7.6689076	,	0
10,37	,	104031	,	-17530	,	-13988	,	-6.9152484	,	0
10,37	,	104047	,	-17534	,	-13989	,	-6.094641	,	0
10,37	,	104078	,	-17526	,	-13990	,	-5.3305597	,	0
10,37	,	104094	,	-17529	,	-13988	,	-4.628375	,	0
10,37	,	104110	,	-17536	,	-13986	,	-3.9587328	,	0
10,37	,	104143	,	-17537	,	-13998	,	-3.4081674	,	0
10,37	,	104159	,	-17531	,	-13980	,	-3.0689669	,	0
10,37	,	104190	,	-17536	,	-13986	,	-2.8927517	,	0
10,37	,	104206	,	-17534	,	-13978	,	-2.772092	,	0
10,37	,	104222	,	-17524	,	-13981	,	-2.5887523	,	0
10,37	,	104254	,	-17514	,	-13973	,	-2.1196241	,	0
10,37	,	104270	,	-17511	,	-13979	,	-1.0959527	,	0
10,37	,	104286	,	-17506	,	-13984	,	0.58879185	,	1
10,37	,	104319	,	-17492	,	-13974	,	2.8638518	,	2
10,37	,	104335	,	-17479	,	-13969	,	5.665464	,	4
10,37	,	104351	,	-17485	,	-13967	,	8.909721	,	6
10,37	,	104382	,	-17481	,	-13973	,	12.263984	,	9
10,37	,	104399	,	-17474	,	-13951	,	15.239592	,	12
10,37	,	104430	,	-17461	,	-13944	,	17.557865	,	14
10,37	,	104446	,	-17456	,	-13950	,	19.256754	,	16
10,37	,	104462	,	-17457	,	-13950	,	20.448587	,	17
10,37	,	104495	,	-17456	,	-13950	,	21.098747	,	17
10,37	,	104511	,	-17445	,	-13940	,	21.12583	,	16
10,37	,	104527	,	-17443	,	-13944	,	20.607365	,	14
10,37	,	104559	,	-17444	,	-13937	,	19.711666	,	12
10,37	,	104574	,	-17443	,	-13935	,	18.51487	,	9
10,37	,	104606	,	-17442	,	-13933	,	17.018764	,	6
10,37	,	104622	,	-17438	,	-13939	,	15.272878	,	4
10,37	,	104638	,	-17440	,	-13922	,	13.392457	,	2
10,37	,	104670	,	-17434	,	-13933	,	11.503472	,	1
10,37	,	104687	,	-17443	,	-13921	,	9.699841	,	0
10,37	,	104703	,	-17441	,	-13930	,	7.992801	,	0
10,37	,	104734	,	-17440	,	-13926	,	6.3494787	,	0
10,38	,	104750	,	-17442	,	-13926	,	4.790741	,	0
10,38	,	104766	,	-17441	,	-13924	,	3.3704503	,	0
10,38	,	104798	,	-17444	,	-13912	,	2.1237533	,	0
10,38	,	104814	,	-17435	,	-13919	,	1.097702	,	0
10,38	,	104846	,	-17439	,	-13921	,	0.37536085	,	0
10,38	,	104862	,	-17448	,	-13919	,	-0.051050663	,	0
10,38	,	104879	,	-17446	,	-13919	,	-0.36009896	,	0
10,38	,	104910	,	-17447	,	-13917	,	-0.7165117	,	0
10,38	,	104926	,	-17441	,	-13912	,	-1.1134521	,	0
10,38	,	104942	,	-17457	,	-13916	,	-1.4923317	,	0
10,38	,	104974	,	-17454	,	-13911	,	-1.9239707	,	0
10,38	,	104990	,	-17452	,	-13919	,	-2.4963245	,	0
10,38	,	105022	,	-17447	,	-13906	,	-3.0989766	,	0
10,38	,	105038	,	-17440	,	-13909	,	-3.460758	,	0
10,38	,	105054	,	-17457	,	-13907	,	-3.3990378	,	0
10,38	,	105086	,	-17447	,	-13902	,	-3.0112503	,	0
10,38	,	105102	,	-17446	,	-13899	,	-2.4878173	,	0
10,38	,	105118	,	-17453	,	-13895	,	-1.915447	,	0
10,38	,	105150	,	-17436	,	-13880	,	-1.3214134	,	0
10,38	,	105166	,	-17432	,	-13872	,	-0.5876659	,	0
10,38	,	105198	,	-17430	,	-13874	,	0.50221974	,	0
10,38	,	105214	,	-17428	,	-13868	,	1.9922031	,	1
10,38	,	105230	,	-17425	,	-13858	,	3.7169535	,	2
10,38	,	105262	,	-17419	,	-13857	,	5.4674006	,	3
10,38	,	105278	,	-17408	,	-13851	,	7.1461887	,	4
10,38	,	105294	,	-17398	,	-13846	,	8.833345	,	5
10,38	,	105326	,	-17381	,	-13848	,	10.729927	,	6
10,38	,	105342	,	-17377	,	-13833	,	13.015781	,	7
10,38	,	105358	,	-17373	,	-13829	,	15.661018	,	9
10,38	,	105390	,	-17349	,	-13827	,	18.468163	,	11
10,38	,	105406	,	-17342	,	-13829	,	21.34199	,	12
10,38	,	105438	,	-17339	,	-13825	,	24.230684	,	13
10,38	,	105454	,	-17325	,	-13817	,	26.922031	,	14
10,38	,	105470	,	-17327	,	-13821	,	29.13974	,	15
10,38	,	105502	,	-17311	,	-13816	,	30.674503	,	16
10,38	,	105518	,	-17303	,	-13824	,	31.47415	,	16
10,38	,	105534	,	-17314	,	-13814	,	31.57713	,	15
10,38	,	105566	,	-17311	,	-13814	,	30.865969	,	13
10,38	,	105582	,	-17302	,	-13800	,	29.197388	,	11
10,38	,	105614	,	-17307	,	-13813	,	26.686821	,	9
10,38	,	105630	,	-17315	,	-13809	,	23.549355	,	7
10,38	,	105646	,	-17298	,	-13803	,	19.970905	,	5
10,38	,	105678	,	-17302	,	-13800	,	16.286783	,	3
10,38	,	105694	,	-17295	,	-13799	,	12.922557	,	1
10,38	,	105710	,	-17297	,	-13794	,	10.157612	,	0
10,39	,	105742	,	-17292	,	-13802	,	8.086366	,	0
10,39	,	105758	,	-17294	,	-13795	,	6.6781344	,	0
10,39	,	105774	,	-17289	,	-13796	,	5.828686	,	0
10,39	,	105806	,	-17293	,	-13799	,	5.3920965	,	0
10,39	,	105822	,	-17301	,	-13788	,	5.141722	,	0
10,39	,	105854	,	-17293	,	-13794	,	4.8095846	,	0
10,39	,	105870	,	-17285	,	-13793	,	4.326144	,	0
10,39	,	105886	,	-17290	,	-13790	,	3.8612711	,	0
10,39	,	105918	,	-17283	,	-13793	,	3.5665343	,	0
10,39	,	105934	,	-17286	,	-13796	,	3.4696553	,	0
10,39	,	105950	,	-17291	,	-13788	,	3.4940438	,	0
10,39	,	105982	,	-17299	,	-13792	,	3.428453	,	0
10,39	,	105998	,	-17289	,	-13789	,	3.0498629	,	0
10,39	,	106030	,	-17299	,	-13795	,	2.319422	,	0
10,39	,	106046	,	-17293	,	-13795	,	1.3481965	,	0
10,39	,	106062	,	-17304	,	-13786	,	0.24949455	,	0
10,39	,	106094	,	-17296	,	-13790	,	-0.89699936	,	0
10,39	,	106110	,	-17310	,	-13793	,	-2.0305898	,	0
10,39	,	106126	,	-17311	,	-13794	,	-3.158602	,	0
10,39	,	106158	,	-17313	,	-13789	,	-4.332807	,	0
10,39	,	106174	,	-17314	,	-13792	,	-5.520105	,	0
10,39	,	106190	,	-17311	,	-13795	,	-6.5762186	,	0
10,39	,	106222	,	-17313	,	-13792	,	-7.316991	,	0
10,39	,	106238	,	-17314	,	-13800	,	-7.6180544	,	0
10,39	,	106270	,	-17321	,	-13799	,	-7.5080643	,	0
10,39	,	106286	,	-17325	,	-13809	,	-7.1740894	,	0
10,39	,	106302	,	-17328	,	-13791	,	-6.8568892	,	0
10,39	,	106334	,	-17320	,	-13794	,	-6.6733418	,	0
10,39	,	106350	,	-17319	,	-13798	,	-6.5180726	,	0
10,39	,	106366	,	-17308	,	-13794	,	-6.1324387	,	0
10,39	,	106398	,	-17298	,	-13791	,	-5.203083	,	0
10,39	,	106414	,	-17300	,	-13789	,	-3.5070548	,	0
10,39	,	106445	,	-17295	,	-13794	,	-1.1087496	,	1
10,39	,	106461	,	-17286	,	-13790	,	1.7109897	,	3
10,39	,	106477	,	-17289	,	-13782	,	4.6608515	,	5
10,39	,	106510	,	-17279	,	-13780	,	7.469171	,	7
10,39	,	106526	,	-17276	,	-13790	,	9.927618	,	9
10,39	,	106542	,	-17277	,	-13780	,	11.917358	,	11
10,39	,	106574	,	-17265	,	-13781	,	13.368291	,	12
10,39	,	106590	,	-17273	,	-13775	,	14.269945	,	13
10,39	,	106622	,	-17264	,	-13776	,	14.625037	,	13
10,39	,	106637	,	-17254	,	-13769	,	14.506033	,	12
10,39	,	106654	,	-17267	,	-13774	,	14.083422	,	10
10,39	,	106686	,	-17261	,	-13770	,	13.403416	,	8
10,39	,	106701	,	-17256	,	-13777	,	12.4314785	,	6
10,39	,	106717	,	-17261	,	-13768	,	11.244875	,	4
10,40	,	106750	,	-17258	,	-13775	,	9.935263	,	2
10,40	,	106765	,	-17252	,	-13783	,	8.579596	,	1
10,40	,	106781	,	-17260	,	-13773	,	7.2922277	,	0
10,40	,	106814	,	-17259	,	-13773	,	6.1110244	,	0
10,40	,	106830	,	-17275	,	-13771	,	4.907472	,	0
10,40	,	106861	,	-17270	,	-13776	,	3.4614496	,	0
10,40	,	106878	,	-17263	,	-13769	,	1.7259166	,	0
10,40	,	106893	,	-17264	,	-13772	,	-0.032035828	,	0
10,40	,	106926	,	-17267	,	-13777	,	-1.4922869	,	0
10,40	,	106942	,	-17275	,	-13774	,	-2.5554802	,	0
10,40	,	106958	,	-17272	,	-13771	,	-3.3157356	,	0
10,40	,	106989	,	-17269	,	-13773	,	-3.852329	,	0
10,40	,	107005	,	-17276	,	-13771	,	-4.155998	,	0
10,40	,	107037	,	-17279	,	-13768	,	-4.271739	,	0
10,40	,	107053	,	-17288	,	-13769	,	-4.36939	,	0
10,40	,	107069	,	-17279	,	-13774	,	-4.608836	,	0
10,40	,	107101	,	-17286	,	-13764	,	-4.9781013	,	0
10,40	,	107117	,	-17278	,	-13769	,	-5.3244505	,	0
10,40	,	107133	,	-17294	,	-13773	,	-5.5388265	,	0
10,40	,	107165	,	-17290	,	-13773	,	-5.671493	,	0
10,40	,	107181	,	-17297	,	-13771	,	-5.841372	,	0
10,40	,	107197	,	-17297	,	-13767	,	-6.1056933	,	0
10,40	,	107230	,	-17297	,	-13777	,	-6.439994	,	0
10,40	,	107245	,	-17308	,	-13767	,	-6.793704	,	0
10,40	,	107278	,	-17303	,	-13768	,	-7.1639037	,	0
10,40	,	107294	,	-17316	,	-13770	,	-7.575386	,	0
10,40	,	107309	,	-17327	,	-13769	,	-8.117288	,	0
10,40	,	107341	,	-17313	,	-13773	,	-8.886357	,	0
10,40	,	107358	,	-17313	,	-13765	,	-9.69604	,	0
10,40	,	107374	,	-17312	,	-13770	,	-10.144586	,	0
10,40	,	107405	,	-17316	,	-13768	,	-9.991188	,	0
10,40	,	107421	,	-17315	,	-13762	,	-9.256376	,	0
10,40	,	107453	,	-17301	,	-13759	,	-8.029558	,	0
10,40	,	107469	,	-17296	,	-13761	,	-6.2829843	,	1
10,40	,	107485	,	-17301	,	-13744	,	-3.997088	,	2
10,40	,	107517	,	-17287	,	-13748	,	-1.336355	,	4
10,40	,	107533	,	-17279	,	-13742	,	1.5299313	,	6
10,40	,	107549	,	-17274	,	-13740	,	4.5573363	,	8
10,40	,	107581	,	-17265	,	-13741	,	7.686376	,	11
10,40	,	107597	,	-17259	,	-13738	,	10.790176	,	14
10,40	,	107613	,	-17258	,	-13739	,	13.6957245	,	17
10,40	,	107645	,	-17246	,	-13735	,	16.20951	,	19
10,40	,	107661	,	-17253	,	-13732	,	18.172586	,	20
10,40	,	107693	,	-17253	,	-13736	,	19.396662	,	20
10,40	,	107709	,	-17251	,	-13736	,	19.67071	,	19
10,40	,	107725	,	-17253	,	-13730	,	18.927387	,	17
10,41	,	107757	,	-17253	,	-13734	,	17.270336	,	15
10,41	,	107773	,	-17247	,	-13736	,	14.933012	,	12
10,41	,	107789	,	-17244	,	-13734	,	12.293246	,	9
10,41	,	107821	,	-17255	,	-13740	,	9.715688	,	6
10,41	,	107837	,	-17237	,	-13740	,	7.4062386	,	4
10,41	,	107869	,	-17247	,	-13739	,	5.52417	,	2
10,41	,	107885	,	-17244	,	-13741	,	4.157274	,	1
10,41	,	107901	,	-17248	,	-13743	,	3.2109706	,	0
10,41	,	107933	,	-17250	,	-13745	,	2.510038	,	0
10,41	,	107949	,	-17244	,	-13748	,	1.9217392	,	0
10,41	,	107965	,	-17256	,	-13732	,	1.3711727	,	0
10,41	,	107997	,	-17250	,	-13745	,	0.7851834	,	0
10,41	,	108013	,	-17260	,	-13744	,	0.09606409	,	0
10,41	,	108029	,	-17253	,	-13751	,	-0.70702213	,	0
10,41	,	108061	,	-17257	,	-13743	,	-1.5540959	,	0
10,41	,	108077	,	-17254	,	-13744	,	-2.3152707	,	0
10,41	,	108109	,	-17255	,	-13749	,	-2.868275	,	0
10,41	,	108125	,	-17258	,	-13741	,	-3.148747	,	0
10,41	,	108141	,	-17255	,	-13740	,	-3.1742988	,	0
10,41	,	108173	,	-17260	,	-13750	,	-3.0173435	,	0
10,41	,	108189	,	-17256	,	-13746	,	-2.7601442	,	0
10,41	,	108205	,	-17262	,	-13735	,	-2.4786625	,	0
10,41	,	108237	,	-17252	,	-13743	,	-2.2042432	,	0
10,41	,	108253	,	-17253	,	-13742	,	-1.8701203	,	0
10,41	,	108285	,	-17248	,	-13745	,	-1.3588823	,	0
10,41	,	108301	,	-17248	,	-13746	,	-0.6093888	,	0
10,41	,	108317	,	-17249	,	-13742	,	0.3353778	,	0
10,41	,	108349	,	-17260	,	-13740	,	1.2790996	,	0
10,41	,	108365	,	-17252	,	-13742	,	1.9323676	,	0
10,41	,	108381	,	-17255	,	-13742	,	2.1488671	,	0
10,41	,	108413	,	-17248	,	-13742	,	2.0209577	,	0
10,41	,	108429	,	-17248	,	-13750	,	1.7544138	,	0
10,41	,	108445	,	-17234	,	-13731	,	1.5907109	,	0
10,41	,	108477	,	-17235	,	-13733	,	1.7879205	,	0
10,41	,	108493	,	-17221	,	-13728	,	2.5376673	,	0
10,41	,	108525	,	-17213	,	-13737	,	3.9451308	,	0
10,41	,	108541	,	-17215	,	-13729	,	6.0014634	,	1
10,41	,	108557	,	-17209	,	-13731	,	8.464953	,	3
10,41	,	108589	,	-17202	,	-13728	,	10.965026	,	5
10,41	,	108605	,	-17208	,	-13727	,	13.182945	,	7
10,41	,	108621	,	-17201	,	-13727	,	14.836109	,	9
10,41	,	108653	,	-17199	,	-13724	,	15.740623	,	10
10,41	,	108669	,	-17203	,	-13737	,	15.876906	,	10
10,41	,	108700	,	-17199	,	-13718	,	15.293045	,	10
10,41	,	108717	,	-17199	,	-13723	,	14.091913	,	10
10,41	,	108733	,	-17193	,	-13715	,	12.483263	,	9
10,42	,	108765	,	-17185	,	-13718	,	10.781187	,	7
10,42	,	108781	,	-17193	,	-13712	,	9.290087	,	5
10,42	,	108797	,	-17188	,	-13717	,	8.11426	,	3
10,42	,	108829	,	-17195	,	-13717	,	7.1616173	,	1
10,42	,	108845	,	-17187	,	-13721	,	6.3086176	,	0
10,42	,	108876	,	-17186	,	-13714	,	5.5262623	,	0
10,42	,	108893	,	-17183	,	-13718	,	4.884472	,	0
10,42	,	108909	,	-17185	,	-13727	,	4.434248	,	0
10,42	,	108941	,	-17192	,	-13715	,	4.1007633	,	0
10,42	,	108957	,	-17203	,	-13720	,	3.6449127	,	0
10,42	,	108973	,	-17196	,	-13719	,	2.798896	,	0
10,42	,	109005	,	-17199	,	-13721	,	1.5251586	,	0
10,42	,	109021	,	-17197	,	-13718	,	0.03629124	,	0
10,42	,	109036	,	-17205	,	-13719	,	-1.4298067	,	0
10,42	,	109068	,	-17201	,	-13719	,	-2.743318	,	0
10,42	,	109084	,	-17205	,	-13713	,	-3.8305318	,	0
10,42	,	109116	,	-17202	,	-13722	,	-4.6135945	,	0
10,42	,	109133	,	-17197	,	-13717	,	-4.9996977	,	0
10,42	,	109148	,	-17207	,	-13726	,	-4.9359393	,	0
10,42	,	109181	,	-17215	,	-13709	,	-4.5716333	,	0
10,42	,	109197	,	-17212	,	-13712	,	-4.225506	,	0
10,42	,	109213	,	-17216	,	-13717	,	-4.114295	,	0
10,42	,	109245	,	-17213	,	-13714	,	-4.244192	,	0
10,42	,	109260	,	-17209	,	-13715	,	-4.464513	,	0
10,42	,	109292	,	-17220	,	-13721	,	-4.599426	,	0
10,42	,	109308	,	-17221	,	-13715	,	-4.6385527	,	0
10,42	,	109324	,	-17227	,	-13719	,	-4.721508	,	0
10,42	,	109357	,	-17233	,	-13716	,	-4.9936223	,	0
10,42	,	109373	,	-17216	,	-13716	,	-5.458727	,	0
10,42	,	109389	,	-17214	,	-13722	,	-5.827965	,	0
10,42	,	109421	,	-17201	,	-13706	,	-5.644908	,	0
10,42	,	109437	,	-17199	,	-13706	,	-4.577691	,	0
10,42	,	109453	,	-17196	,	-13708	,	-2.5754817	,	1
10,42	,	109485	,	-17189	,	-13700	,	0.14615464	,	3
10,42	,	109501	,	-17183	,	-13708	,	3.2722056	,	5
10,42	,	109532	,	-17189	,	-13700	,	6.4630857	,	8
10,42	,	109549	,	-17182	,	-13703	,	9.32223	,	11
10,42	,	109564	,	-17178	,	-13705	,	11.534061	,	13
10,42	,	109597	,	-17174	,	-13695	,	13.006887	,	15
10,42	,	109613	,	-17179	,	-13703	,	13.770071	,	16
10,42	,	109629	,	-17178	,	-13702	,	13.82184	,	16
10,42	,	109660	,	-17183	,	-13699	,	13.139694	,	15
10,42	,	109676	,	-17175	,	-13695	,	11.79497	,	13
10,42	,	109708	,	-17172	,	-13696	,	10.039269	,	11
10,42	,	109724	,	-17171	,	-13700	,	8.231092	,	8
10,43	,	109740	,	-17183	,	-13698	,	6.592493	,	5
10,43	,	109772	,	-17180	,	-13701	,	5.0877676	,	3
10,43	,	109788	,	-17187	,	-13700	,	3.5852516	,	1
10,43	,	109804	,	-17187	,	-13697	,	2.0128832	,	0
10,43	,	109836	,	-17177	,	-13692	,	0.428854	,	0
10,43	,	109852	,	-17191	,	-13699	,	-0.9873904	,	0
10,43	,	109868	,	-17183	,	-13690	,	-2.113533	,	0
10,43	,	109900	,	-17190	,	-13689	,	-2.939776	,	0
10,43	,	109916	,	-17191	,	-13691	,	-3.503675	,	0
10,43	,	109948	,	-17197	,	-13688	,	-3.905664	,	0
10,43	,	109964	,	-17202	,	-13688	,	-4.292776	,	0
10,43	,	109980	,	-17207	,	-13687	,	-4.812438	,	0
10,43	,	110012	,	-17212	,	-13688	,	-5.5712566	,	0
10,43	,	110028	,	-17204	,	-13686	,	-6.5421247	,	0
10,43	,	110044	,	-17213	,	-13689	,	-7.5279436	,	0
10,43	,	110076	,	-17211	,	-13688	,	-8.319857	,	0
10,43	,	110092	,	-17207	,	-13685	,	-8.786205	,	0
10,43	,	110124	,	-17220	,	-13689	,	-8.85928	,	0
10,43	,	110140	,	-17218	,	-13685	,	-8.622763	,	0
10,43	,	110156	,	-17229	,	-13685	,	-8.285617	,	0
10,43	,	110188	,	-17228	,	-13692	,	-8.053144	,	0
10,43	,	110204	,	-17235	,	-13693	,	-8.059063	,	0
10,43	,	110220	,	-17229	,	-13695	,	-8.298909	,	0
10,43	,	110252	,	-17223	,	-13698	,	-8.566423	,	0
10,43	,	110268	,	-17229	,	-13694	,	-8.554764	,	0
10,43	,	110284	,	-17216	,	-13700	,	-8.055786	,	0
10,43	,	110316	,	-17210	,	-13702	,	-6.935492	,	0
10,43	,	110332	,	-17196	,	-13702	,	-5.0376635	,	1
10,43	,	110364	,	-17198	,	-13696	,	-2.2962723	,	2
10,43	,	110380	,	-17193	,	-13702	,	1.0969191	,	4
10,43	,	110396	,	-17193	,	-13696	,	4.715312	,	7
10,43	,	110428	,	-17186	,	-13696	,	8.099852	,	10
10,43	,	110444	,	-17179	,	-13701	,	10.953988	,	13
10,43	,	110460	,	-17178	,	-13692	,	13.178069	,	15
10,43	,	110492	,	-17169	,	-13691	,	14.773849	,	17
10,43	,	110508	,	-17171	,	-13694	,	15.785028	,	18
10,43	,	110540	,	-17166	,	-13690	,	16.255991	,	18
10,43	,	110556	,	-17173	,	-13696	,	16.177174	,	17
10,43	,	110572	,	-17169	,	-13698	,	15.498263	,	15
10,43	,	110604	,	-17168	,	-13692	,	14.234337	,	12
10,43	,	110620	,	-17168	,	-13698	,	12.5312	,	9
10,43	,	110636	,	-17160	,	-13691	,	10.625202	,	6
10,43	,	110668	,	-17163	,	-13696	,	8.788207	,	4
10,43	,	110684	,	-17166	,	-13696	,	7.195199	,	2
10,43	,	110700	,	-17163	,	-13697	,	5.8448915	,	1
10,43	,	110732	,	-17161	,	-13696	,	4.6964607	,	0
10,44	,	110748	,	-17163	,	-13695	,	3.7568505	,	0
10,44	,	110780	,	-17156	,	-13697	,	3.0419886	,	0
10,44	,	110796	,	-17155	,	-13697	,	2.5936985	,	0
10,44	,	110812	,	-17167	,	-13704	,	2.4047647	,	0
10,44	,	110844	,	-17172	,	-13696	,	2.2512522	,	0
10,44	,	110860	,	-17164	,	-13702	,	1.8421425	,	0
10,44	,	110876	,	-17170	,	-13701	,	1.116457	,	0
10,44	,	110908	,	-17172	,	-13706	,	0.1873622	,	0
10,44	,	110924	,	-17170	,	-13700	,	-0.8292859	,	0
10,44	,	110955	,	-17183	,	-13704	,	-1.8635224	,	0
10,44	,	110972	,	-17184	,	-13706	,	-2.9544122	,	0
10,44	,	110988	,	-17184	,	-13704	,	-4.1636868	,	0
10,44	,	111020	,	-17188	,	-13708	,	-5.4200687	,	0
10,44	,	111036	,	-17190	,	-13706	,	-6.5861473	,	0
10,44	,	111052	,	-17188	,	-13708	,	-7.545436	,	0
10,44	,	111084	,	-17185	,	-13697	,	-8.1630945	,	0
10,44	,	111100	,	-17199	,	-13700	,	-8.357269	,	0
10,44	,	111116	,	-17214	,	-13705	,	-8.32086	,	0
10,44	,	111148	,	-17218	,	-13714	,	-8.496737	,	0
10,44	,	111164	,	-17223	,	-13716	,	-9.214557	,	0
10,44	,	111196	,	-17218	,	-13715	,	-10.432263	,	0
10,44	,	111212	,	-17234	,	-13719	,	-11.860711	,	0
10,44	,	111228	,	-17234	,	-13723	,	-13.271934	,	0
10,44	,	111260	,	-17224	,	-13722	,	-14.483952	,	0
10,44	,	111276	,	-17230	,	-13726	,	-15.182787	,	0
10,44	,	111292	,	-17227	,	-13729	,	-15.101025	,	0
10,44	,	111324	,	-17216	,	-13707	,	-14.151501	,	0
10,44	,	111340	,	-17202	,	-13711	,	-12.247351	,	0
10,44	,	111372	,	-17207	,	-13724	,	-9.320776	,	1
10,44	,	111388	,	-17210	,	-13714	,	-5.61628	,	3
10,44	,	111404	,	-17202	,	-13726	,	-1.6860132	,	6
10,44	,	111435	,	-17196	,	-13710	,	1.9973164	,	9
10,44	,	111451	,	-17185	,	-13713	,	5.2646704	,	12
10,44	,	111467	,	-17181	,	-13711	,	8.154688	,	15
10,44	,	111500	,	-17182	,	-13708	,	10.695938	,	17
10,44	,	111515	,	-17179	,	-13712	,	12.77298	,	19
10,44	,	111531	,	-17179	,	-13714	,	14.207575	,	21
10,44	,	111564	,	-17175	,	-13703	,	14.896307	,	21
10,44	,	111580	,	-17178	,	-13714	,	14.841581	,	19
10,44	,	111612	,	-17171	,	-13704	,	14.132978	,	16
10,44	,	111628	,	-17177	,	-13711	,	12.923603	,	13
10,44	,	111644	,	-17184	,	-13712	,	11.320846	,	10
10,44	,	111675	,	-17178	,	-13710	,	9.3546915	,	7
10,44	,	111691	,	-17178	,	-13709	,	7.15048	,	5
10,44	,	111707	,	-17188	,	-13708	,	4.916867	,	3
10,44	,	111739	,	-17184	,	-13709	,	2.7659407	,	1
10,45	,	111756	,	-17180	,	-13705	,	0.7933283	,	0
10,45	,	111788	,	-17193	,	-13716	,	-0.8664615	,	0
10,45	,	111803	,	-17195	,	-13702	,	-2.234037	,	0
10,45	,	111819	,	-17198	,	-13703	,	-3.4721375	,	0
10,45	,	111851	,	-17192	,	-13707	,	-4.6381574	,	0
10,45	,	111867	,	-17201	,	-13712	,	-5.632555	,	0
10,45	,	111883	,	-17201	,	-13710	,	-6.3731546	,	0
10,45	,	111915	,	-17205	,	-13713	,	-6.876964	,	0
10,45	,	111932	,	-17201	,	-13710	,	-7.1707735	,	0
10,45	,	111948	,	-17210	,	-13712	,	-7.260604	,	0
10,45	,	111979	,	-17211	,	-13715	,	-7.2112193	,	0
10,45	,	111995	,	-17214	,	-13716	,	-7.1369133	,	0
10,45	,	112027	,	-17210	,	-13729	,	-7.079522	,	0
10,45	,	112043	,	-17224	,	-13707	,	-7.0247726	,	0
10,45	,	112060	,	-17226	,	-13714	,	-7.0532837	,	0
10,45	,	112091	,	-17221	,	-13713	,	-7.2625237	,	0
10,45	,	112107	,	-17242	,	-13716	,	-7.6539173	,	0
10,45	,	112123	,	-17235	,	-13713	,	-8.256135	,	0
10,45	,	112155	,	-17241	,	-13720	,	-9.06923	,	0
10,45	,	112171	,	-17242	,	-13722	,	-9.943827	,	0
10,45	,	112203	,	-17252	,	-13713	,	-10.732056	,	0
10,45	,	112219	,	-17244	,	-13723	,	-11.35948	,	0
10,45	,	112235	,	-17246	,	-13720	,	-11.700977	,	0
10,45	,	112267	,	-17255	,	-13727	,	-11.6369	,	0
10,45	,	112283	,	-17250	,	-13714	,	-11.209837	,	0
10,45	,	112300	,	-17261	,	-13721	,	-10.559872	,	0
10,45	,	112331	,	-17262	,	-13714	,	-9.85577	,	0
10,45	,	112347	,	-17263	,	-13721	,	-9.260378	,	0
10,45	,	112363	,	-17258	,	-13714	,	-8.791088	,	0
10,45	,	112396	,	-17251	,	-13713	,	-8.264957	,	0
10,45	,	112411	,	-17242	,	-13707	,	-7.383147	,	0
10,45	,	112443	,	-17237	,	-13709	,	-5.8742137	,	0
10,45	,	112459	,	-17236	,	-13706	,	-3.652588	,	1
10,45	,	112476	,	-17231	,	-13705	,	-0.88124704	,	3
10,45	,	112507	,	-17224	,	-13705	,	2.149717	,	5
10,45	,	112523	,	-17238	,	-13682	,	5.1036935	,	8
10,45	,	112539	,	-17221	,	-13685	,	7.6108694	,	10
10,45	,	112571	,	-17204	,	-13684	,	9.555302	,	12
10,45	,	112587	,	-17214	,	-13685	,	11.156911	,	13
10,45	,	112619	,	-17213	,	-13684	,	12.505802	,	14
10,45	,	112635	,	-17207	,	-13688	,	13.429253	,	15
10,45	,	112651	,	-17204	,	-13688	,	13.82535	,	14
10,45	,	112683	,	-17206	,	-13684	,	13.735646	,	12
10,45	,	112699	,	-17204	,	-13685	,	13.203951	,	10
10,45	,	112715	,	-17203	,	-13690	,	12.274332	,	7
10,46	,	112747	,	-17205	,	-13694	,	11.031258	,	5
10,46	,	112763	,	-17211	,	-13685	,	9.536804	,	3
10,46	,	112795	,	-17211	,	-13695	,	7.798229	,	2
10,46	,	112811	,	-17209	,	-13696	,	5.8669896	,	1
10,46	,	112827	,	-17208	,	-13701	,	3.9084883	,	0
10,46	,	112859	,	-17208	,	-13700	,	2.1272192	,	0
10,46	,	112875	,	-17215	,	-13701	,	0.64029837	,	0
10,46	,	112891	,	-17215	,	-13702	,	-0.5701673	,	0
10,46	,	112923	,	-17224	,	-13704	,	-1.6119766	,	0
10,46	,	112939	,	-17211	,	-13705	,	-2.564215	,	0
10,46	,	112955	,	-17221	,	-13707	,	-3.367873	,	0
10,46	,	112987	,	-17227	,	-13705	,	-3.9633522	,	0
10,46	,	113003	,	-17223	,	-13704	,	-4.4274282	,	0
10,46	,	113035	,	-17229	,	-13705	,	-4.8311996	,	0
10,46	,	113051	,	-17228	,	-13704	,	-5.174885	,	0
10,46	,	113067	,	-17229	,	-13703	,	-5.437053	,	0
10,46	,	113099	,	-17224	,	-13703	,	-5.555196	,	0
10,46	,	113115	,	-17232	,	-13709	,	-5.464404	,	0
10,46	,	113131	,	-17229	,	-13704	,	-5.179981	,	0
10,46	,	113163	,	-17232	,	-13705	,	-4.773795	,	0
10,46	,	113179	,	-17231	,	-13704	,	-4.3074775	,	0
10,46	,	113211	,	-17232	,	-13717	,	-3.8192465	,	0
10,46	,	113227	,	-17239	,	-13702	,	-3.3641012	,	0
10,46	,	113243	,	-17230	,	-13707	,	-3.0168307	,	0
10,46	,	113275	,	-17230	,	-13707	,	-2.7538166	,	0
10,46	,	113291	,	-17235	,	-13711	,	-2.4686098	,	0
10,46	,	113307	,	-17234	,	-13713	,	-2.1400971	,	0
10,46	,	113339	,	-17235	,	-13707	,	-1.8263785	,	0
10,46	,	113355	,	-17241	,	-13712	,	-1.5976171	,	0
10,46	,	113371	,	-17239	,	-13709	,	-1.5370545	,	0
10,46	,	113403	,	-17240	,	-13709	,	-1.6747646	,	0
10,46	,	113419	,	-17237	,	-13717	,	-1.9362695	,	0
10,46	,	113451	,	-17224	,	-13710	,	-2.1299462	,	0
10,46	,	113467	,	-17224	,	-13708	,	-1.9613197	,	0
10,46	,	113483	,	-17230	,	-13712	,	-1.2642825	,	0
10,46	,	113515	,	-17213	,	-13706	,	-0.12465376	,	0
10,46	,	113531	,	-17217	,	-13711	,	1.3463163	,	1
10,46	,	113547	,	-17213	,	-13703	,	3.0569248	,	2
10,46	,	113579	,	-17215	,	-13703	,	4.799241	,	3
10,46	,	113595	,	-17211	,	-13708	,	6.3179693	,	4
10,46	,	113627	,	-17208	,	-13707	,	7.4571333	,	5
10,46	,	113643	,	-17200	,	-13702	,	8.226	,	6
10,46	,	113659	,	-17215	,	-13701	,	8.680218	,	6
10,46	,	113691	,	-17205	,	-13707	,	8.756987	,	6
10,46	,	113707	,	-17208	,	-13692	,	8.391894	,	6
10,46	,	113723	,	-17213	,	-13699	,	7.6236753	,	5
10,47	,	113755	,	-17211	,	-13694	,	6.5013065	,	4
10,47	,	113771	,	-17207	,	-13701	,	5.13029	,	3
10,47	,	113787	,	-17192	,	-13702	,	3.8002374	,	2
10,47	,	113819	,	-17200	,	-13700	,	2.889834	,	1
10,47	,	113834	,	-17210	,	-13704	,	2.511293	,	0
10,47	,	113867	,	-17204	,	-13701	,	2.398107	,	0
10,47	,	113882	,	-17207	,	-13698	,	2.2622547	,	0
10,47	,	113898	,	-17210	,	-13699	,	1.9872024	,	0
10,47	,	113930	,	-17209	,	-13705	,	1.5304134	,	0
10,47	,	113947	,	-17213	,	-13696	,	0.89327455	,	0
10,47	,	113963	,	-17208	,	-13698	,	0.13804585	,	0
10,47	,	113995	,	-17208	,	-13697	,	-0.60843784	,	0
10,47	,	114011	,	-17208	,	-13708	,	-1.202889	,	0
10,47	,	114043	,	-17216	,	-13697	,	-1.6021134	,	0
10,47	,	114059	,	-17213	,	-13699	,	-1.8867924	,	0
10,47	,	114075	,	-17209	,	-13699	,	-2.1139326	,	0
10,47	,	114106	,	-17219	,	-13696	,	-2.2648668	,	0
10,47	,	114123	,	-17225	,	-13696	,	-2.4150505	,	0
10,47	,	114139	,	-17222	,	-13694	,	-2.7321475	,	0
10,47	,	114171	,	-17222	,	-13702	,	-3.2480474	,	0
10,47	,	114187	,	-17222	,	-13694	,	-3.8174558	,	0
10,47	,	114202	,	-17227	,	-13694	,	-4.2885513	,	0
10,47	,	114234	,	-17225	,	-13699	,	-4.60415	,	0
10,47	,	114250	,	-17236	,	-13698	,	-4.7967	,	0
10,47	,	114283	,	-17234	,	-13694	,	-4.977254	,	0
10,47	,	114298	,	-17236	,	-13695	,	-5.2406178	,	0
10,47	,	114314	,	-17241	,	-13696	,	-5.58286	,	0
10,47	,	114347	,	-17245	,	-13695	,	-5.9843187	,	0
10,47	,	114362	,	-17244	,	-13691	,	-6.443061	,	0
10,47	,	114379	,	-17242	,	-13698	,	-6.8827267	,	0
10,47	,	114411	,	-17243	,	-13691	,	-7.1446867	,	0
10,47	,	114427	,	-17244	,	-13692	,	-7.1003237	,	0
10,47	,	114458	,	-17233	,	-13698	,	-6.6790905	,	0
10,47	,	114474	,	-17222	,	-13696	,	-5.7456694	,	0
10,47	,	114490	,	-17226	,	-13697	,	-4.1359577	,	0
10,47	,	114522	,	-17224	,	-13690	,	-1.9129429	,	1
10,47	,	114538	,	-17229	,	-13697	,	0.56548667	,	3
10,47	,	114554	,	-17213	,	-13697	,	2.910725	,	5
10,47	,	114587	,	-17219	,	-13691	,	4.94677	,	7
10,47	,	114602	,	-17216	,	-13687	,	6.612246	,	9
10,47	,	114618	,	-17197	,	-13685	,	7.897299	,	10
10,47	,	114650	,	-17208	,	-13696	,	8.935234	,	11
10,47	,	114666	,	-17204	,	-13677	,	9.79367	,	12
10,47	,	114698	,	-17200	,	-13682	,	10.366395	,	12
10,47	,	114714	,	-17209	,	-13684	,	10.5513935	,	11
10,47	,	114730	,	-17201	,	-13677	,	10.28303	,	9
10,48	,	114762	,	-17205	,	-13681	,	9.560361	,	7
10,48	,	114778	,	-17208	,	-13686	,	8.458471	,	5
10,48	,	114794	,	-17206	,	-13684	,	7.05633	,	3
10,48	,	114827	,	-17208	,	-13682	,	5.464707	,	2
10,48	,	114842	,	-17196	,	-13683	,	3.8876007	,	1
10,48	,	114874	,	-17206	,	-13679	,	2.5728579	,	0
10,48	,	114890	,	-17196	,	-13687	,	1.6681278	,	0
10,48	,	114906	,	-17206	,	-13667	,	1.16965	,	0
10,48	,	114938	,	-17204	,	-13671	,	0.954399	,	0
10,48	,	114954	,	-17213	,	-13671	,	0.8123041	,	0
10,48	,	114970	,	-17209	,	-13669	,	0.541706	,	0
10,48	,	115002	,	-17212	,	-13667	,	0.06260693	,	0
10,48	,	115018	,	-17216	,	-13668	,	-0.59277856	,	0
10,48	,	115034	,	-17215	,	-13667	,	-1.3761928	,	0
10,48	,	115066	,	-17215	,	-13659	,	-2.212196	,	0
10,48	,	115082	,	-17223	,	-13665	,	-3.005515	,	0
10,48	,	115114	,	-17225	,	-13665	,	-3.7556794	,	0
10,48	,	115130	,	-17220	,	-13667	,	-4.4938393	,	0
10,48	,	115146	,	-17223	,	-13655	,	-5.1279955	,	0
10,48	,	115178	,	-17228	,	-13662	,	-5.538307	,	0
10,48	,	115194	,	-17221	,	-13656	,	-5.702398	,	0
10,48	,	115210	,	-17232	,	-13654	,	-5.648323	,	0
10,48	,	115242	,	-17235	,	-13656	,	-5.4783893	,	0
10,48	,	115258	,	-17233	,	-13658	,	-5.348442	,	0
10,48	,	115290	,	-17236	,	-13663	,	-5.3152957	,	0
10,48	,	115306	,	-17248	,	-13661	,	-5.394472	,	0
10,48	,	115322	,	-17234	,	-13666	,	-5.6311917	,	0
10,48	,	115354	,	-17236	,	-13668	,	-5.9140463	,	0
10,48	,	115370	,	-17247	,	-13678	,	-6.043801	,	0
10,48	,	115386	,	-17242	,	-13663	,	-6.006111	,	0
10,48	,	115418	,	-17230	,	-13672	,	-5.8064666	,	0
10,48	,	115434	,	-17218	,	-13667	,	-5.193509	,	0
10,48	,	115450	,	-17220	,	-13675	,	-3.8421981	,	0
10,48	,	115482	,	-17220	,	-13672	,	-1.7320182	,	1
10,48	,	115498	,	-17212	,	-13677	,	0.8301027	,	3
10,48	,	115530	,	-17204	,	-13672	,	3.5310295	,	5
10,48	,	115546	,	-17197	,	-13679	,	6.229872	,	7
10,48	,	115562	,	-17190	,	-13674	,	8.877871	,	9
10,48	,	115594	,	-17181	,	-13669	,	11.437229	,	11
10,48	,	115610	,	-17185	,	-13679	,	13.822967	,	13
10,48	,	115626	,	-17187	,	-13665	,	15.797514	,	15
10,48	,	115658	,	-17180	,	-13675	,	17.043983	,	16
10,48	,	115674	,	-17178	,	-13671	,	17.425909	,	16
10,48	,	115706	,	-17172	,	-13670	,	17.06346	,	14
10,48	,	115722	,	-17170	,	-13672	,	16.203821	,	12
10,48	,	115738	,	-17166	,	-13666	,	15.09451	,	10
10,49	,	115770	,	-17160	,	-13670	,	13.938782	,	8
10,49	,	115786	,	-17158	,	-13671	,	12.903004	,	6
10,49	,	115802	,	-17157	,	-13663	,	12.073231	,	4
10,49	,	115834	,	-17153	,	-13654	,	11.43187	,	2
10,49	,	115850	,	-17146	,	-13660	,	10.951607	,	1
10,49	,	115866	,	-17147	,	-13653	,	10.646767	,	0
10,49	,	115898	,	-17137	,	-13650	,	10.528132	,	0
10,49	,	115914	,	-17138	,	-13649	,	10.590706	,	0
10,49	,	115946	,	-17138	,	-13646	,	10.773017	,	0
10,49	,	115962	,	-17141	,	-13647	,	10.898674	,	0
10,49	,	115978	,	-17139	,	-13647	,	10.752106	,	0
10,49	,	116010	,	-17142	,	-13654	,	10.200985	,	0
10,49	,	116026	,	-17148	,	-13658	,	9.195787	,	0
10,49	,	116042	,	-17130	,	-13659	,	7.8006415	,	0
10,49	,	116074	,	-17153	,	-13664	,	6.215564	,	0
10,49	,	116090	,	-17159	,	-13666	,	4.4901805	,	0
10,49	,	116122	,	-17161	,	-13668	,	2.4437788	,	0
10,49	,	116138	,	-17179	,	-13671	,	-0.05035758	,	0
10,49	,	116154	,	-17175	,	-13675	,	-2.985411	,	0
10,49	,	116186	,	-17186	,	-13677	,	-6.2150035	,	0
10,49	,	116201	,	-17187	,	-13675	,	-9.461685	,	0
10,49	,	116217	,	-17186	,	-13681	,	-12.401773	,	0
10,49	,	116250	,	-17195	,	-13676	,	-14.732313	,	0
10,49	,	116266	,	-17204	,	-13685	,	-16.33741	,	0
10,49	,	116282	,	-17201	,	-13685	,	-17.30832	,	0
10,49	,	116314	,	-17204	,	-13686	,	-17.717663	,	0
10,49	,	116330	,	-17215	,	-13690	,	-17.59969	,	0
10,49	,	116361	,	-17213	,	-13686	,	-17.093243	,	0
10,49	,	116378	,	-17216	,	-13684	,	-16.35729	,	0
10,49	,	116394	,	-17210	,	-13688	,	-15.4164	,	0
10,49	,	116426	,	-17202	,	-13686	,	-14.144561	,	0
10,49	,	116442	,	-17197	,	-13686	,	-12.3427305	,	1
10,49	,	116458	,	-17191	,	-13683	,	-9.881072	,	2
10,49	,	116490	,	-17185	,	-13682	,	-6.7774243	,	4
10,49	,	116506	,	-17186	,	-13679	,	-3.2023687	,	7
10,49	,	116537	,	-17177	,	-13675	,	0.54371214	,	10
10,49	,	116553	,	-17168	,	-13678	,	4.180579	,	13
10,49	,	116569	,	-17167	,	-13679	,	7.5486755	,	16
10,49	,	116602	,	-17163	,	-13669	,	10.508224	,	19
10,49	,	116618	,	-17148	,	-13669	,	12.955425	,	21
10,49	,	116633	,	-17153	,	-13671	,	14.911902	,	22
10,49	,	116665	,	-17142	,	-13671	,	16.40686	,	22
10,49	,	116681	,	-17146	,	-13668	,	17.399336	,	21
10,49	,	116713	,	-17133	,	-13673	,	17.865679	,	18
10,49	,	116729	,	-17143	,	-13671	,	17.828701	,	15
10,50	,	116745	,	-17148	,	-13668	,	17.233393	,	12
10,50	,	116777	,	-17141	,	-13667	,	15.958524	,	9
10,50	,	116793	,	-17143	,	-13675	,	14.050822	,	6
10,50	,	116809	,	-17145	,	-13672	,	11.732801	,	4
10,50	,	116842	,	-17147	,	-13671	,	9.223188	,	2
10,50	,	116857	,	-17150	,	-13673	,	6.6826043	,	1
10,50	,	116874	,	-17155	,	-13675	,	4.207191	,	0
10,50	,	116906	,	-17159	,	-13675	,	1.8240943	,	0
10,50	,	116921	,	-17165	,	-13676	,	-0.47555208	,	0
10,50	,	116953	,	-17163	,	-13675	,	-2.6759515	,	0
10,50	,	116969	,	-17164	,	-13673	,	-4.670575	,	0
10,50	,	116985	,	-17160	,	-13675	,	-6.2611203	,	0
10,50	,	117018	,	-17164	,	-13677	,	-7.2621965	,	0
10,50	,	117033	,	-17175	,	-13680	,	-7.674467	,	0
10,50	,	117049	,	-17179	,	-13669	,	-7.7505794	,	0
10,50	,	117082	,	-17186	,	-13680	,	-7.82883	,	0
10,50	,	117097	,	-17185	,	-13685	,	-8.121585	,	0
10,50	,	117129	,	-17195	,	-13677	,	-8.669218	,	0
10,50	,	117145	,	-17191	,	-13680	,	-9.409397	,	0
10,50	,	117161	,	-17199	,	-13692	,	-10.216705	,	0
10,50	,	117193	,	-17195	,	-13689	,	-10.927639	,	0
10,50	,	117209	,	-17197	,	-13681	,	-11.369878	,	0
10,50	,	117225	,	-17205	,	-13678	,	-11.437538	,	0
10,50	,	117257	,	-17207	,	-13685	,	-11.198064	,	0
10,50	,	117273	,	-17210	,	-13695	,	-10.818985	,	0
10,50	,	117289	,	-17205	,	-13678	,	-10.384918	,	0
10,50	,	117322	,	-17208	,	-13686	,	-9.847492	,	0
10,50	,	117337	,	-17211	,	-13673	,	-9.1469	,	0
10,50	,	117369	,	-17218	,	-13686	,	-8.353963	,	0
10,50	,	117385	,	-17217	,	-13686	,	-7.6343164	,	0
10,50	,	117401	,	-17211	,	-13684	,	-7.0556674	,	0
10,50	,	117433	,	-17219	,	-13684	,	-6.5371046	,	0
10,50	,	117449	,	-17218	,	-13687	,	-6.0255146	,	0
10,50	,	117465	,	-17195	,	-13673	,	-5.436909	,	0
10,50	,	117497	,	-17191	,	-13673	,	-4.4301014	,	0
10,50	,	117513	,	-17194	,	-13680	,	-2.6731327	,	1
10,50	,	117545	,	-17182	,	-13662	,	-0.21138978	,	2
10,50	,	117561	,	-17187	,	-13674	,	2.655726	,	4
10,50	,	117577	,	-17177	,	-13669	,	5.5821056	,	6
10,50	,	117609	,	-17167	,	-13661	,	8.308084	,	8
10,50	,	117625	,	-17164	,	-13652	,	10.753784	,	10
10,50	,	117641	,	-17159	,	-13659	,	12.90157	,	12
10,50	,	117673	,	-17161	,	-13652	,	14.662749	,	14
10,50	,	117689	,	-17162	,	-13648	,	15.86483	,	15
10,50	,	117705	,	-17166	,	-13648	,	16.296003	,	15
10,50	,	117737	,	-17166	,	-13651	,	15.803017	,	14
10,51	,	117753	,	-17159	,	-13659	,	14.427967	,	12
10,51	,	117785	,	-17166	,	-13639	,	12.429867	,	10
10,51	,	117801	,	-17172	,	-13652	,	10.065615	,	8
10,51	,	117817	,	-17166	,	-13643	,	7.478337	,	6
10,51	,	117849	,	-17163	,	-13649	,	4.8733664	,	4
10,51	,	117865	,	-17174	,	-13650	,	2.5152373	,	2
10,51	,	117881	,	-17167	,	-13649	,	0.53535986	,	1
10,51	,	117913	,	-17174	,	-13652	,	-1.0454521	,	0
10,51	,	117929	,	-17175	,	-13656	,	-2.248692	,	0
10,51	,	117961	,	-17174	,	-13654	,	-3.1349401	,	0
10,51	,	117977	,	-17169	,	-13656	,	-3.708411	,	0
10,51	,	117993	,	-17187	,	-13666	,	-3.9728494	,	0
10,51	,	118025	,	-17183	,	-13655	,	-4.1087475	,	0
10,51	,	118041	,	-17184	,	-13663	,	-4.3280287	,	0
10,51	,	118057	,	-17198	,	-13667	,	-4.712378	,	0
10,51	,	118089	,	-17198	,	-13674	,	-5.3457985	,	0
10,51	,	118105	,	-17206	,	-13675	,	-6.308376	,	0
10,51	,	118121	,	-17186	,	-13674	,	-7.460322	,	0
10,51	,	118153	,	-17209	,	-13684	,	-8.463476	,	0
10,51	,	118169	,	-17201	,	-13671	,	-9.11927	,	0
10,51	,	118201	,	-17206	,	-13680	,	-9.443189	,	0
10,51	,	118217	,	-17201	,	-13675	,	-9.433376	,	0
10,51	,	118233	,	-17215	,	-13684	,	-9.097079	,	0
10,51	,	118265	,	-17218	,	-13671	,	-8.6189995	,	0
10,51	,	118281	,	-17213	,	-13683	,	-8.23845	,	0
10,51	,	118297	,	-17224	,	-13684	,	-8.031788	,	0
10,51	,	118329	,	-17221	,	-13676	,	-7.972888	,	0
10,51	,	118345	,	-17225	,	-13682	,	-8.020129	,	0
10,51	,	118377	,	-17222	,	-13679	,	-8.080798	,	0
10,51	,	118393	,	-17234	,	-13678	,	-8.083053	,	0
10,51	,	118409	,	-17231	,	-13686	,	-8.06069	,	0
10,51	,	118441	,	-17213	,	-13683	,	-7.9625225	,	0
10,51	,	118457	,	-17212	,	-13687	,	-7.463069	,	0
10,51	,	118473	,	-17215	,	-13692	,	-6.2627974	,	0
10,51	,	118505	,	-17200	,	-13678	,	-4.368435	,	1
10,51	,	118520	,	-17202	,	-13683	,	-1.9280932	,	2
10,51	,	118537	,	-17189	,	-13682	,	0.9027488	,	4
10,51	,	118569	,	-17185	,	-13686	,	3.96904	,	6
10,51	,	118585	,	-17181	,	-13683	,	7.1104217	,	9
10,51	,	118617	,	-17173	,	-13689	,	10.124095	,	12
10,51	,	118633	,	-17174	,	-13677	,	12.794683	,	15
10,51	,	118649	,	-17171	,	-13675	,	14.9100685	,	17
10,51	,	118681	,	-17169	,	-13681	,	16.285778	,	19
10,51	,	118697	,	-17149	,	-13675	,	16.935833	,	19
10,51	,	118712	,	-17168	,	-13679	,	17.067263	,	18
10,52	,	118744	,	-17169	,	-13679	,	16.71768	,	16
10,52	,	118761	,	-17163	,	-13674	,	15.724161	,	14
10,52	,	118793	,	-17163	,	-13683	,	14.0964985	,	11
10,52	,	118809	,	-17163	,	-13674	,	12.053505	,	8
10,52	,	118825	,	-17168	,	-13682	,	9.807224	,	5
10,52	,	118857	,	-17160	,	-13681	,	7.5219474	,	3
10,52	,	118873	,	-17174	,	-13681	,	5.3393817	,	1
10,52	,	118888	,	-17168	,	-13683	,	3.3237176	,	0
10,52	,	118920	,	-17180	,	-13679	,	1.460835	,	0
10,52	,	118937	,	-17179	,	-13680	,	-0.29872036	,	0
10,52	,	118969	,	-17179	,	-13680	,	-1.9771641	,	0
10,52	,	118985	,	-17179	,	-13684	,	-3.4836352	,	0
10,52	,	119001	,	-17190	,	-13681	,	-4.716127	,	0
10,52	,	119033	,	-17193	,	-13682	,	-5.729406	,	0
10,52	,	119048	,	-17195	,	-13681	,	-6.659617	,	0
10,52	,	119064	,	-17192	,	-13684	,	-7.5264373	,	0
10,52	,	119096	,	-17189	,	-13684	,	-8.179165	,	0
10,52	,	119112	,	-17189	,	-13680	,	-8.4084015	,	0
10,52	,	119128	,	-17202	,	-13679	,	-8.160089	,	0
10,52	,	119160	,	-17194	,	-13679	,	-7.6135025	,	0
10,52	,	119176	,	-17198	,	-13686	,	-6.955817	,	0
10,52	,	119208	,	-17196	,	-13674	,	-6.238997	,	0
10,52	,	119224	,	-17197	,	-13683	,	-5.4676723	,	0
10,52	,	119240	,	-17205	,	-13685	,	-4.6930428	,	0
10,52	,	119272	,	-17204	,	-13680	,	-4.049918	,	0
10,52	,	119288	,	-17211	,	-13682	,	-3.683372	,	0
10,52	,	119304	,	-17212	,	-13686	,	-3.668531	,	0
10,52	,	119336	,	-17222	,	-13679	,	-4.0398636	,	0
10,52	,	119353	,	-17211	,	-13686	,	-4.762812	,	0
10,52	,	119384	,	-17215	,	-13686	,	-5.6255603	,	0
10,52	,	119400	,	-17212	,	-13687	,	-6.318537	,	0
10,52	,	119416	,	-17213	,	-13695	,	-6.6242304	,	0
10,52	,	119448	,	-17198	,	-13682	,	-6.393751	,	0
10,52	,	119464	,	-17201	,	-13684	,	-5.4769516	,	0
10,52	,	119480	,	-17193	,	-13679	,	-3.8379316	,	0
10,52	,	119512	,	-17194	,	-13678	,	-1.6329057	,	1
10,52	,	119528	,	-17185	,	-13680	,	0.88868546	,	3
10,52	,	119544	,	-17183	,	-13672	,	3.5001628	,	5
10,52	,	119576	,	-17180	,	-13678	,	6.0131392	,	7
10,52	,	119592	,	-17181	,	-13671	,	8.228349	,	9
10,52	,	119624	,	-17184	,	-13671	,	9.912054	,	11
10,52	,	119640	,	-17180	,	-13673	,	10.857994	,	12
10,52	,	119656	,	-17187	,	-13673	,	10.980375	,	12
10,52	,	119688	,	-17183	,	-13669	,	10.315977	,	12
10,52	,	119704	,	-17185	,	-13671	,	9.006247	,	11
10,52	,	119720	,	-17179	,	-13680	,	7.3119802	,	9
10,53	,	119752	,	-17180	,	-13676	,	5.550987	,	7
10,53	,	119768	,	-17185	,	-13678	,	3.950838	,	5
10,53	,	119800	,	-17189	,	-13674	,	2.5451274	,	3
10,53	,	119816	,	-17195	,	-13675	,	1.2199662	,	1
10,53	,	119832	,	-17189	,	-13677	,	-0.12303853	,	0
10,53	,	119864	,	-17192	,	-13674	,	-1.4282144	,	0
10,53	,	119880	,	-17189	,	-13673	,	-2.5314102	,	0
10,53	,	119896	,	-17188	,	-13679	,	-3.2879288	,	0
10,53	,	119928	,	-17190	,	-13669	,	-3.625732	,	0
10,53	,	119944	,	-17192	,	-13673	,	-3.5784006	,	0
10,53	,	119960	,	-17207	,	-13674	,	-3.33816	,	0
10,53	,	119992	,	-17200	,	-13681	,	-3.2054214	,	0
10,53	,	120008	,	-17202	,	-13677	,	-3.3447394	,	0
10,53	,	120040	,	-17203	,	-13678	,	-3.6839561	,	0
10,53	,	120056	,	-17208	,	-13677	,	-4.101968	,	0
10,53	,	120072	,	-17201	,	-13677	,	-4.516478	,	0
10,53	,	120104	,	-17214	,	-13683	,	-4.8599277	,	0
10,53	,	120120	,	-17218	,	-13679	,	-5.176832	,	0
10,53	,	120136	,	-17212	,	-13686	,	-5.5754795	,	0
10,53	,	120168	,	-17219	,	-13665	,	-6.024902	,	0
10,53	,	120184	,	-17229	,	-13675	,	-6.4655695	,	0
10,53	,	120216	,	-17225	,	-13683	,	-6.963438	,	0
10,53	,	120232	,	-17230	,	-13679	,	-7.5490665	,	0
10,53	,	120248	,	-17232	,	-13677	,	-8.146499	,	0
10,53	,	120280	,	-17234	,	-13678	,	-8.675936	,	0
10,53	,	120296	,	-17224	,	-13676	,	-9.020341	,	0
10,53	,	120312	,	-17223	,	-13669	,	-8.959261	,	0
10,53	,	120344	,	-17211	,	-13660	,	-8.249945	,	0
10,53	,	120360	,	-17210	,	-13667	,	-6.7362804	,	0
10,53	,	120376	,	-17214	,	-13672	,	-4.476423	,	1
10,53	,	120408	,	-17207	,	-13650	,	-1.7936442	,	3
10,53	,	120424	,	-17197	,	-13650	,	0.9731102	,	5
10,53	,	120456	,	-17192	,	-13647	,	3.6923425	,	7
10,53	,	120472	,	-17182	,	-13651	,	6.3606052	,	9
10,53	,	120488	,	-17169	,	-13648	,	9.022775	,	11
10,53	,	120520	,	-17175	,	-13645	,	11.699401	,	13
10,53	,	120536	,	-17172	,	-13647	,	14.200592	,	15
10,53	,	120552	,	-17177	,	-13642	,	16.13559	,	17
10,53	,	120584	,	-17178	,	-13649	,	17.125301	,	17
10,53	,	120600	,	-17170	,	-13647	,	17.001226	,	15
10,53	,	120632	,	-17170	,	-13656	,	15.918077	,	13
10,53	,	120648	,	-17170	,	-13636	,	14.214588	,	11
10,53	,	120664	,	-17177	,	-13650	,	12.159207	,	9
10,53	,	120696	,	-17168	,	-13647	,	9.919262	,	7
10,53	,	120712	,	-17171	,	-13650	,	7.6864905	,	5
10,53	,	120728	,	-17178	,	-13659	,	5.6242375	,	3
10,54	,	120760	,	-17175	,	-13656	,	3.752235	,	1
10,54	,	120776	,	-17174	,	-13657	,	2.068777	,	0
10,54	,	120792	,	-17182	,	-13666	,	0.62165976	,	0
10,54	,	120824	,	-17181	,	-13662	,	-0.6017318	,	0
10,54	,	120840	,	-17188	,	-13670	,	-1.6823313	,	0
10,54	,	120872	,	-17184	,	-13680	,	-2.6856089	,	0
10,54	,	120888	,	-17192	,	-13663	,	-3.6229324	,	0
10,54	,	120904	,	-17197	,	-13667	,	-4.5142927	,	0
10,54	,	120936	,	-17191	,	-13673	,	-5.390562	,	0
10,54	,	120952	,	-17198	,	-13672	,	-6.1836185	,	0
10,54	,	120968	,	-17201	,	-13671	,	-6.8036194	,	0
10,54	,	121000	,	-17203	,	-13669	,	-7.263417	,	0
10,54	,	121016	,	-17208	,	-13674	,	-7.6188245	,	0
10,54	,	121048	,	-17204	,	-13668	,	-7.8867865	,	0
10,54	,	121064	,	-17210	,	-13676	,	-8.028511	,	0
10,54	,	121080	,	-17208	,	-13669	,	-8.0001955	,	0
10,54	,	121112	,	-17217	,	-13679	,	-7.8178463	,	0
10,54	,	121127	,	-17209	,	-13669	,	-7.537743	,	0
10,54	,	121143	,	-17213	,	-13675	,	-7.1668015	,	0
10,54	,	121176	,	-17220	,	-13678	,	-6.701024	,	0
10,54	,	121192	,	-17208	,	-13677	,	-6.182028	,	0
10,54	,	121208	,	-17212	,	-13679	,	-5.5731153	,	0
10,54	,	121240	,	-17200	,	-13676	,	-4.7389426	,	0
10,54	,	121256	,	-17185	,	-13681	,	-3.4778178	,	0
10,54	,	121288	,	-17187	,	-13672	,	-1.5584488	,	1
10,54	,	121304	,	-17182	,	-13671	,	1.0316267	,	2
10,54	,	121320	,	-17172	,	-13677	,	4.03666	,	4
10,54	,	121352	,	-17169	,	-13675	,	7.176118	,	7
10,54	,	121367	,	-17162	,	-13664	,	10.227602	,	10
10,54	,	121383	,	-17155	,	-13675	,	13.006161	,	13
10,54	,	121415	,	-17143	,	-13666	,	15.426077	,	15
10,54	,	121431	,	-17144	,	-13671	,	17.486378	,	17
10,54	,	121463	,	-17143	,	-13671	,	19.115822	,	19
10,54	,	121479	,	-17135	,	-13667	,	20.158865	,	19
10,54	,	121495	,	-17137	,	-13668	,	20.531904	,	19
10,54	,	121527	,	-17134	,	-13671	,	20.240246	,	17
10,54	,	121544	,	-17136	,	-13673	,	19.312336	,	14
10,54	,	121560	,	-17130	,	-13672	,	17.825506	,	11
10,54	,	121592	,	-17147	,	-13676	,	15.86769	,	8
10,54	,	121607	,	-17136	,	-13666	,	13.463237	,	6
10,54	,	121624	,	-17143	,	-13677	,	10.695204	,	4
10,54	,	121655	,	-17154	,	-13673	,	7.7197876	,	2
10,54	,	121671	,	-17139	,	-13670	,	4.6710715	,	1
10,54	,	121704	,	-17140	,	-13660	,	1.8216066	,	0
10,54	,	121720	,	-17142	,	-13658	,	-0.45739698	,	0
10,54	,	121736	,	-17152	,	-13666	,	-2.0365958	,	0
10,55	,	121768	,	-17143	,	-13656	,	-3.0547135	,	0
10,55	,	121783	,	-17145	,	-13667	,	-3.6392326	,	0
10,55	,	121799	,	-17141	,	-13663	,	-3.7963762	,	0
10,55	,	121831	,	-17148	,	-13663	,	-3.5523005	,	0
10,55	,	121848	,	-17154	,	-13669	,	-3.0868287	,	0
10,55	,	121879	,	-17156	,	-13667	,	-2.6941552	,	0
10,55	,	121895	,	-17160	,	-13671	,	-2.609455	,	0
10,55	,	121911	,	-17162	,	-13673	,	-2.9097824	,	0
10,55	,	121943	,	-17174	,	-13679	,	-3.5936275	,	0
10,55	,	121959	,	-17171	,	-13675	,	-4.655486	,	0
10,55	,	121975	,	-17176	,	-13677	,	-6.0034122	,	0
10,55	,	122008	,	-17175	,	-13671	,	-7.4202766	,	0
10,55	,	122023	,	-17166	,	-13674	,	-8.618334	,	0
10,55	,	122039	,	-17170	,	-13682	,	-9.285336	,	0
10,55	,	122071	,	-17181	,	-13674	,	-9.288407	,	0
10,55	,	122087	,	-17185	,	-13680	,	-8.841847	,	0
10,55	,	122119	,	-17202	,	-13687	,	-8.382903	,	0
10,55	,	122136	,	-17196	,	-13684	,	-8.317011	,	0
10,55	,	122151	,	-17204	,	-13687	,	-8.780212	,	0
10,55	,	122183	,	-17203	,	-13687	,	-9.628171	,	0
10,55	,	122199	,	-17212	,	-13688	,	-10.639038	,	0
10,55	,	122231	,	-17203	,	-13686	,	-11.597953	,	0
10,55	,	122247	,	-17217	,	-13691	,	-12.296417	,	0
10,55	,	122263	,	-17214	,	-13688	,	-12.6332855	,	0
10,55	,	122295	,	-17212	,	-13701	,	-12.59865	,	0
10,55	,	122311	,	-17208	,	-13686	,	-12.12773	,	0
10,55	,	122327	,	-17199	,	-13690	,	-11.090704	,	0
10,55	,	122359	,	-17192	,	-13686	,	-9.343895	,	1
10,55	,	122375	,	-17191	,	-13686	,	-6.828401	,	2
10,55	,	122407	,	-17188	,	-13683	,	-3.7075438	,	4
10,55	,	122423	,	-17183	,	-13677	,	-0.31388712	,	7
10,55	,	122439	,	-17184	,	-13680	,	3.0041125	,	10
10,55	,	122471	,	-17170	,	-13680	,	5.985522	,	13
10,55	,	122487	,	-17163	,	-13678	,	8.570005	,	15
10,55	,	122503	,	-17171	,	-13678	,	10.797325	,	17
10,55	,	122535	,	-17168	,	-13673	,	12.542322	,	19
10,55	,	122551	,	-17173	,	-13672	,	13.55229	,	19
10,55	,	122567	,	-17169	,	-13679	,	13.669159	,	19
10,55	,	122599	,	-17175	,	-13678	,	12.903702	,	17
10,55	,	122615	,	-17169	,	-13673	,	11.401345	,	14
10,55	,	122647	,	-17169	,	-13676	,	9.42017	,	11
10,55	,	122663	,	-17176	,	-13680	,	7.2469053	,	8
10,55	,	122679	,	-17180	,	-13681	,	5.037826	,	6
10,55	,	122711	,	-17169	,	-13677	,	2.8806143	,	4
10,55	,	122727	,	-17168	,	-13686	,	0.9935584	,	2
10,56	,	122743	,	-17176	,	-13687	,	-0.38879085	,	1
10,56	,	122775	,	-17185	,	-13674	,	-1.3045126	,	0
10,56	,	122791	,	-17183	,	-13681	,	-2.025528	,	0
10,56	,	122823	,	-17188	,	-13680	,	-2.7682648	,	0
10,56	,	122839	,	-17191	,	-13689	,	-3.5974383	,	0
10,56	,	122855	,	-17186	,	-13677	,	-4.4719706	,	0
10,56	,	122887	,	-17188	,	-13680	,	-5.240818	,	0
10,56	,	122903	,	-17181	,	-13682	,	-5.7036753	,	0
10,56	,	122919	,	-17192	,	-13677	,	-5.7471914	,	0
10,56	,	122951	,	-17193	,	-13688	,	-5.454195	,	0
10,56	,	122967	,	-17195	,	-13676	,	-5.044648	,	0
10,56	,	122983	,	-17193	,	-13686	,	-4.6774244	,	0
10,56	,	123015	,	-17202	,	-13678	,	-4.409652	,	0
10,56	,	123031	,	-17209	,	-13679	,	-4.3367386	,	0
10,56	,	123063	,	-17215	,	-13680	,	-4.6330194	,	0
10,56	,	123079	,	-17218	,	-13674	,	-5.4169493	,	0
10,56	,	123095	,	-17219	,	-13685	,	-6.6311364	,	0
10,56	,	123127	,	-17224	,	-13676	,	-8.067932	,	0
10,56	,	123143	,	-17226	,	-13672	,	-9.487583	,	0
10,56	,	123159	,	-17224	,	-13675	,	-10.674253	,	0
10,56	,	123191	,	-17233	,	-13669	,	-11.46206	,	0
10,56	,	123207	,	-17225	,	-13673	,	-11.781456	,	0
10,56	,	123239	,	-17234	,	-13671	,	-11.629343	,	0
10,56	,	123255	,	-17238	,	-13668	,	-11.090517	,	0
10,56	,	123271	,	-17235	,	-13673	,	-10.341949	,	0
10,56	,	123303	,	-17240	,	-13676	,	-9.518858	,	0
10,56	,	123319	,	-17243	,	-13677	,	-8.705469	,	0
10,56	,	123335	,	-17247	,	-13673	,	-8.008388	,	0
10,56	,	123367	,	-17244	,	-13672	,	-7.502068	,	0
10,56	,	123383	,	-17253	,	-13672	,	-7.1826415	,	0
10,56	,	123399	,	-17240	,	-13669	,	-6.978657	,	0
10,56	,	123431	,	-17232	,	-13676	,	-6.6668024	,	0
10,56	,	123447	,	-17223	,	-13667	,	-5.8687906	,	0
10,56	,	123479	,	-17226	,	-13690	,	-4.3201985	,	0
10,56	,	123495	,	-17218	,	-13662	,	-2.0717993	,	1
10,56	,	123511	,	-17226	,	-13671	,	0.5740864	,	3
10,56	,	123543	,	-17216	,	-13669	,	3.213211	,	5
10,56	,	123559	,	-17212	,	-13676	,	5.5430965	,	7
10,56	,	123575	,	-17207	,	-13674	,	7.479481	,	9
10,56	,	123607	,	-17213	,	-13674	,	9.008832	,	10
10,56	,	123623	,	-17207	,	-13675	,	10.049642	,	11
10,56	,	123654	,	-17201	,	-13680	,	10.564726	,	12
10,56	,	123671	,	-17210	,	-13675	,	10.625435	,	12
10,56	,	123687	,	-17198	,	-13681	,	10.307154	,	11
10,56	,	123718	,	-17193	,	-13680	,	9.749572	,	9
10,56	,	123734	,	-17203	,	-13667	,	9.153118	,	7
10,57	,	123751	,	-17202	,	-13671	,	8.536824	,	5
10,57	,	123783	,	-17192	,	-13669	,	7.8082957	,	3
10,57	,	123799	,	-17191	,	-13672	,	7.043173	,	2
10,57	,	123815	,	-17195	,	-13669	,	6.393347	,	1
10,57	,	123847	,	-17198	,	-13670	,	5.843565	,	0
10,57	,	123862	,	-17191	,	-13673	,	5.2800493	,	0
10,57	,	123894	,	-17195	,	-13670	,	4.673005	,	0
10,57	,	123911	,	-17186	,	-13666	,	4.0872917	,	0
10,57	,	123927	,	-17189	,	-13669	,	3.6288953	,	0
10,57	,	123958	,	-17194	,	-13677	,	3.3368254	,	0
10,57	,	123974	,	-17189	,	-13667	,	3.1203775	,	0
10,57	,	123990	,	-17174	,	-13672	,	2.9700727	,	0
10,57	,	124023	,	-17186	,	-13676	,	3.0413651	,	0
10,57	,	124039	,	-17192	,	-13671	,	3.3215122	,	0
10,57	,	124070	,	-17190	,	-13673	,	3.523266	,	0
10,57	,	124086	,	-17184	,	-13666	,	3.4371674	,	0
10,57	,	124102	,	-17194	,	-13672	,	3.07697	,	0
10,57	,	124134	,	-17193	,	-13678	,	2.483795	,	0
10,57	,	124151	,	-17196	,	-13675	,	1.6605217	,	0
10,57	,	124167	,	-17191	,	-13678	,	0.6763475	,	0
10,57	,	124199	,	-17199	,	-13685	,	-0.33672988	,	0
10,57	,	124215	,	-17204	,	-13673	,	-1.3257903	,	0
10,57	,	124231	,	-17205	,	-13682	,	-2.3516946	,	0
10,57	,	124262	,	-17208	,	-13676	,	-3.4500203	,	0
10,57	,	124278	,	-17201	,	-13675	,	-4.530041	,	0
10,57	,	124310	,	-17217	,	-13678	,	-5.459529	,	0
10,57	,	124326	,	-17220	,	-13678	,	-6.258866	,	0
10,57	,	124342	,	-17213	,	-13687	,	-7.025376	,	0
10,57	,	124375	,	-17230	,	-13690	,	-7.744324	,	0
10,57	,	124391	,	-17225	,	-13684	,	-8.403961	,	0
10,57	,	124407	,	-17226	,	-13686	,	-9.007805	,	0
10,57	,	124439	,	-17230	,	-13692	,	-9.459412	,	0
10,57	,	124454	,	-17225	,	-13679	,	-9.642288	,	0
10,57	,	124486	,	-17219	,	-13682	,	-9.433456	,	0
10,57	,	124502	,	-17225	,	-13683	,	-8.711147	,	0
10,57	,	124518	,	-17225	,	-13682	,	-7.5142136	,	0
10,57	,	124551	,	-17213	,	-13681	,	-5.996061	,	1
10,57	,	124567	,	-17213	,	-13676	,	-4.220501	,	2
10,57	,	124583	,	-17211	,	-13687	,	-2.212074	,	3
10,57	,	124614	,	-17207	,	-13672	,	-0.08105469	,	5
10,57	,	124630	,	-17203	,	-13676	,	2.036845	,	7
10,57	,	124646	,	-17207	,	-13681	,	4.009255	,	9
10,57	,	124679	,	-17209	,	-13687	,	5.6348515	,	10
10,57	,	124694	,	-17206	,	-13676	,	6.696278	,	11
10,57	,	124726	,	-17207	,	-13683	,	7.1098766	,	12
10,58	,	124742	,	-17202	,	-13678	,	6.95659	,	11
10,58	,	124758	,	-17198	,	-13682	,	6.439703	,	10
10,58	,	124790	,	-17201	,	-13684	,	5.801276	,	9
10,58	,	124806	,	-17200	,	-13681	,	5.177128	,	7
10,58	,	124822	,	-17211	,	-13687	,	4.532606	,	5
10,58	,	124854	,	-17195	,	-13683	,	3.7894468	,	3
10,58	,	124870	,	-17214	,	-13682	,	2.9563136	,	2
10,58	,	124902	,	-17204	,	-13690	,	2.042336	,	1
10,58	,	124918	,	-17210	,	-13684	,	1.044289	,	0
10,58	,	124934	,	-17210	,	-13685	,	0.032137275	,	0
10,58	,	124966	,	-17211	,	-13684	,	-0.9151512	,	0
10,58	,	124982	,	-17226	,	-13687	,	-1.8131869	,	0
10,58	,	124998	,	-17234	,	-13689	,	-2.85383	,	0
10,58	,	125031	,	-17226	,	-13688	,	-4.237587	,	0
10,58	,	125046	,	-17226	,	-13689	,	-5.844242	,	0
10,58	,	125062	,	-17227	,	-13696	,	-7.301879	,	0
10,58	,	125094	,	-17229	,	-13691	,	-8.311991	,	0
10,58	,	125110	,	-17241	,	-13690	,	-8.82025	,	0
10,58	,	125142	,	-17242	,	-13689	,	-9.010433	,	0
10,58	,	125158	,	-17240	,	-13686	,	-9.094793	,	0
10,58	,	125174	,	-17234	,	-13686	,	-9.079092	,	0
10,58	,	125206	,	-17235	,	-13687	,	-8.798655	,	0
10,58	,	125222	,	-17251	,	-13689	,	-8.196926	,	0
10,58	,	125238	,	-17253	,	-13696	,	-7.513786	,	0
10,58	,	125270	,	-17263	,	-13686	,	-7.1216974	,	0
10,58	,	125286	,	-17255	,	-13688	,	-7.219538	,	0
10,58	,	125318	,	-17256	,	-13691	,	-7.67964	,	0
10,58	,	125334	,	-17257	,	-13692	,	-8.17375	,	0
10,58	,	125350	,	-17261	,	-13692	,	-8.456145	,	0
10,58	,	125382	,	-17257	,	-13694	,	-8.443673	,	0
10,58	,	125398	,	-17275	,	-13689	,	-8.180202	,	0
10,58	,	125414	,	-17276	,	-13690	,	-7.8940167	,	0
10,58	,	125446	,	-17275	,	-13692	,	-7.8447933	,	0
10,58	,	125462	,	-17275	,	-13700	,	-8.047107	,	0
10,58	,	125478	,	-17274	,	-13699	,	-8.3067665	,	0
10,58	,	125510	,	-17271	,	-13694	,	-8.397935	,	0
10,58	,	125526	,	-17267	,	-13694	,	-8.127148	,	0
10,58	,	125558	,	-17255	,	-13691	,	-7.312021	,	0
10,58	,	125574	,	-17258	,	-13688	,	-5.8057094	,	0
10,58	,	125590	,	-17239	,	-13686	,	-3.5775356	,	1
10,58	,	125622	,	-17244	,	-13690	,	-0.70398355	,	3
10,58	,	125638	,	-17231	,	-13672	,	2.6299362	,	5
10,58	,	125654	,	-17228	,	-13674	,	6.147436	,	8
10,58	,	125686	,	-17215	,	-13672	,	9.604449	,	11
10,58	,	125702	,	-17206	,	-13670	,	12.871412	,	14
10,58	,	125734	,	-17205	,	-13671	,	15.873652	,	17
10,59	,	125750	,	-17218	,	-13669	,	18.37122	,	20
10,59	,	125766	,	-17204	,	-13669	,	19.947977	,	22
10,59	,	125798	,	-17198	,	-13664	,	20.419563	,	22
10,59	,	125814	,	-17193	,	-13662	,	20.018473	,	20
10,59	,	125830	,	-17194	,	-13658	,	19.093079	,	18
10,59	,	125862	,	-17193	,	-13658	,	17.850368	,	15
10,59	,	125878	,	-17187	,	-13645	,	16.39168	,	12
10,59	,	125894	,	-17193	,	-13653	,	14.801118	,	9
10,59	,	125926	,	-17199	,	-13649	,	13.078076	,	6
10,59	,	125942	,	-17194	,	-13652	,	11.135519	,	3
10,59	,	125974	,	-17192	,	-13643	,	8.998161	,	1
10,59	,	125990	,	-17192	,	-13647	,	6.860399	,	0
10,59	,	126006	,	-17193	,	-13645	,	4.923275	,	0
10,59	,	126038	,	-17198	,	-13648	,	3.2658954	,	0
10,59	,	126054	,	-17198	,	-13647	,	1.8520763	,	0
10,59	,	126070	,	-17200	,	-13651	,	0.6174078	,	0
10,59	,	126102	,	-17204	,	-13657	,	-0.48243868	,	0
10,59	,	126118	,	-17191	,	-13637	,	-1.4216231	,	0
10,59	,	126150	,	-17200	,	-13644	,	-2.0673068	,	0
10,59	,	126166	,	-17203	,	-13656	,	-2.3619337	,	0
10,59	,	126182	,	-17209	,	-13652	,	-2.4685156	,	0
10,59	,	126214	,	-17210	,	-13659	,	-2.622226	,	0
10,59	,	126230	,	-17216	,	-13657	,	-2.9762633	,	0
10,59	,	126246	,	-17214	,	-13653	,	-3.5766182	,	0
10,59	,	126278	,	-17211	,	-13664	,	-4.329728	,	0
10,59	,	126294	,	-17211	,	-13663	,	-5.007033	,	0
10,59	,	126326	,	-17213	,	-13665	,	-5.38922	,	0
10,59	,	126342	,	-17218	,	-13668	,	-5.4217424	,	0
10,59	,	126357	,	-17224	,	-13654	,	-5.241029	,	0
10,59	,	126389	,	-17222	,	-13670	,	-5.056262	,	0
10,59	,	126405	,	-17226	,	-13671	,	-4.9876537	,	0
10,59	,	126421	,	-17225	,	-13671	,	-5.0350747	,	0
10,59	,	126453	,	-17233	,	-13669	,	-5.171054	,	0
10,59	,	126469	,	-17227	,	-13668	,	-5.3804007	,	0
10,59	,	126486	,	-17238	,	-13669	,	-5.6303244	,	0
10,59	,	126518	,	-17230	,	-13671	,	-5.878962	,	0
10,59	,	126534	,	-17236	,	-13673	,	-6.0639915	,	0
10,59	,	126566	,	-17234	,	-13672	,	-6.108459	,	0
10,59	,	126582	,	-17225	,	-13684	,	-5.9277663	,	0
10,59	,	126598	,	-17222	,	-13665	,	-5.367836	,	0
10,59	,	126630	,	-17204	,	-13669	,	-4.21193	,	0
10,59	,	126646	,	-17192	,	-13667	,	-2.2138689	,	1
10,59	,	126662	,	-17195	,	-13667	,	0.74714947	,	2
10,59	,	126694	,	-17178	,	-13669	,	4.4711533	,	4
10,59	,	126710	,	-17169	,	-13667	,	8.614293	,	7
11,0	,	126741	,	-17168	,	-13664	,	12.872477	,	11
11,0	,	126757	,	-17162	,	-13664	,	16.878254	,	15
11,0	,	126773	,	-17151	,	-13662	,	20.26241	,	19
11,0	,	126805	,	-17136	,	-13665	,	22.892662	,	22
11,0	,	126822	,	-17136	,	-13668	,	24.86657	,	24
11,0	,	126838	,	-17137	,	-13656	,	26.225285	,	24
11,0	,	126870	,	-17139	,	-13662	,	26.7947	,	24
11,0	,	126885	,	-17141	,	-13662	,	26.33218	,	22
11,0	,	126902	,	-17139	,	-13655	,	24.731924	,	19
11,0	,	126933	,	-17135	,	-13659	,	22.13382	,	15
11,0	,	126949	,	-17129	,	-13663	,	18.924816	,	11
11,0	,	126981	,	-17135	,	-13659	,	15.570246	,	7
11,0	,	126997	,	-17127	,	-13662	,	12.408729	,	4
11,0	,	127013	,	-17133	,	-13663	,	9.631592	,	2
11,0	,	127045	,	-17135	,	-13666	,	7.2975984	,	1
11,0	,	127062	,	-17148	,	-13673	,	5.2761073	,	0
11,0	,	127078	,	-17138	,	-13662	,	3.3502412	,	0
11,0	,	127109	,	-17146	,	-13671	,	1.4502885	,	0
11,0	,	127125	,	-17142	,	-13667	,	-0.32236862	,	0
11,0	,	127157	,	-17163	,	-13668	,	-1.9237304	,	0
11,0	,	127173	,	-17157	,	-13667	,	-3.4889073	,	0
11,0	,	127189	,	-17152	,	-13672	,	-5.0754156	,	0
11,0	,	127221	,	-17166	,	-13668	,	-6.5137577	,	0
11,0	,	127237	,	-17167	,	-13677	,	-7.7008004	,	0
11,0	,	127254	,	-17173	,	-13670	,	-8.707422	,	0
11,0	,	127286	,	-17168	,	-13678	,	-9.565977	,	0
11,0	,	127301	,	-17173	,	-13687	,	-10.185574	,	0
11,0	,	127317	,	-17181	,	-13677	,	-10.495764	,	0
11,0	,	127349	,	-17181	,	-13689	,	-10.569021	,	0
11,0	,	127365	,	-17192	,	-13683	,	-10.551099	,	0
11,0	,	127397	,	-17192	,	-13687	,	-10.584564	,	0
11,0	,	127413	,	-17194	,	-13685	,	-10.739748	,	0
11,0	,	127429	,	-17195	,	-13688	,	-10.950459	,	0
11,0	,	127461	,	-17191	,	-13693	,	-11.052883	,	0
