Data recorded on Mon Jul 24 12-26-59 CAT 2017
Time: 12:27:9
Time		Millis		IR PPG		Red PPG		Filtered		SSF
27,18	,	22833	,	-23802	,	-22514	,	-4.8399367	,	0
27,18	,	22865	,	-23809	,	-22529	,	-6.548878	,	0
27,18	,	22881	,	-23793	,	-22529	,	-8.289345	,	0
27,18	,	22913	,	-23811	,	-22535	,	-9.836547	,	0
27,18	,	22929	,	-23794	,	-22517	,	-10.9128475	,	0
27,18	,	22945	,	-23812	,	-22527	,	-11.374886	,	0
27,18	,	22977	,	-23809	,	-22526	,	-11.268059	,	0
27,18	,	22993	,	-23812	,	-22526	,	-10.781496	,	0
27,18	,	23009	,	-23815	,	-22529	,	-10.086584	,	0
27,18	,	23041	,	-23820	,	-22541	,	-9.327335	,	0
27,18	,	23057	,	-23813	,	-22534	,	-8.611336	,	0
27,18	,	23073	,	-23798	,	-22531	,	-7.8315816	,	0
27,18	,	23105	,	-23799	,	-22530	,	-6.669482	,	0
27,18	,	23121	,	-23777	,	-22534	,	-4.8209996	,	1
27,18	,	23153	,	-23782	,	-22508	,	-2.1374824	,	2
27,18	,	23169	,	-23780	,	-22518	,	1.236136	,	4
27,18	,	23185	,	-23769	,	-22519	,	4.875429	,	7
27,18	,	23217	,	-23767	,	-22508	,	8.380569	,	10
27,18	,	23233	,	-23772	,	-22517	,	11.445396	,	13
27,18	,	23249	,	-23780	,	-22510	,	13.693916	,	16
27,18	,	23281	,	-23784	,	-22515	,	14.720706	,	18
27,18	,	23297	,	-23775	,	-22519	,	14.350244	,	19
27,18	,	23329	,	-23777	,	-22511	,	12.808695	,	18
27,18	,	23345	,	-23780	,	-22514	,	10.542883	,	17
27,18	,	23361	,	-23790	,	-22529	,	7.8976674	,	15
27,18	,	23393	,	-23775	,	-22491	,	5.0990334	,	12
27,18	,	23409	,	-23766	,	-22506	,	2.5204039	,	9
27,18	,	23425	,	-23766	,	-22506	,	0.6757965	,	6
27,18	,	23457	,	-23768	,	-22504	,	-0.15575027	,	3
27,18	,	23473	,	-23771	,	-22511	,	-0.10881746	,	1
27,18	,	23505	,	-23771	,	-22515	,	0.44558513	,	0
27,18	,	23521	,	-23770	,	-22503	,	1.1448002	,	0
27,18	,	23537	,	-23772	,	-22514	,	1.75183	,	0
27,18	,	23569	,	-23793	,	-22515	,	2.038933	,	0
27,18	,	23585	,	-23788	,	-22519	,	1.6891987	,	0
27,18	,	23601	,	-23778	,	-22521	,	0.60156596	,	0
27,18	,	23633	,	-23775	,	-22515	,	-0.85449284	,	0
27,18	,	23649	,	-23796	,	-22518	,	-2.2320328	,	0
27,18	,	23665	,	-23792	,	-22518	,	-3.4544528	,	0
27,18	,	23697	,	-23793	,	-22520	,	-4.6197805	,	0
27,18	,	23713	,	-23802	,	-22523	,	-5.717028	,	0
27,18	,	23745	,	-23796	,	-22520	,	-6.6919217	,	0
27,18	,	23761	,	-23797	,	-22514	,	-7.4515476	,	0
27,18	,	23777	,	-23801	,	-22529	,	-7.86732	,	0
27,18	,	23809	,	-23801	,	-22533	,	-7.9104843	,	0
27,18	,	23825	,	-23803	,	-22533	,	-7.652179	,	0
27,18	,	23841	,	-23813	,	-22519	,	-7.2283583	,	0
27,19	,	23873	,	-23814	,	-22533	,	-6.853322	,	0
27,19	,	23889	,	-23814	,	-22539	,	-6.694786	,	0
27,19	,	23921	,	-23794	,	-22527	,	-6.6501026	,	0
27,19	,	23937	,	-23794	,	-22525	,	-6.313984	,	0
27,19	,	23953	,	-23781	,	-22518	,	-5.256422	,	0
27,19	,	23985	,	-23780	,	-22514	,	-3.2836368	,	1
27,19	,	24001	,	-23758	,	-22508	,	-0.41086984	,	2
27,19	,	24017	,	-23781	,	-22514	,	3.149399	,	4
27,19	,	24049	,	-23778	,	-22510	,	6.8095865	,	7
27,19	,	24065	,	-23768	,	-22527	,	9.838037	,	10
27,19	,	24081	,	-23771	,	-22501	,	11.87527	,	13
27,19	,	24113	,	-23785	,	-22519	,	12.834645	,	15
27,19	,	24129	,	-23786	,	-22512	,	12.5763645	,	15
27,19	,	24160	,	-23779	,	-22514	,	11.087896	,	15
27,19	,	24177	,	-23784	,	-22514	,	8.702912	,	14
27,19	,	24193	,	-23769	,	-22514	,	5.973452	,	13
27,19	,	24225	,	-23778	,	-22504	,	3.46673	,	11
27,19	,	24241	,	-23762	,	-22511	,	1.6086922	,	8
27,19	,	24257	,	-23774	,	-22505	,	0.59542084	,	5
27,19	,	24289	,	-23783	,	-22520	,	0.2947191	,	2
27,19	,	24305	,	-23774	,	-22518	,	0.30930084	,	0
27,19	,	24336	,	-23771	,	-22499	,	0.37144876	,	0
27,19	,	24352	,	-23781	,	-22521	,	0.4443578	,	0
27,19	,	24368	,	-23786	,	-22509	,	0.43008244	,	0
27,19	,	24401	,	-23790	,	-22514	,	0.11790779	,	0
27,19	,	24417	,	-23797	,	-22513	,	-0.64969975	,	0
27,19	,	24433	,	-23799	,	-22521	,	-1.9115751	,	0
27,19	,	24465	,	-23796	,	-22518	,	-3.5486858	,	0
27,19	,	24481	,	-23811	,	-22526	,	-5.3283615	,	0
27,19	,	24497	,	-23798	,	-22523	,	-7.038125	,	0
27,19	,	24528	,	-23800	,	-22529	,	-8.430599	,	0
27,19	,	24544	,	-23816	,	-22528	,	-9.299799	,	0
27,19	,	24576	,	-23810	,	-22524	,	-9.714426	,	0
27,19	,	24592	,	-23816	,	-22525	,	-9.85881	,	0
27,19	,	24609	,	-23824	,	-22539	,	-9.858386	,	0
27,19	,	24640	,	-23823	,	-22530	,	-9.845105	,	0
27,19	,	24656	,	-23825	,	-22521	,	-9.88368	,	0
27,19	,	24672	,	-23815	,	-22524	,	-9.864706	,	0
27,19	,	24705	,	-23806	,	-22519	,	-9.509239	,	0
27,19	,	24720	,	-23797	,	-22529	,	-8.455495	,	0
27,19	,	24752	,	-23791	,	-22520	,	-6.442121	,	1
27,19	,	24768	,	-23796	,	-22518	,	-3.5104613	,	3
27,19	,	24784	,	-23792	,	-22496	,	-0.06135583	,	5
27,19	,	24816	,	-23781	,	-22507	,	3.4076722	,	8
27,19	,	24833	,	-23791	,	-22512	,	6.5464196	,	11
27,20	,	24849	,	-23791	,	-22515	,	9.03583	,	14
27,20	,	24880	,	-23800	,	-22520	,	10.520102	,	16
27,20	,	24896	,	-23800	,	-22518	,	10.766236	,	17
27,20	,	24912	,	-23793	,	-22517	,	9.826681	,	17
27,20	,	24944	,	-23792	,	-22524	,	8.07996	,	16
27,20	,	24960	,	-23800	,	-22517	,	6.0007634	,	14
27,20	,	24992	,	-23780	,	-22518	,	3.9703107	,	12
27,20	,	25008	,	-23784	,	-22520	,	2.3687005	,	9
27,20	,	25024	,	-23790	,	-22499	,	1.4571164	,	6
27,20	,	25057	,	-23794	,	-22513	,	1.1304684	,	3
27,20	,	25072	,	-23805	,	-22509	,	1.00285	,	1
27,20	,	25088	,	-23788	,	-22506	,	0.729526	,	0
27,20	,	25120	,	-23795	,	-22512	,	0.28059894	,	0
27,20	,	25136	,	-23797	,	-22516	,	-0.19042906	,	0
27,20	,	25168	,	-23804	,	-22519	,	-0.6607914	,	0
27,20	,	25184	,	-23805	,	-22515	,	-1.2357725	,	0
27,20	,	25200	,	-23803	,	-22521	,	-1.9667755	,	0
27,20	,	25232	,	-23803	,	-22521	,	-2.760179	,	0
27,20	,	25249	,	-23813	,	-22526	,	-3.492846	,	0
27,20	,	25264	,	-23826	,	-22509	,	-4.233415	,	0
27,20	,	25296	,	-23823	,	-22532	,	-5.203364	,	0
27,20	,	25312	,	-23824	,	-22523	,	-6.4618187	,	0
27,20	,	25328	,	-23825	,	-22525	,	-7.803458	,	0
27,20	,	25360	,	-23817	,	-22523	,	-8.917758	,	0
27,20	,	25376	,	-23820	,	-22523	,	-9.505421	,	0
27,20	,	25408	,	-23811	,	-22526	,	-9.360255	,	0
27,20	,	25424	,	-23800	,	-22518	,	-8.355875	,	0
27,20	,	25440	,	-23804	,	-22514	,	-6.4405913	,	1
27,20	,	25472	,	-23795	,	-22520	,	-3.7646227	,	2
27,20	,	25488	,	-23800	,	-22496	,	-0.6704788	,	4
27,20	,	25504	,	-23772	,	-22507	,	2.5415096	,	7
27,20	,	25536	,	-23771	,	-22507	,	5.8257065	,	10
27,20	,	25552	,	-23779	,	-22502	,	9.16513	,	13
27,20	,	25584	,	-23778	,	-22499	,	12.201275	,	16
27,20	,	25601	,	-23771	,	-22501	,	14.448032	,	19
27,20	,	25616	,	-23770	,	-22499	,	15.695929	,	21
27,20	,	25648	,	-23790	,	-22499	,	15.907139	,	21
27,20	,	25664	,	-23791	,	-22501	,	14.937939	,	20
27,20	,	25680	,	-23772	,	-22503	,	12.790061	,	18
27,20	,	25712	,	-23775	,	-22507	,	9.9671335	,	15
27,20	,	25728	,	-23765	,	-22484	,	7.201221	,	12
27,20	,	25760	,	-23752	,	-22498	,	5.102579	,	9
27,20	,	25776	,	-23765	,	-22494	,	4.034796	,	6
27,20	,	25792	,	-23764	,	-22493	,	3.9040568	,	3
27,20	,	25824	,	-23765	,	-22493	,	4.2549396	,	1
27,20	,	25840	,	-23779	,	-22493	,	4.596549	,	0
27,21	,	25856	,	-23767	,	-22495	,	4.5451884	,	0
27,21	,	25888	,	-23772	,	-22503	,	3.979438	,	0
27,21	,	25904	,	-23775	,	-22504	,	3.0228276	,	0
27,21	,	25936	,	-23776	,	-22495	,	1.8166914	,	0
27,21	,	25952	,	-23773	,	-22503	,	0.49891376	,	0
27,21	,	25968	,	-23775	,	-22488	,	-0.74344075	,	0
27,21	,	26000	,	-23782	,	-22501	,	-1.7845514	,	0
27,21	,	26016	,	-23786	,	-22502	,	-2.6621983	,	0
27,21	,	26032	,	-23791	,	-22502	,	-3.5094793	,	0
27,21	,	26064	,	-23791	,	-22506	,	-4.4192986	,	0
27,21	,	26080	,	-23788	,	-22499	,	-5.3510222	,	0
27,21	,	26112	,	-23798	,	-22501	,	-6.175168	,	0
27,21	,	26128	,	-23793	,	-22498	,	-6.818767	,	0
27,21	,	26144	,	-23792	,	-22508	,	-7.231625	,	0
27,21	,	26176	,	-23776	,	-22493	,	-7.230029	,	0
27,21	,	26192	,	-23784	,	-22477	,	-6.5644903	,	0
27,21	,	26208	,	-23751	,	-22474	,	-5.057006	,	0
27,21	,	26272	,	-23739	,	-22475	,	4.259243	,	6
27,21	,	26304	,	-23729	,	-22472	,	8.177156	,	9
27,21	,	26320	,	-23724	,	-22465	,	12.234004	,	12
27,21	,	26352	,	-23738	,	-22462	,	16.085777	,	16
27,21	,	26368	,	-23739	,	-22456	,	19.094866	,	19
27,21	,	26384	,	-23736	,	-22466	,	20.65218	,	22
27,21	,	26416	,	-23727	,	-22453	,	20.607716	,	23
27,21	,	26432	,	-23751	,	-22457	,	19.18536	,	22
27,21	,	26448	,	-23740	,	-22453	,	16.607002	,	20
27,21	,	26480	,	-23743	,	-22456	,	13.149541	,	17
27,21	,	26496	,	-23731	,	-22454	,	9.346346	,	14
27,21	,	26528	,	-23726	,	-22456	,	5.864319	,	11
27,21	,	26544	,	-23721	,	-22452	,	3.2761116	,	7
27,21	,	26560	,	-23719	,	-22451	,	1.8875823	,	4
27,21	,	26592	,	-23735	,	-22453	,	1.5969472	,	1
27,21	,	26608	,	-23725	,	-22456	,	1.9366443	,	0
27,21	,	26624	,	-23728	,	-22469	,	2.43232	,	0
27,21	,	26656	,	-23741	,	-22449	,	2.7804914	,	0
27,21	,	26672	,	-23751	,	-22463	,	2.6475868	,	0
27,21	,	26688	,	-23740	,	-22460	,	1.7598355	,	0
27,21	,	26719	,	-23750	,	-22461	,	0.20098841	,	0
27,21	,	26736	,	-23745	,	-22460	,	-1.6903661	,	0
27,21	,	26768	,	-23745	,	-22465	,	-3.5517778	,	0
27,21	,	26784	,	-23743	,	-22468	,	-5.053074	,	0
27,21	,	26800	,	-23760	,	-22463	,	-6.042976	,	0
27,21	,	26832	,	-23744	,	-22463	,	-6.604578	,	0
27,21	,	26848	,	-23748	,	-22473	,	-6.785032	,	0
27,22	,	26864	,	-23761	,	-22458	,	-6.578644	,	0
27,22	,	26895	,	-23761	,	-22468	,	-6.1882	,	0
27,22	,	26911	,	-23755	,	-22460	,	-5.861369	,	0
27,22	,	26944	,	-23762	,	-22468	,	-5.6251907	,	0
27,22	,	26960	,	-23761	,	-22463	,	-5.4227667	,	0
27,22	,	26976	,	-23778	,	-22458	,	-5.315061	,	0
27,22	,	27008	,	-23745	,	-22455	,	-5.340448	,	0
27,22	,	27024	,	-23754	,	-22451	,	-5.22065	,	0
27,22	,	27039	,	-23726	,	-22453	,	-4.4695644	,	0
27,22	,	27071	,	-23713	,	-22452	,	-2.6334486	,	0
27,22	,	27087	,	-23736	,	-22465	,	0.43349004	,	1
27,22	,	27103	,	-23718	,	-22429	,	4.2433877	,	4
27,22	,	27136	,	-23714	,	-22437	,	8.069921	,	7
27,22	,	27152	,	-23704	,	-22433	,	11.518945	,	10
27,22	,	27184	,	-23696	,	-22434	,	14.486445	,	13
27,22	,	27200	,	-23716	,	-22432	,	16.853922	,	15
27,22	,	27215	,	-23711	,	-22445	,	18.274536	,	17
27,22	,	27247	,	-23708	,	-22443	,	18.416607	,	18
27,22	,	27263	,	-23693	,	-22429	,	17.3923	,	18
27,22	,	27279	,	-23698	,	-22436	,	15.703248	,	17
27,22	,	27311	,	-23688	,	-22426	,	13.859241	,	14
27,22	,	27328	,	-23707	,	-22441	,	12.110906	,	11
27,22	,	27360	,	-23714	,	-22417	,	10.338309	,	8
27,22	,	27375	,	-23709	,	-22438	,	8.252516	,	5
27,22	,	27391	,	-23694	,	-22436	,	5.8870163	,	3
27,22	,	27423	,	-23715	,	-22431	,	3.606587	,	1
27,22	,	27439	,	-23697	,	-22430	,	1.668679	,	0
27,22	,	27455	,	-23703	,	-22431	,	0.19167519	,	0
27,22	,	27487	,	-23721	,	-22433	,	-0.82111466	,	0
27,22	,	27503	,	-23693	,	-22447	,	-1.5307059	,	0
27,22	,	27519	,	-23718	,	-22443	,	-2.008074	,	0
27,22	,	27552	,	-23714	,	-22440	,	-2.3056633	,	0
27,22	,	27567	,	-23719	,	-22440	,	-2.6207213	,	0
27,22	,	27599	,	-23721	,	-22442	,	-3.093399	,	0
27,22	,	27615	,	-23723	,	-22436	,	-3.7378643	,	0
27,22	,	27631	,	-23726	,	-22436	,	-4.5007057	,	0
27,22	,	27663	,	-23731	,	-22440	,	-5.311391	,	0
27,22	,	27679	,	-23732	,	-22445	,	-6.125963	,	0
27,22	,	27695	,	-23736	,	-22450	,	-6.906582	,	0
27,22	,	27727	,	-23746	,	-22446	,	-7.655182	,	0
27,22	,	27743	,	-23745	,	-22448	,	-8.4354925	,	0
27,22	,	27775	,	-23756	,	-22451	,	-9.289992	,	0
27,22	,	27791	,	-23753	,	-22461	,	-10.202233	,	0
27,22	,	27807	,	-23752	,	-22436	,	-11.066642	,	0
27,22	,	27839	,	-23738	,	-22454	,	-11.604349	,	0
27,23	,	27855	,	-23722	,	-22443	,	-11.3507	,	0
27,23	,	27871	,	-23710	,	-22439	,	-9.79674	,	0
27,23	,	27903	,	-23727	,	-22432	,	-6.788088	,	1
27,23	,	27919	,	-23713	,	-22434	,	-2.7901158	,	4
27,23	,	27935	,	-23698	,	-22431	,	1.554245	,	7
27,23	,	27967	,	-23695	,	-22425	,	5.9156036	,	11
27,23	,	27983	,	-23694	,	-22426	,	10.090313	,	15
27,23	,	28015	,	-23685	,	-22416	,	13.777498	,	19
27,23	,	28031	,	-23682	,	-22429	,	16.731298	,	22
27,23	,	28047	,	-23688	,	-22401	,	18.79869	,	24
27,23	,	28079	,	-23698	,	-22406	,	19.750683	,	26
27,23	,	28095	,	-23699	,	-22405	,	19.315855	,	25
27,23	,	28111	,	-23673	,	-22410	,	17.562532	,	22
27,23	,	28143	,	-23676	,	-22409	,	15.117027	,	19
27,23	,	28160	,	-23685	,	-22409	,	12.675803	,	15
27,23	,	28191	,	-23695	,	-22405	,	10.424012	,	11
27,23	,	28207	,	-23668	,	-22404	,	8.276392	,	7
27,23	,	28223	,	-23664	,	-22401	,	6.460354	,	4
27,23	,	28255	,	-23686	,	-22406	,	5.3049526	,	2
27,23	,	28271	,	-23684	,	-22402	,	4.6519423	,	0
27,23	,	28287	,	-23697	,	-22402	,	3.9940002	,	0
27,23	,	28319	,	-23692	,	-22417	,	2.9425375	,	0
27,23	,	28335	,	-23686	,	-22419	,	1.4554465	,	0
27,23	,	28367	,	-23708	,	-22410	,	-0.2672826	,	0
27,23	,	28383	,	-23700	,	-22416	,	-2.1090684	,	0
27,23	,	28399	,	-23701	,	-22413	,	-3.9855735	,	0
27,23	,	28431	,	-23694	,	-22412	,	-5.6276393	,	0
27,23	,	28447	,	-23705	,	-22420	,	-6.745966	,	0
27,23	,	28463	,	-23706	,	-22415	,	-7.290255	,	0
27,23	,	28495	,	-23708	,	-22434	,	-7.4243116	,	0
27,23	,	28511	,	-23706	,	-22414	,	-7.308174	,	0
27,23	,	28527	,	-23711	,	-22430	,	-7.0139875	,	0
27,23	,	28559	,	-23719	,	-22434	,	-6.6428	,	0
27,23	,	28575	,	-23714	,	-22432	,	-6.350514	,	0
27,23	,	28607	,	-23717	,	-22436	,	-6.1929274	,	0
27,23	,	28623	,	-23729	,	-22439	,	-6.1545854	,	0
27,23	,	28639	,	-23742	,	-22438	,	-6.37982	,	0
27,23	,	28671	,	-23742	,	-22442	,	-7.1182666	,	0
27,23	,	28687	,	-23731	,	-22445	,	-8.342288	,	0
27,23	,	28703	,	-23744	,	-22444	,	-9.662528	,	0
27,23	,	28735	,	-23739	,	-22463	,	-10.704644	,	0
27,23	,	28751	,	-23764	,	-22436	,	-11.399449	,	0
27,23	,	28783	,	-23757	,	-22454	,	-11.950825	,	0
27,23	,	28799	,	-23761	,	-22463	,	-12.53034	,	0
27,23	,	28815	,	-23782	,	-22462	,	-13.164049	,	0
27,23	,	28847	,	-23765	,	-22463	,	-13.886108	,	0
27,24	,	28863	,	-23761	,	-22471	,	-14.530752	,	0
27,24	,	28879	,	-23763	,	-22470	,	-14.662508	,	0
27,24	,	28911	,	-23755	,	-22460	,	-13.958759	,	0
27,24	,	28927	,	-23738	,	-22455	,	-12.2639265	,	0
27,24	,	28943	,	-23739	,	-22453	,	-9.467249	,	1
27,24	,	28975	,	-23724	,	-22450	,	-5.6303835	,	3
27,24	,	28991	,	-23709	,	-22442	,	-0.9669452	,	6
27,24	,	29023	,	-23702	,	-22436	,	4.30147	,	10
27,24	,	29039	,	-23723	,	-22441	,	9.73267	,	15
27,24	,	29055	,	-23702	,	-22441	,	14.555856	,	20
27,24	,	29087	,	-23714	,	-22443	,	18.106844	,	24
27,24	,	29103	,	-23726	,	-22436	,	20.000713	,	27
27,24	,	29119	,	-23727	,	-22435	,	19.960451	,	28
27,24	,	29151	,	-23711	,	-22443	,	18.063393	,	27
27,24	,	29167	,	-23714	,	-22430	,	14.952039	,	25
27,24	,	29199	,	-23716	,	-22449	,	11.426318	,	22
27,24	,	29215	,	-23706	,	-22420	,	8.060884	,	18
27,24	,	29231	,	-23706	,	-22443	,	5.26645	,	13
27,24	,	29263	,	-23701	,	-22428	,	3.3339458	,	8
27,24	,	29279	,	-23709	,	-22430	,	2.317731	,	4
27,24	,	29295	,	-23696	,	-22429	,	2.0598621	,	1
27,24	,	29327	,	-23711	,	-22435	,	2.3161201	,	0
27,24	,	29343	,	-23700	,	-22434	,	2.7935534	,	0
27,24	,	29358	,	-23709	,	-22436	,	3.2207747	,	0
27,24	,	29391	,	-23723	,	-22442	,	3.3433065	,	0
27,24	,	29407	,	-23709	,	-22449	,	2.9121263	,	0
27,24	,	29439	,	-23725	,	-22463	,	1.8877802	,	0
27,24	,	29455	,	-23728	,	-22432	,	0.38290596	,	0
27,24	,	29471	,	-23725	,	-22453	,	-1.4956717	,	0
27,24	,	29503	,	-23714	,	-22452	,	-3.4639993	,	0
27,24	,	29519	,	-23722	,	-22451	,	-5.0648313	,	0
27,24	,	29535	,	-23724	,	-22451	,	-6.0177317	,	0
27,24	,	29567	,	-23740	,	-22460	,	-6.42932	,	0
27,24	,	29582	,	-23745	,	-22451	,	-6.6986284	,	0
27,24	,	29614	,	-23730	,	-22454	,	-7.1369295	,	0
27,24	,	29630	,	-23727	,	-22466	,	-7.6049843	,	0
27,24	,	29647	,	-23735	,	-22459	,	-7.7334394	,	0
27,24	,	29679	,	-23750	,	-22463	,	-7.46264	,	0
27,24	,	29695	,	-23739	,	-22464	,	-7.0702863	,	0
27,24	,	29711	,	-23759	,	-22462	,	-6.814739	,	0
27,24	,	29742	,	-23752	,	-22464	,	-6.8449473	,	0
27,24	,	29758	,	-23755	,	-22467	,	-7.187022	,	0
27,24	,	29774	,	-23765	,	-22467	,	-7.7276955	,	0
27,24	,	29806	,	-23760	,	-22469	,	-8.36159	,	0
27,24	,	29823	,	-23774	,	-22471	,	-9.032271	,	0
27,25	,	29855	,	-23786	,	-22471	,	-9.786495	,	0
27,25	,	29871	,	-23754	,	-22471	,	-10.634243	,	0
27,25	,	29887	,	-23748	,	-22476	,	-11.121521	,	0
27,25	,	29919	,	-23744	,	-22446	,	-10.543764	,	0
27,25	,	29935	,	-23732	,	-22456	,	-8.554598	,	0
27,25	,	29950	,	-23724	,	-22452	,	-5.221539	,	1
27,25	,	29982	,	-23727	,	-22438	,	-0.8834343	,	4
27,25	,	29998	,	-23747	,	-22449	,	3.7495775	,	8
27,25	,	30031	,	-23732	,	-22444	,	7.730242	,	12
27,25	,	30047	,	-23714	,	-22448	,	10.524245	,	15
27,25	,	30062	,	-23720	,	-22453	,	12.288135	,	17
27,25	,	30095	,	-23736	,	-22450	,	13.251918	,	18
27,25	,	30111	,	-23722	,	-22436	,	13.336362	,	18
27,25	,	30127	,	-23734	,	-22459	,	12.491911	,	18
27,25	,	30159	,	-23743	,	-22423	,	10.803434	,	17
27,25	,	30175	,	-23723	,	-22440	,	8.423334	,	14
27,25	,	30206	,	-23737	,	-22446	,	5.7276535	,	10
27,25	,	30222	,	-23710	,	-22434	,	3.2526975	,	6
27,25	,	30238	,	-23716	,	-22442	,	1.5234911	,	3
27,25	,	30270	,	-23723	,	-22438	,	0.81172967	,	1
27,25	,	30286	,	-23718	,	-22441	,	0.92735136	,	0
27,25	,	30302	,	-23730	,	-22438	,	1.4363621	,	0
27,25	,	30335	,	-23720	,	-22441	,	1.9404916	,	0
27,25	,	30350	,	-23725	,	-22445	,	2.2158518	,	0
27,25	,	30366	,	-23724	,	-22451	,	2.2261572	,	0
27,25	,	30398	,	-23747	,	-22444	,	1.9012864	,	0
27,25	,	30414	,	-23759	,	-22449	,	0.93284523	,	0
27,25	,	30446	,	-23743	,	-22451	,	-0.941615	,	0
27,25	,	30462	,	-23755	,	-22455	,	-3.4877045	,	0
27,25	,	30478	,	-23740	,	-22456	,	-6.115279	,	0
27,25	,	30510	,	-23758	,	-22460	,	-8.299743	,	0
27,25	,	30526	,	-23751	,	-22463	,	-9.792267	,	0
27,25	,	30542	,	-23760	,	-22463	,	-10.5963955	,	0
27,25	,	30574	,	-23758	,	-22460	,	-10.821982	,	0
27,25	,	30590	,	-23753	,	-22469	,	-10.567951	,	0
27,25	,	30622	,	-23764	,	-22456	,	-9.9058075	,	0
27,25	,	30638	,	-23786	,	-22477	,	-9.101641	,	0
27,25	,	30654	,	-23776	,	-22472	,	-8.635713	,	0
27,25	,	30686	,	-23785	,	-22472	,	-8.766485	,	0
27,25	,	30702	,	-23786	,	-22476	,	-9.3886	,	0
27,25	,	30718	,	-23792	,	-22479	,	-10.287539	,	0
27,25	,	30750	,	-23796	,	-22483	,	-11.278997	,	0
27,25	,	30766	,	-23783	,	-22480	,	-12.15492	,	0
27,25	,	30782	,	-23792	,	-22475	,	-12.624606	,	0
27,25	,	30814	,	-23786	,	-22476	,	-12.459281	,	0
27,25	,	30830	,	-23770	,	-22488	,	-11.538016	,	0
27,26	,	30862	,	-23769	,	-22453	,	-9.718412	,	0
27,26	,	30878	,	-23757	,	-22467	,	-6.9355097	,	1
27,26	,	30894	,	-23753	,	-22463	,	-3.318623	,	3
27,26	,	30926	,	-23745	,	-22456	,	0.8649626	,	6
27,26	,	30942	,	-23725	,	-22457	,	5.344083	,	10
27,26	,	30958	,	-23747	,	-22457	,	9.833888	,	14
27,26	,	30990	,	-23721	,	-22447	,	13.891144	,	18
27,26	,	31006	,	-23744	,	-22443	,	17.050354	,	22
27,26	,	31038	,	-23720	,	-22447	,	19.025408	,	25
27,26	,	31054	,	-23727	,	-22447	,	19.792448	,	26
27,26	,	31070	,	-23733	,	-22458	,	19.503738	,	25
27,26	,	31102	,	-23734	,	-22447	,	18.241905	,	23
27,26	,	31118	,	-23734	,	-22445	,	16.082645	,	20
27,26	,	31134	,	-23731	,	-22442	,	13.276378	,	16
27,26	,	31166	,	-23746	,	-22437	,	10.129702	,	12
27,26	,	31182	,	-23715	,	-22435	,	6.9492145	,	8
27,26	,	31198	,	-23728	,	-22437	,	4.195548	,	4
27,26	,	31230	,	-23740	,	-22441	,	2.197042	,	1
27,26	,	31246	,	-23730	,	-22444	,	0.8248205	,	0
27,26	,	31278	,	-23730	,	-22438	,	-0.13818085	,	0
27,26	,	31294	,	-23727	,	-22451	,	-0.7166606	,	0
27,26	,	31310	,	-23733	,	-22436	,	-0.91209376	,	0
27,26	,	31342	,	-23735	,	-22450	,	-0.84406954	,	0
27,26	,	31358	,	-23741	,	-22450	,	-0.7378515	,	0
27,26	,	31374	,	-23746	,	-22453	,	-0.8388494	,	0
27,26	,	31406	,	-23737	,	-22452	,	-1.2729104	,	0
27,26	,	31422	,	-23755	,	-22461	,	-1.9993563	,	0
27,26	,	31454	,	-23756	,	-22460	,	-2.9998446	,	0
27,26	,	31470	,	-23755	,	-22460	,	-4.2969847	,	0
27,26	,	31486	,	-23765	,	-22465	,	-5.7899165	,	0
27,26	,	31518	,	-23779	,	-22466	,	-7.3919935	,	0
27,26	,	31534	,	-23758	,	-22477	,	-9.057293	,	0
27,26	,	31550	,	-23766	,	-22448	,	-10.504234	,	0
27,26	,	31582	,	-23777	,	-22471	,	-11.400019	,	0
27,26	,	31598	,	-23788	,	-22470	,	-11.801175	,	0
27,26	,	31614	,	-23780	,	-22476	,	-12.003264	,	0
27,26	,	31646	,	-23798	,	-22476	,	-12.178492	,	0
27,26	,	31662	,	-23797	,	-22484	,	-12.419981	,	0
27,26	,	31693	,	-23800	,	-22484	,	-12.797324	,	0
27,26	,	31710	,	-23796	,	-22473	,	-13.213991	,	0
27,26	,	31726	,	-23814	,	-22481	,	-13.502057	,	0
27,26	,	31758	,	-23806	,	-22483	,	-13.632711	,	0
27,26	,	31774	,	-23803	,	-22500	,	-13.582062	,	0
27,26	,	31790	,	-23786	,	-22471	,	-13.097013	,	0
27,26	,	31822	,	-23768	,	-22470	,	-11.7115555	,	0
27,26	,	31838	,	-23758	,	-22465	,	-8.959755	,	1
27,27	,	31870	,	-23761	,	-22463	,	-4.735699	,	3
27,27	,	31886	,	-23755	,	-22458	,	0.5037961	,	7
27,27	,	31902	,	-23746	,	-22456	,	6.0199203	,	12
27,27	,	31934	,	-23749	,	-22462	,	11.158827	,	17
27,27	,	31950	,	-23750	,	-22460	,	15.3772135	,	22
27,27	,	31966	,	-23739	,	-22448	,	18.274132	,	26
27,27	,	31998	,	-23739	,	-22461	,	19.775064	,	28
27,27	,	32014	,	-23743	,	-22440	,	20.039234	,	29
27,27	,	32045	,	-23732	,	-22458	,	19.268833	,	28
27,27	,	32062	,	-23733	,	-22454	,	17.754852	,	26
27,27	,	32078	,	-23739	,	-22456	,	15.810288	,	22
27,27	,	32109	,	-23731	,	-22446	,	13.6289015	,	17
27,27	,	32125	,	-23742	,	-22444	,	11.340596	,	12
27,27	,	32142	,	-23742	,	-22456	,	9.01213	,	7
27,27	,	32173	,	-23737	,	-22449	,	6.675584	,	3
27,27	,	32190	,	-23730	,	-22450	,	4.5027275	,	1
27,27	,	32206	,	-23730	,	-22453	,	2.7843719	,	0
27,27	,	32238	,	-23712	,	-22466	,	1.7981007	,	0
27,27	,	32254	,	-23732	,	-22424	,	1.6836629	,	0
27,27	,	32285	,	-23742	,	-22447	,	2.157947	,	0
27,27	,	32301	,	-23733	,	-22446	,	2.6029618	,	0
27,27	,	32317	,	-23739	,	-22450	,	2.6212652	,	0
27,27	,	32349	,	-23742	,	-22450	,	2.155033	,	0
27,27	,	32365	,	-23743	,	-22452	,	1.2493163	,	0
27,27	,	32381	,	-23743	,	-22457	,	0.01962483	,	0
27,27	,	32413	,	-23754	,	-22467	,	-1.3799393	,	0
27,27	,	32430	,	-23768	,	-22462	,	-2.9367156	,	0
27,27	,	32462	,	-23744	,	-22465	,	-4.675388	,	0
27,27	,	32478	,	-23752	,	-22466	,	-6.3090687	,	0
27,27	,	32494	,	-23760	,	-22456	,	-7.446347	,	0
27,27	,	32525	,	-23765	,	-22478	,	-8.058863	,	0
27,27	,	32541	,	-23763	,	-22481	,	-8.362019	,	0
27,27	,	32557	,	-23764	,	-22467	,	-8.477313	,	0
27,27	,	32590	,	-23774	,	-22464	,	-8.439017	,	0
27,27	,	32605	,	-23788	,	-22469	,	-8.411614	,	0
27,27	,	32621	,	-23793	,	-22475	,	-8.7142105	,	0
27,27	,	32653	,	-23785	,	-22487	,	-9.510877	,	0
27,27	,	32669	,	-23789	,	-22477	,	-10.583143	,	0
27,27	,	32701	,	-23796	,	-22486	,	-11.566791	,	0
27,27	,	32717	,	-23800	,	-22485	,	-12.2884445	,	0
27,27	,	32733	,	-23807	,	-22494	,	-12.777404	,	0
27,27	,	32765	,	-23790	,	-22488	,	-13.0368395	,	0
27,27	,	32781	,	-23787	,	-22484	,	-12.837538	,	0
27,27	,	32797	,	-23770	,	-22485	,	-11.790195	,	0
27,27	,	32829	,	-23763	,	-22470	,	-9.570719	,	1
27,27	,	32845	,	-23751	,	-22471	,	-6.065294	,	3
27,28	,	32877	,	-23776	,	-22471	,	-1.5813546	,	6
27,28	,	32893	,	-23762	,	-22465	,	3.081108	,	10
27,28	,	32909	,	-23748	,	-22468	,	7.171815	,	14
27,28	,	32941	,	-23725	,	-22472	,	10.581995	,	18
27,28	,	32957	,	-23753	,	-22444	,	13.529453	,	21
27,28	,	32973	,	-23756	,	-22449	,	15.811365	,	23
27,28	,	33005	,	-23737	,	-22454	,	16.952469	,	25
27,28	,	33021	,	-23735	,	-22457	,	16.93871	,	25
27,28	,	33037	,	-23742	,	-22454	,	16.148037	,	23
27,28	,	33069	,	-23732	,	-22452	,	14.866491	,	20
27,28	,	33085	,	-23735	,	-22449	,	13.293379	,	16
27,28	,	33117	,	-23737	,	-22453	,	11.605251	,	12
27,28	,	33133	,	-23727	,	-22455	,	9.917863	,	8
27,28	,	33149	,	-23734	,	-22447	,	8.35361	,	5
27,28	,	33181	,	-23725	,	-22464	,	7.0167613	,	3
27,28	,	33197	,	-23729	,	-22448	,	5.9517694	,	1
27,28	,	33213	,	-23755	,	-22454	,	5.0219316	,	0
27,28	,	33245	,	-23739	,	-22452	,	3.86071	,	0
27,28	,	33261	,	-23738	,	-22455	,	2.3200762	,	0
27,28	,	33293	,	-23744	,	-22455	,	0.6520226	,	0
27,28	,	33309	,	-23746	,	-22454	,	-0.9001951	,	0
27,28	,	33325	,	-23740	,	-22463	,	-2.2367496	,	0
27,28	,	33357	,	-23741	,	-22462	,	-3.2419653	,	0
27,28	,	33373	,	-23745	,	-22449	,	-3.8165805	,	0
27,28	,	33389	,	-23749	,	-22468	,	-4.0078697	,	0
27,28	,	33421	,	-23759	,	-22466	,	-4.0287776	,	0
27,28	,	33437	,	-23769	,	-22466	,	-4.209434	,	0
27,28	,	33453	,	-23765	,	-22470	,	-4.8353877	,	0
27,28	,	33485	,	-23782	,	-22473	,	-5.9847317	,	0
27,28	,	33501	,	-23782	,	-22473	,	-7.603647	,	0
27,28	,	33533	,	-23783	,	-22476	,	-9.539395	,	0
27,28	,	33549	,	-23770	,	-22474	,	-11.408596	,	0
27,28	,	33565	,	-23770	,	-22475	,	-12.657876	,	0
27,28	,	33597	,	-23786	,	-22478	,	-12.949726	,	0
27,28	,	33613	,	-23792	,	-22481	,	-12.472929	,	0
27,28	,	33629	,	-23802	,	-22495	,	-11.754021	,	0
27,28	,	33661	,	-23807	,	-22472	,	-11.277827	,	0
27,28	,	33677	,	-23805	,	-22490	,	-11.269349	,	0
27,28	,	33709	,	-23797	,	-22492	,	-11.582993	,	0
27,28	,	33725	,	-23797	,	-22492	,	-11.7993145	,	0
27,28	,	33741	,	-23784	,	-22485	,	-11.477904	,	0
27,28	,	33773	,	-23778	,	-22483	,	-10.28283	,	0
27,28	,	33789	,	-23780	,	-22468	,	-8.078724	,	1
27,28	,	33805	,	-23757	,	-22467	,	-4.9713764	,	3
27,28	,	33837	,	-23756	,	-22468	,	-1.1244726	,	6
27,29	,	33853	,	-23756	,	-22465	,	3.2245831	,	9
27,29	,	33869	,	-23745	,	-22479	,	7.6382627	,	13
27,29	,	33901	,	-23748	,	-22444	,	11.655504	,	17
27,29	,	33917	,	-23746	,	-22462	,	14.907376	,	21
27,29	,	33949	,	-23761	,	-22456	,	17.030159	,	24
27,29	,	33965	,	-23747	,	-22466	,	17.733416	,	26
27,29	,	33981	,	-23751	,	-22459	,	17.043211	,	25
27,29	,	34013	,	-23735	,	-22449	,	15.368181	,	23
27,29	,	34029	,	-23741	,	-22457	,	13.288709	,	20
27,29	,	34045	,	-23738	,	-22458	,	11.261686	,	17
27,29	,	34077	,	-23725	,	-22448	,	9.550452	,	13
27,29	,	34093	,	-23749	,	-22445	,	8.266048	,	9
27,29	,	34125	,	-23734	,	-22449	,	7.266167	,	5
27,29	,	34141	,	-23747	,	-22461	,	6.2943926	,	2
27,29	,	34157	,	-23747	,	-22457	,	5.180608	,	0
27,29	,	34189	,	-23737	,	-22446	,	3.88066	,	0
27,29	,	34205	,	-23735	,	-22452	,	2.585017	,	0
27,29	,	34221	,	-23746	,	-22455	,	1.545434	,	0
27,29	,	34253	,	-23757	,	-22453	,	0.71117043	,	0
27,29	,	34269	,	-23747	,	-22463	,	-0.17513227	,	0
27,29	,	34300	,	-23763	,	-22464	,	-1.2395381	,	0
27,29	,	34316	,	-23766	,	-22459	,	-2.5164409	,	0
27,29	,	34333	,	-23758	,	-22479	,	-4.005733	,	0
27,29	,	34365	,	-23752	,	-22450	,	-5.460298	,	0
27,29	,	34381	,	-23767	,	-22468	,	-6.5203958	,	0
27,29	,	34397	,	-23783	,	-22474	,	-7.18186	,	0
27,29	,	34428	,	-23774	,	-22476	,	-7.784236	,	0
27,29	,	34444	,	-23775	,	-22468	,	-8.493791	,	0
27,29	,	34460	,	-23776	,	-22480	,	-9.14231	,	0
27,29	,	34493	,	-23780	,	-22477	,	-9.527275	,	0
27,29	,	34509	,	-23777	,	-22482	,	-9.567408	,	0
27,29	,	34540	,	-23795	,	-22480	,	-9.31916	,	0
27,29	,	34556	,	-23777	,	-22480	,	-8.941169	,	0
27,29	,	34573	,	-23785	,	-22497	,	-8.478867	,	0
27,29	,	34604	,	-23811	,	-22476	,	-7.9828906	,	0
27,29	,	34620	,	-23811	,	-22493	,	-7.820169	,	0
27,29	,	34636	,	-23819	,	-22492	,	-8.375965	,	0
27,29	,	34668	,	-23813	,	-22488	,	-9.6328	,	0
27,29	,	34684	,	-23796	,	-22495	,	-11.116703	,	0
27,29	,	34716	,	-23788	,	-22490	,	-12.036407	,	0
27,29	,	34733	,	-23786	,	-22486	,	-11.69688	,	0
27,29	,	34749	,	-23773	,	-22482	,	-9.849455	,	0
27,29	,	34780	,	-23765	,	-22482	,	-6.600206	,	1
27,29	,	34796	,	-23765	,	-22476	,	-2.2655902	,	4
27,29	,	34812	,	-23756	,	-22472	,	2.636798	,	8
27,29	,	34844	,	-23758	,	-22474	,	7.504265	,	12
27,30	,	34860	,	-23764	,	-22469	,	11.737099	,	16
27,30	,	34876	,	-23753	,	-22470	,	14.817767	,	20
27,30	,	34908	,	-23778	,	-22466	,	16.421665	,	23
27,30	,	34924	,	-23762	,	-22475	,	16.392542	,	24
27,30	,	34956	,	-23763	,	-22475	,	14.876605	,	24
27,30	,	34972	,	-23774	,	-22478	,	12.338053	,	23
27,30	,	34988	,	-23758	,	-22468	,	9.271509	,	20
27,30	,	35020	,	-23745	,	-22470	,	6.258781	,	16
27,30	,	35036	,	-23756	,	-22483	,	3.9431133	,	12
27,30	,	35052	,	-23762	,	-22469	,	2.5456243	,	8
27,30	,	35084	,	-23761	,	-22469	,	1.791012	,	4
27,30	,	35100	,	-23750	,	-22475	,	1.3866816	,	1
27,30	,	35132	,	-23755	,	-22473	,	1.2665542	,	0
27,30	,	35148	,	-23753	,	-22483	,	1.4056373	,	0
27,30	,	35164	,	-23767	,	-22475	,	1.6352315	,	0
27,30	,	35196	,	-23768	,	-22484	,	1.6509002	,	0
27,30	,	35212	,	-23781	,	-22477	,	1.1380298	,	0
27,30	,	35228	,	-23762	,	-22486	,	-0.0023813844	,	0
27,30	,	35260	,	-23780	,	-22483	,	-1.5416772	,	0
27,30	,	35276	,	-23779	,	-22501	,	-3.190106	,	0
27,30	,	35293	,	-23785	,	-22475	,	-4.8195705	,	0
27,30	,	35324	,	-23781	,	-22484	,	-6.33578	,	0
27,30	,	35340	,	-23780	,	-22494	,	-7.561771	,	0
27,30	,	35372	,	-23809	,	-22492	,	-8.43098	,	0
27,30	,	35388	,	-23796	,	-22489	,	-9.171298	,	0
27,30	,	35404	,	-23785	,	-22492	,	-9.898341	,	0
27,30	,	35436	,	-23790	,	-22493	,	-10.303718	,	0
27,30	,	35452	,	-23803	,	-22492	,	-10.137467	,	0
27,30	,	35468	,	-23808	,	-22501	,	-9.591658	,	0
27,30	,	35500	,	-23807	,	-22504	,	-9.03607	,	0
27,30	,	35516	,	-23801	,	-22517	,	-8.623949	,	0
27,30	,	35548	,	-23798	,	-22488	,	-8.211868	,	0
27,30	,	35564	,	-23786	,	-22498	,	-7.514211	,	0
27,30	,	35580	,	-23777	,	-22493	,	-6.222097	,	0
27,30	,	35612	,	-23770	,	-22483	,	-4.0990973	,	1
27,30	,	35628	,	-23762	,	-22487	,	-1.1023927	,	3
27,30	,	35644	,	-23764	,	-22491	,	2.554753	,	5
27,30	,	35676	,	-23757	,	-22484	,	6.438385	,	8
27,30	,	35692	,	-23759	,	-22487	,	10.047091	,	11
27,30	,	35708	,	-23766	,	-22475	,	12.914869	,	14
27,30	,	35740	,	-23757	,	-22491	,	14.672032	,	16
27,30	,	35756	,	-23779	,	-22486	,	15.120518	,	17
27,30	,	35788	,	-23766	,	-22494	,	14.205453	,	17
27,30	,	35804	,	-23776	,	-22497	,	12.076725	,	16
27,30	,	35820	,	-23775	,	-22491	,	9.108219	,	14
27,31	,	35852	,	-23783	,	-22489	,	5.7013583	,	12
27,31	,	35868	,	-23764	,	-22495	,	2.26728	,	9
27,31	,	35884	,	-23763	,	-22482	,	-0.64677954	,	6
27,31	,	35916	,	-23770	,	-22484	,	-2.563023	,	3
27,31	,	35932	,	-23779	,	-22485	,	-3.4500868	,	1
27,31	,	35964	,	-23769	,	-22489	,	-3.6401334	,	0
27,31	,	35980	,	-23772	,	-22504	,	-3.4169948	,	0
27,31	,	35996	,	-23764	,	-22475	,	-2.877425	,	0
27,31	,	36028	,	-23774	,	-22485	,	-2.082258	,	0
27,31	,	36044	,	-23777	,	-22491	,	-1.2174578	,	0
27,31	,	36060	,	-23794	,	-22484	,	-0.639822	,	0
27,31	,	36092	,	-23774	,	-22489	,	-0.65774196	,	0
27,31	,	36108	,	-23794	,	-22494	,	-1.2607373	,	0
27,31	,	36124	,	-23790	,	-22504	,	-2.2728555	,	0
27,31	,	36156	,	-23798	,	-22498	,	-3.5751135	,	0
27,31	,	36172	,	-23792	,	-22496	,	-5.019923	,	0
27,31	,	36204	,	-23802	,	-22495	,	-6.4003778	,	0
27,31	,	36220	,	-23804	,	-22514	,	-7.583622	,	0
27,31	,	36236	,	-23809	,	-22476	,	-8.559714	,	0
27,31	,	36268	,	-23805	,	-22502	,	-9.329035	,	0
27,31	,	36284	,	-23811	,	-22500	,	-9.828388	,	0
27,31	,	36300	,	-23810	,	-22500	,	-10.005352	,	0
27,31	,	36332	,	-23804	,	-22500	,	-9.82905	,	0
27,31	,	36348	,	-23786	,	-22497	,	-9.140478	,	0
27,31	,	36379	,	-23772	,	-22487	,	-7.582849	,	0
27,31	,	36395	,	-23789	,	-22485	,	-4.933776	,	1
27,31	,	36412	,	-23759	,	-22482	,	-1.4087591	,	3
27,31	,	36443	,	-23757	,	-22479	,	2.6614866	,	6
27,31	,	36459	,	-23752	,	-22482	,	7.0493684	,	10
27,31	,	36476	,	-23764	,	-22480	,	11.334126	,	14
27,31	,	36508	,	-23762	,	-22471	,	14.84538	,	18
27,31	,	36524	,	-23759	,	-22470	,	17.027246	,	21
27,31	,	36540	,	-23748	,	-22485	,	17.775755	,	23
27,31	,	36572	,	-23748	,	-22476	,	17.410158	,	23
27,31	,	36588	,	-23755	,	-22471	,	16.313417	,	22
27,31	,	36619	,	-23752	,	-22474	,	14.681404	,	20
27,31	,	36635	,	-23766	,	-22470	,	12.573019	,	17
27,31	,	36652	,	-23748	,	-22471	,	10.072504	,	13
27,31	,	36684	,	-23756	,	-22479	,	7.4371934	,	9
27,31	,	36700	,	-23760	,	-22462	,	4.9734287	,	5
27,31	,	36716	,	-23748	,	-22467	,	2.8550792	,	2
27,31	,	36748	,	-23745	,	-22470	,	1.2673206	,	0
27,31	,	36763	,	-23753	,	-22472	,	0.38509393	,	0
27,31	,	36796	,	-23770	,	-22469	,	0.044011474	,	0
27,31	,	36812	,	-23752	,	-22473	,	-0.18836254	,	0
27,31	,	36828	,	-23758	,	-22471	,	-0.5210968	,	0
27,32	,	36859	,	-23748	,	-22469	,	-0.8261694	,	0
27,32	,	36875	,	-23767	,	-22471	,	-0.9845193	,	0
27,32	,	36891	,	-23769	,	-22469	,	-1.1421124	,	0
27,32	,	36923	,	-23762	,	-22486	,	-1.5323524	,	0
27,32	,	36940	,	-23768	,	-22458	,	-2.1514902	,	0
27,32	,	36972	,	-23767	,	-22482	,	-2.837495	,	0
27,32	,	36988	,	-23786	,	-22479	,	-3.5528703	,	0
27,32	,	37004	,	-23777	,	-22479	,	-4.4188795	,	0
27,32	,	37035	,	-23785	,	-22475	,	-5.489559	,	0
27,32	,	37051	,	-23773	,	-22482	,	-6.5983453	,	0
27,32	,	37067	,	-23775	,	-22470	,	-7.4319363	,	0
27,32	,	37099	,	-23766	,	-22475	,	-7.6755266	,	0
27,32	,	37115	,	-23762	,	-22475	,	-7.1161556	,	0
27,32	,	37131	,	-23745	,	-22455	,	-5.6242414	,	0
27,32	,	37164	,	-23724	,	-22460	,	-3.0389388	,	1
27,32	,	37180	,	-23734	,	-22448	,	0.7194052	,	3
27,32	,	37211	,	-23733	,	-22450	,	5.2674932	,	6
27,32	,	37227	,	-23726	,	-22453	,	9.820489	,	10
27,32	,	37243	,	-23697	,	-22440	,	13.837052	,	14
27,32	,	37275	,	-23718	,	-22441	,	17.23051	,	18
27,32	,	37291	,	-23717	,	-22441	,	19.834007	,	21
27,32	,	37307	,	-23714	,	-22443	,	21.241924	,	23
27,32	,	37340	,	-23707	,	-22441	,	21.291851	,	24
27,32	,	37355	,	-23711	,	-22440	,	20.20264	,	23
27,32	,	37387	,	-23712	,	-22451	,	18.280544	,	21
27,32	,	37403	,	-23697	,	-22429	,	15.840305	,	18
27,32	,	37419	,	-23697	,	-22428	,	13.324616	,	14
27,32	,	37451	,	-23685	,	-22430	,	11.212284	,	10
27,32	,	37467	,	-23703	,	-22436	,	9.749117	,	6
27,32	,	37483	,	-23703	,	-22430	,	8.769449	,	3
27,32	,	37515	,	-23697	,	-22437	,	7.9032016	,	1
27,32	,	37531	,	-23703	,	-22431	,	6.9456444	,	0
27,32	,	37547	,	-23710	,	-22433	,	5.815444	,	0
27,32	,	37579	,	-23698	,	-22439	,	4.45867	,	0
27,32	,	37595	,	-23688	,	-22434	,	3.061653	,	0
27,32	,	37627	,	-23698	,	-22454	,	1.995389	,	0
27,32	,	37643	,	-23701	,	-22416	,	1.3958328	,	0
27,32	,	37659	,	-23706	,	-22440	,	1.0557342	,	0
27,32	,	37691	,	-23713	,	-22439	,	0.6577075	,	0
27,32	,	37707	,	-23713	,	-22435	,	-0.04521525	,	0
27,32	,	37723	,	-23711	,	-22440	,	-1.0965362	,	0
27,32	,	37756	,	-23709	,	-22454	,	-2.2947955	,	0
27,32	,	37771	,	-23707	,	-22457	,	-3.3352373	,	0
27,32	,	37803	,	-23737	,	-22452	,	-4.1220465	,	0
27,32	,	37819	,	-23734	,	-22450	,	-4.9593587	,	0
27,32	,	37835	,	-23738	,	-22458	,	-6.1964817	,	0
27,33	,	37867	,	-23730	,	-22451	,	-7.7831397	,	0
27,33	,	37883	,	-23717	,	-22437	,	-9.25711	,	0
27,33	,	37899	,	-23698	,	-22429	,	-9.912828	,	0
27,33	,	37931	,	-23677	,	-22417	,	-9.002911	,	0
27,33	,	37947	,	-23672	,	-22417	,	-6.0505605	,	0
27,33	,	37979	,	-23662	,	-22402	,	-1.1501312	,	2
27,33	,	37995	,	-23648	,	-22408	,	5.103231	,	6
27,33	,	38011	,	-23643	,	-22399	,	11.953693	,	12
27,33	,	38043	,	-23653	,	-22397	,	18.559584	,	18
27,33	,	38059	,	-23636	,	-22393	,	24.039194	,	24
27,33	,	38075	,	-23634	,	-22404	,	27.84045	,	29
27,33	,	38107	,	-23618	,	-22390	,	29.93401	,	32
27,33	,	38123	,	-23651	,	-22374	,	30.461905	,	34
27,33	,	38155	,	-23635	,	-22396	,	29.371813	,	34
27,33	,	38171	,	-23630	,	-22397	,	26.720024	,	32
27,33	,	38187	,	-23608	,	-22392	,	23.124079	,	28
27,33	,	38219	,	-23622	,	-22391	,	19.47536	,	22
27,33	,	38235	,	-23626	,	-22390	,	16.267864	,	16
27,33	,	38251	,	-23610	,	-22383	,	13.528603	,	10
27,33	,	38283	,	-23602	,	-22389	,	11.336945	,	5
27,33	,	38299	,	-23608	,	-22403	,	9.899961	,	2
27,33	,	38315	,	-23610	,	-22380	,	9.162138	,	0
27,33	,	38347	,	-23614	,	-22381	,	8.765926	,	0
27,33	,	38363	,	-23617	,	-22382	,	8.310984	,	0
27,33	,	38395	,	-23616	,	-22398	,	7.5328016	,	0
27,33	,	38411	,	-23619	,	-22393	,	6.3617277	,	0
27,33	,	38427	,	-23626	,	-22398	,	4.837244	,	0
27,33	,	38459	,	-23628	,	-22405	,	2.9899542	,	0
27,33	,	38475	,	-23637	,	-22397	,	0.84785724	,	0
27,33	,	38491	,	-23643	,	-22403	,	-1.5465105	,	0
27,33	,	38523	,	-23638	,	-22407	,	-4.084084	,	0
27,33	,	38539	,	-23636	,	-22420	,	-6.472455	,	0
27,33	,	38571	,	-23637	,	-22387	,	-8.315416	,	0
27,33	,	38587	,	-23651	,	-22407	,	-9.417674	,	0
27,33	,	38603	,	-23659	,	-22404	,	-9.974762	,	0
27,33	,	38635	,	-23662	,	-22406	,	-10.384018	,	0
27,33	,	38651	,	-23656	,	-22406	,	-10.857002	,	0
27,33	,	38667	,	-23669	,	-22399	,	-11.330332	,	0
27,33	,	38699	,	-23675	,	-22413	,	-11.746676	,	0
27,33	,	38715	,	-23667	,	-22409	,	-12.130036	,	0
27,33	,	38731	,	-23663	,	-22407	,	-12.345024	,	0
27,33	,	38763	,	-23629	,	-22406	,	-11.948912	,	0
27,33	,	38779	,	-23629	,	-22397	,	-10.301743	,	0
27,33	,	38811	,	-23629	,	-22386	,	-7.0678573	,	1
27,33	,	38827	,	-23589	,	-22376	,	-2.4250803	,	4
27,33	,	38843	,	-23580	,	-22373	,	3.4223046	,	8
27,34	,	38875	,	-23577	,	-22364	,	10.26286	,	13
27,34	,	38891	,	-23567	,	-22363	,	17.483559	,	19
27,34	,	38907	,	-23568	,	-22363	,	24.21553	,	26
27,34	,	38939	,	-23566	,	-22360	,	29.650038	,	32
27,34	,	38955	,	-23571	,	-22360	,	33.154034	,	37
27,34	,	38987	,	-23561	,	-22359	,	34.40259	,	40
27,34	,	39003	,	-23562	,	-22363	,	33.50684	,	40
27,34	,	39019	,	-23558	,	-22350	,	30.919857	,	37
27,34	,	39051	,	-23546	,	-22355	,	27.266989	,	33
27,34	,	39067	,	-23538	,	-22352	,	23.295765	,	28
27,34	,	39083	,	-23540	,	-22352	,	19.688229	,	22
27,34	,	39115	,	-23551	,	-22352	,	16.725533	,	15
27,34	,	39131	,	-23542	,	-22343	,	14.269117	,	9
27,34	,	39147	,	-23526	,	-22349	,	12.199215	,	4
27,34	,	39178	,	-23536	,	-22354	,	10.639341	,	1
27,34	,	39194	,	-23541	,	-22353	,	9.595709	,	0
27,34	,	39227	,	-23552	,	-22360	,	8.717657	,	0
27,34	,	39243	,	-23548	,	-22371	,	7.562999	,	0
27,34	,	39259	,	-23561	,	-22336	,	5.889079	,	0
27,34	,	39290	,	-23555	,	-22361	,	3.6822438	,	0
27,34	,	39306	,	-23560	,	-22369	,	1.1256905	,	0
27,34	,	39323	,	-23564	,	-22368	,	-1.487421	,	0
27,34	,	39355	,	-23575	,	-22365	,	-3.967414	,	0
27,34	,	39371	,	-23575	,	-22374	,	-6.2838097	,	0
27,34	,	39402	,	-23573	,	-22374	,	-8.373193	,	0
27,34	,	39419	,	-23583	,	-22372	,	-10.0725765	,	0
27,34	,	39434	,	-23586	,	-22369	,	-11.306335	,	0
27,34	,	39466	,	-23582	,	-22375	,	-12.108977	,	0
27,34	,	39483	,	-23578	,	-22382	,	-12.429548	,	0
27,34	,	39499	,	-23581	,	-22367	,	-12.137774	,	0
27,34	,	39531	,	-23594	,	-22376	,	-11.270381	,	0
27,34	,	39547	,	-23595	,	-22378	,	-10.143054	,	0
27,34	,	39563	,	-23607	,	-22380	,	-9.1748085	,	1
27,34	,	39594	,	-23598	,	-22386	,	-8.641396	,	1
27,34	,	39610	,	-23605	,	-22391	,	-8.5376625	,	1
27,34	,	39642	,	-23624	,	-22397	,	-8.764711	,	1
27,34	,	39658	,	-23632	,	-22393	,	-9.436293	,	1
27,34	,	39675	,	-23611	,	-22395	,	-10.61845	,	1
27,34	,	39706	,	-23605	,	-22389	,	-11.857586	,	1
27,34	,	39722	,	-23598	,	-22374	,	-12.388023	,	1
27,34	,	39739	,	-23585	,	-22376	,	-11.638147	,	1
27,34	,	39771	,	-23559	,	-22366	,	-9.27928	,	0
27,34	,	39787	,	-23549	,	-22366	,	-5.112776	,	2
27,34	,	39818	,	-23534	,	-22363	,	0.7758255	,	6
27,34	,	39834	,	-23542	,	-22360	,	7.8218775	,	11
27,35	,	39850	,	-23537	,	-22361	,	15.022334	,	18
27,35	,	39882	,	-23528	,	-22357	,	21.325027	,	25
27,35	,	39898	,	-23523	,	-22366	,	26.0777	,	31
27,35	,	39914	,	-23507	,	-22348	,	29.126314	,	35
27,35	,	39946	,	-23513	,	-22367	,	30.632454	,	38
27,35	,	39962	,	-23511	,	-22338	,	30.78271	,	39
27,35	,	39994	,	-23508	,	-22355	,	29.68888	,	37
27,35	,	40010	,	-23506	,	-22352	,	27.54458	,	33
27,35	,	40027	,	-23498	,	-22349	,	24.69225	,	28
27,35	,	40058	,	-23513	,	-22353	,	21.479933	,	21
27,35	,	40074	,	-23489	,	-22351	,	18.162956	,	14
27,35	,	40090	,	-23497	,	-22351	,	15.034095	,	8
27,35	,	40122	,	-23496	,	-22356	,	12.362451	,	4
27,35	,	40138	,	-23494	,	-22352	,	10.193878	,	1
27,35	,	40154	,	-23501	,	-22351	,	8.426504	,	0
27,35	,	40187	,	-23499	,	-22361	,	6.9121842	,	0
27,35	,	40203	,	-23508	,	-22346	,	5.4835863	,	0
27,35	,	40234	,	-23519	,	-22349	,	3.9385893	,	0
27,35	,	40250	,	-23539	,	-22357	,	1.9567254	,	0
27,35	,	40266	,	-23528	,	-22366	,	-0.738847	,	0
27,35	,	40298	,	-23532	,	-22363	,	-4.0089307	,	0
27,35	,	40314	,	-23531	,	-22362	,	-7.3225493	,	0
27,35	,	40330	,	-23532	,	-22367	,	-10.134482	,	0
27,35	,	40362	,	-23538	,	-22367	,	-12.1111555	,	0
27,35	,	40379	,	-23561	,	-22373	,	-13.286655	,	0
27,35	,	40410	,	-23547	,	-22382	,	-14.004645	,	0
27,35	,	40426	,	-23554	,	-22368	,	-14.481522	,	0
27,35	,	40442	,	-23553	,	-22380	,	-14.65855	,	0
27,35	,	40474	,	-23576	,	-22395	,	-14.545937	,	0
27,35	,	40490	,	-23586	,	-22394	,	-14.462528	,	0
27,35	,	40506	,	-23575	,	-22391	,	-14.750149	,	0
27,35	,	40538	,	-23579	,	-22395	,	-15.3249855	,	0
27,35	,	40554	,	-23585	,	-22402	,	-15.8216915	,	0
27,35	,	40570	,	-23599	,	-22404	,	-16.073576	,	0
27,35	,	40602	,	-23606	,	-22408	,	-16.227823	,	0
27,35	,	40618	,	-23585	,	-22407	,	-16.392895	,	0
27,35	,	40650	,	-23595	,	-22417	,	-16.321259	,	0
27,35	,	40666	,	-23577	,	-22384	,	-15.608068	,	0
27,35	,	40682	,	-23555	,	-22386	,	-13.861746	,	0
27,35	,	40714	,	-23545	,	-22376	,	-10.670347	,	1
27,35	,	40730	,	-23536	,	-22379	,	-5.8740377	,	4
27,35	,	40746	,	-23525	,	-22385	,	0.22177076	,	8
27,35	,	40778	,	-23523	,	-22380	,	6.9889426	,	14
27,35	,	40794	,	-23521	,	-22383	,	13.640587	,	20
27,35	,	40826	,	-23524	,	-22385	,	19.351957	,	26
27,35	,	40842	,	-23513	,	-22381	,	23.479536	,	31
27,36	,	40858	,	-23512	,	-22378	,	25.783413	,	35
27,36	,	40890	,	-23509	,	-22385	,	26.387222	,	37
27,36	,	40906	,	-23515	,	-22369	,	25.536865	,	36
27,36	,	40922	,	-23507	,	-22383	,	23.498955	,	33
27,36	,	40954	,	-23512	,	-22374	,	20.617981	,	29
27,36	,	40970	,	-23517	,	-22380	,	17.24467	,	23
27,36	,	40986	,	-23503	,	-22379	,	13.679869	,	17
27,36	,	41018	,	-23507	,	-22374	,	10.291132	,	11
27,36	,	41034	,	-23499	,	-22372	,	7.4525337	,	6
27,36	,	41066	,	-23491	,	-22371	,	5.4248853	,	2
27,36	,	41082	,	-23490	,	-22378	,	4.3657403	,	0
27,36	,	41098	,	-23507	,	-22382	,	4.166505	,	0
27,36	,	41130	,	-23519	,	-22377	,	4.2760396	,	0
27,36	,	41146	,	-23523	,	-22382	,	3.952144	,	0
27,36	,	41162	,	-23512	,	-22392	,	2.8088565	,	0
27,36	,	41194	,	-23516	,	-22387	,	1.0467312	,	0
27,36	,	41210	,	-23527	,	-22397	,	-0.92863655	,	0
27,36	,	41242	,	-23529	,	-22400	,	-2.922816	,	0
27,36	,	41258	,	-23521	,	-22402	,	-4.8320866	,	0
27,36	,	41274	,	-23542	,	-22405	,	-6.4992247	,	0
27,36	,	41306	,	-23539	,	-22406	,	-7.9114833	,	0
27,36	,	41322	,	-23550	,	-22416	,	-9.198055	,	0
27,36	,	41338	,	-23561	,	-22427	,	-10.489401	,	0
27,36	,	41370	,	-23555	,	-22406	,	-11.872184	,	0
27,36	,	41386	,	-23560	,	-22425	,	-13.246765	,	0
27,36	,	41402	,	-23562	,	-22425	,	-14.358529	,	0
27,36	,	41434	,	-23580	,	-22435	,	-15.08865	,	0
27,36	,	41450	,	-23577	,	-22427	,	-15.560411	,	0
27,36	,	41482	,	-23587	,	-22433	,	-15.936574	,	0
27,36	,	41498	,	-23590	,	-22437	,	-16.282393	,	0
27,36	,	41514	,	-23591	,	-22438	,	-16.59165	,	0
27,36	,	41546	,	-23597	,	-22438	,	-16.794575	,	0
27,36	,	41562	,	-23580	,	-22443	,	-16.726143	,	0
27,36	,	41578	,	-23579	,	-22461	,	-16.07447	,	0
27,36	,	41610	,	-23574	,	-22432	,	-14.532565	,	0
27,36	,	41626	,	-23529	,	-22425	,	-11.839876	,	1
27,36	,	41658	,	-23533	,	-22424	,	-7.62708	,	3
27,36	,	41674	,	-23519	,	-22427	,	-1.7879329	,	7
27,36	,	41690	,	-23526	,	-22424	,	5.1178613	,	12
27,36	,	41722	,	-23511	,	-22424	,	12.134863	,	18
27,36	,	41738	,	-23507	,	-22417	,	18.405052	,	25
27,36	,	41754	,	-23519	,	-22425	,	23.316824	,	31
27,36	,	41786	,	-23525	,	-22421	,	26.327406	,	35
27,36	,	41802	,	-23503	,	-22426	,	27.13491	,	38
27,36	,	41818	,	-23502	,	-22429	,	26.063572	,	37
27,37	,	41850	,	-23524	,	-22429	,	23.72451	,	35
27,37	,	41866	,	-23515	,	-22437	,	20.445843	,	31
27,37	,	41898	,	-23507	,	-22431	,	16.489326	,	26
27,37	,	41914	,	-23498	,	-22430	,	12.435338	,	20
27,37	,	41930	,	-23505	,	-22438	,	8.936988	,	13
27,37	,	41961	,	-23507	,	-22442	,	6.28544	,	7
27,37	,	41978	,	-23500	,	-22437	,	4.4179125	,	3
27,37	,	41994	,	-23508	,	-22441	,	3.19109	,	0
27,37	,	42026	,	-23504	,	-22439	,	2.4452217	,	0
27,37	,	42042	,	-23512	,	-22463	,	1.9708707	,	0
27,37	,	42073	,	-23511	,	-22427	,	1.5530561	,	0
27,37	,	42090	,	-23527	,	-22454	,	0.9724916	,	0
27,37	,	42106	,	-23518	,	-22459	,	0.039874375	,	0
27,37	,	42137	,	-23528	,	-22465	,	-1.2633667	,	0
27,37	,	42153	,	-23531	,	-22458	,	-2.8110187	,	0
27,37	,	42170	,	-23522	,	-22466	,	-4.430722	,	0
27,37	,	42202	,	-23542	,	-22469	,	-5.930029	,	0
27,37	,	42218	,	-23540	,	-22470	,	-7.2547374	,	0
27,37	,	42234	,	-23532	,	-22468	,	-8.412289	,	0
27,37	,	42265	,	-23534	,	-22468	,	-9.221402	,	0
27,37	,	42281	,	-23538	,	-22484	,	-9.476526	,	0
27,37	,	42314	,	-23551	,	-22464	,	-9.243037	,	0
27,37	,	42330	,	-23539	,	-22482	,	-8.781467	,	0
27,37	,	42346	,	-23547	,	-22484	,	-8.248964	,	0
27,37	,	42377	,	-23552	,	-22485	,	-7.690638	,	0
27,37	,	42393	,	-23546	,	-22481	,	-7.1764855	,	0
27,37	,	42409	,	-23549	,	-22481	,	-6.7082634	,	0
27,37	,	42442	,	-23540	,	-22470	,	-6.16741	,	0
27,37	,	42458	,	-23531	,	-22468	,	-5.3551435	,	0
27,37	,	42489	,	-23512	,	-22477	,	-3.9669497	,	0
27,37	,	42505	,	-23488	,	-22471	,	-1.5869572	,	1
27,37	,	42521	,	-23499	,	-22466	,	2.0578244	,	3
27,37	,	42554	,	-23482	,	-22458	,	6.724919	,	6
27,37	,	42570	,	-23489	,	-22460	,	11.748505	,	10
27,37	,	42586	,	-23476	,	-22466	,	16.418139	,	15
27,37	,	42618	,	-23482	,	-22463	,	20.177757	,	19
27,37	,	42633	,	-23501	,	-22463	,	22.553278	,	22
27,37	,	42665	,	-23503	,	-22467	,	23.043629	,	24
27,37	,	42681	,	-23489	,	-22473	,	21.463638	,	24
27,37	,	42697	,	-23477	,	-22466	,	18.350004	,	23
27,37	,	42729	,	-23481	,	-22462	,	14.682139	,	21
27,37	,	42745	,	-23473	,	-22480	,	11.277859	,	18
27,37	,	42761	,	-23475	,	-22453	,	8.578306	,	14
27,37	,	42793	,	-23482	,	-22464	,	6.6840606	,	9
27,37	,	42809	,	-23469	,	-22460	,	5.4552894	,	5
27,37	,	42825	,	-23478	,	-22463	,	4.7288833	,	2
27,38	,	42857	,	-23472	,	-22463	,	4.365436	,	0
27,38	,	42873	,	-23471	,	-22468	,	4.215069	,	0
27,38	,	42905	,	-23484	,	-22457	,	4.1169105	,	0
27,38	,	42921	,	-23489	,	-22469	,	3.804147	,	0
27,38	,	42937	,	-23485	,	-22470	,	3.0166857	,	0
27,38	,	42969	,	-23484	,	-22472	,	1.7716897	,	0
27,38	,	42985	,	-23506	,	-22488	,	0.2347542	,	0
27,38	,	43001	,	-23492	,	-22458	,	-1.5428612	,	0
27,38	,	43033	,	-23499	,	-22477	,	-3.4549322	,	0
27,38	,	43049	,	-23515	,	-22477	,	-5.313125	,	0
27,38	,	43081	,	-23503	,	-22481	,	-7.0623407	,	0
27,38	,	43097	,	-23528	,	-22480	,	-8.702443	,	0
27,38	,	43113	,	-23506	,	-22489	,	-10.190207	,	0
27,38	,	43145	,	-23517	,	-22487	,	-11.3664055	,	0
27,38	,	43161	,	-23519	,	-22494	,	-12.020924	,	0
27,38	,	43177	,	-23532	,	-22493	,	-12.176298	,	0
27,38	,	43209	,	-23533	,	-22492	,	-12.089424	,	0
27,38	,	43225	,	-23517	,	-22495	,	-11.9125595	,	0
27,38	,	43241	,	-23513	,	-22479	,	-11.435145	,	0
27,38	,	43273	,	-23480	,	-22472	,	-10.153078	,	0
27,38	,	43289	,	-23472	,	-22472	,	-7.484801	,	1
27,38	,	43321	,	-23464	,	-22467	,	-3.127861	,	3
27,38	,	43337	,	-23472	,	-22465	,	2.561318	,	7
27,38	,	43353	,	-23466	,	-22468	,	8.654463	,	12
27,38	,	43385	,	-23456	,	-22465	,	14.193329	,	18
27,38	,	43401	,	-23456	,	-22469	,	18.603472	,	23
27,38	,	43417	,	-23463	,	-22472	,	21.58939	,	27
27,38	,	43449	,	-23473	,	-22482	,	22.874485	,	29
27,38	,	43465	,	-23472	,	-22455	,	22.257877	,	30
27,38	,	43497	,	-23462	,	-22459	,	19.906713	,	29
27,38	,	43513	,	-23467	,	-22463	,	16.419783	,	27
27,38	,	43529	,	-23453	,	-22467	,	12.548666	,	23
27,38	,	43561	,	-23456	,	-22462	,	8.9666605	,	18
27,38	,	43577	,	-23457	,	-22458	,	6.1108894	,	12
27,38	,	43593	,	-23467	,	-22462	,	4.03511	,	7
27,38	,	43625	,	-23449	,	-22458	,	2.574522	,	3
27,38	,	43641	,	-23459	,	-22467	,	1.6484942	,	1
27,38	,	43657	,	-23456	,	-22469	,	1.2103282	,	0
27,38	,	43689	,	-23464	,	-22491	,	1.0766928	,	0
27,38	,	43705	,	-23468	,	-22457	,	0.9684358	,	0
27,38	,	43737	,	-23478	,	-22475	,	0.5921709	,	0
27,38	,	43753	,	-23473	,	-22469	,	-0.25080168	,	0
27,38	,	43769	,	-23482	,	-22468	,	-1.5519994	,	0
27,38	,	43801	,	-23494	,	-22479	,	-3.218832	,	0
27,38	,	43817	,	-23497	,	-22481	,	-5.2308116	,	0
27,38	,	43833	,	-23497	,	-22480	,	-7.5064936	,	0
27,39	,	43865	,	-23509	,	-22493	,	-9.821842	,	0
27,39	,	43881	,	-23508	,	-22491	,	-11.966911	,	0
27,39	,	43913	,	-23500	,	-22489	,	-13.725254	,	0
27,39	,	43929	,	-23516	,	-22507	,	-14.841879	,	0
27,39	,	43945	,	-23514	,	-22479	,	-15.255777	,	0
27,39	,	43977	,	-23522	,	-22492	,	-15.130085	,	0
27,39	,	43993	,	-23506	,	-22486	,	-14.585907	,	0
27,39	,	44009	,	-23493	,	-22483	,	-13.484648	,	0
27,39	,	44041	,	-23472	,	-22471	,	-11.421837	,	1
27,39	,	44057	,	-23451	,	-22476	,	-7.9296193	,	3
27,39	,	44073	,	-23447	,	-22473	,	-2.783483	,	6
27,39	,	44105	,	-23441	,	-22473	,	3.714322	,	11
27,39	,	44121	,	-23437	,	-22465	,	10.774664	,	17
27,39	,	44153	,	-23433	,	-22465	,	17.467232	,	24
27,39	,	44169	,	-23433	,	-22461	,	22.991611	,	30
27,39	,	44185	,	-23434	,	-22460	,	26.777752	,	35
27,39	,	44217	,	-23422	,	-22454	,	28.580456	,	38
27,39	,	44233	,	-23439	,	-22469	,	28.487114	,	38
27,39	,	44249	,	-23436	,	-22465	,	26.697863	,	36
27,39	,	44280	,	-23432	,	-22463	,	23.485016	,	33
27,39	,	44297	,	-23424	,	-22459	,	19.382824	,	28
27,39	,	44329	,	-23427	,	-22462	,	15.086216	,	22
27,39	,	44345	,	-23432	,	-22462	,	11.114134	,	15
27,39	,	44361	,	-23418	,	-22456	,	7.73596	,	9
27,39	,	44393	,	-23417	,	-22479	,	5.1703935	,	4
27,39	,	44409	,	-23412	,	-22444	,	3.5995102	,	1
27,39	,	44425	,	-23421	,	-22460	,	2.9843292	,	0
27,39	,	44457	,	-23422	,	-22458	,	3.0098546	,	0
27,39	,	44472	,	-23423	,	-22463	,	3.2453485	,	0
27,39	,	44505	,	-23431	,	-22468	,	3.327311	,	0
27,39	,	44521	,	-23436	,	-22466	,	2.981267	,	0
27,39	,	44537	,	-23443	,	-22467	,	2.0162563	,	0
27,39	,	44569	,	-23446	,	-22482	,	0.38126087	,	0
27,39	,	44585	,	-23445	,	-22460	,	-1.7789501	,	0
27,39	,	44601	,	-23453	,	-22473	,	-4.162949	,	0
27,39	,	44633	,	-23451	,	-22487	,	-6.460259	,	0
27,39	,	44648	,	-23457	,	-22467	,	-8.434707	,	0
27,39	,	44664	,	-23462	,	-22473	,	-9.963844	,	0
27,39	,	44697	,	-23486	,	-22489	,	-11.165465	,	0
27,39	,	44713	,	-23478	,	-22478	,	-12.355491	,	0
27,39	,	44745	,	-23495	,	-22483	,	-13.734535	,	0
27,39	,	44761	,	-23487	,	-22488	,	-15.24348	,	0
27,39	,	44776	,	-23479	,	-22485	,	-16.577488	,	0
27,39	,	44808	,	-23474	,	-22485	,	-17.22214	,	0
27,39	,	44825	,	-23466	,	-22475	,	-16.701857	,	0
27,39	,	44841	,	-23436	,	-22480	,	-14.683915	,	0
27,40	,	44873	,	-23431	,	-22453	,	-10.896763	,	2
27,40	,	44889	,	-23411	,	-22455	,	-5.3083553	,	5
27,40	,	44920	,	-23394	,	-22453	,	1.7653661	,	10
27,40	,	44936	,	-23387	,	-22449	,	9.787291	,	17
27,40	,	44952	,	-23388	,	-22435	,	17.97769	,	25
27,40	,	44985	,	-23375	,	-22447	,	25.387022	,	33
27,40	,	45000	,	-23378	,	-22455	,	31.224209	,	40
27,40	,	45016	,	-23382	,	-22445	,	34.969784	,	45
27,40	,	45048	,	-23377	,	-22438	,	36.334045	,	48
27,40	,	45065	,	-23372	,	-22454	,	35.396202	,	47
27,40	,	45081	,	-23363	,	-22450	,	32.677025	,	44
27,40	,	45112	,	-23375	,	-22430	,	28.868021	,	39
27,40	,	45128	,	-23367	,	-22439	,	24.49625	,	32
27,40	,	45160	,	-23345	,	-22444	,	20.048267	,	24
27,40	,	45176	,	-23357	,	-22437	,	16.138382	,	16
27,40	,	45192	,	-23363	,	-22439	,	13.096392	,	9
27,40	,	45224	,	-23365	,	-22444	,	10.731441	,	4
27,40	,	45240	,	-23364	,	-22441	,	8.706913	,	1
27,40	,	45256	,	-23361	,	-22443	,	6.856765	,	0
27,40	,	45288	,	-23359	,	-22439	,	5.194517	,	0
27,40	,	45304	,	-23372	,	-22441	,	3.7459092	,	0
27,40	,	45337	,	-23379	,	-22450	,	2.3583438	,	0
27,40	,	45352	,	-23376	,	-22446	,	0.8021865	,	0
27,40	,	45368	,	-23379	,	-22449	,	-0.95058596	,	0
27,40	,	45400	,	-23393	,	-22454	,	-2.7877612	,	0
27,40	,	45416	,	-23397	,	-22456	,	-4.7096686	,	0
27,40	,	45432	,	-23395	,	-22457	,	-6.742361	,	0
27,40	,	45464	,	-23392	,	-22455	,	-8.7009325	,	0
27,40	,	45480	,	-23392	,	-22461	,	-10.232622	,	0
27,40	,	45496	,	-23412	,	-22461	,	-11.138952	,	0
27,40	,	45528	,	-23408	,	-22469	,	-11.581023	,	0
27,40	,	45544	,	-23413	,	-22478	,	-11.82984	,	0
27,40	,	45576	,	-23416	,	-22453	,	-12.000181	,	0
27,40	,	45592	,	-23426	,	-22469	,	-12.143768	,	0
27,40	,	45608	,	-23437	,	-22472	,	-12.389287	,	0
27,40	,	45640	,	-23441	,	-22478	,	-12.907405	,	0
27,40	,	45656	,	-23445	,	-22484	,	-13.757033	,	0
27,40	,	45672	,	-23429	,	-22472	,	-14.725435	,	0
27,40	,	45704	,	-23412	,	-22467	,	-15.234686	,	0
27,40	,	45720	,	-23389	,	-22455	,	-14.457228	,	0
27,40	,	45752	,	-23378	,	-22457	,	-11.694225	,	0
27,40	,	45768	,	-23361	,	-22449	,	-6.7325044	,	2
27,40	,	45784	,	-23357	,	-22456	,	0.0672102	,	6
27,40	,	45816	,	-23348	,	-22423	,	7.898694	,	12
27,40	,	45833	,	-23344	,	-22437	,	15.75787	,	19
27,40	,	45848	,	-23341	,	-22440	,	22.703588	,	26
27,41	,	45880	,	-23324	,	-22437	,	28.086481	,	32
27,41	,	45896	,	-23313	,	-22430	,	31.741314	,	37
27,41	,	45912	,	-23324	,	-22437	,	33.81002	,	40
27,41	,	45944	,	-23320	,	-22436	,	34.333076	,	42
27,41	,	45960	,	-23320	,	-22434	,	33.27339	,	40
27,41	,	45992	,	-23323	,	-22437	,	30.757072	,	36
27,41	,	46008	,	-23317	,	-22427	,	27.096582	,	30
27,41	,	46024	,	-23317	,	-22439	,	22.749926	,	23
27,41	,	46056	,	-23308	,	-22418	,	18.263405	,	16
27,41	,	46072	,	-23302	,	-22419	,	14.193648	,	10
27,41	,	46088	,	-23300	,	-22419	,	10.995072	,	5
27,41	,	46120	,	-23304	,	-22431	,	8.830739	,	2
27,41	,	46136	,	-23301	,	-22423	,	7.5347853	,	0
27,41	,	46168	,	-23307	,	-22400	,	6.7885027	,	0
27,41	,	46184	,	-23321	,	-22436	,	6.194847	,	0
27,41	,	46200	,	-23311	,	-22440	,	5.3442388	,	0
27,41	,	46232	,	-23324	,	-22432	,	4.0417976	,	0
27,41	,	46248	,	-23327	,	-22448	,	2.2933743	,	0
27,41	,	46264	,	-23338	,	-22448	,	0.11531496	,	0
27,41	,	46296	,	-23343	,	-22444	,	-2.4679382	,	0
27,41	,	46312	,	-23345	,	-22453	,	-5.3403587	,	0
27,41	,	46328	,	-23353	,	-22458	,	-8.277152	,	0
27,41	,	46360	,	-23338	,	-22458	,	-10.953848	,	0
27,41	,	46376	,	-23357	,	-22461	,	-13.006851	,	0
27,41	,	46408	,	-23358	,	-22464	,	-14.281166	,	0
27,41	,	46424	,	-23378	,	-22457	,	-14.981902	,	0
27,41	,	46440	,	-23375	,	-22462	,	-15.482246	,	0
27,41	,	46472	,	-23381	,	-22463	,	-16.016857	,	0
27,41	,	46488	,	-23385	,	-22480	,	-16.579035	,	0
27,41	,	46504	,	-23378	,	-22455	,	-17.009815	,	0
27,41	,	46536	,	-23391	,	-22470	,	-17.104261	,	0
27,41	,	46552	,	-23406	,	-22485	,	-16.861818	,	0
27,41	,	46584	,	-23406	,	-22480	,	-16.570747	,	0
27,41	,	46600	,	-23415	,	-22485	,	-16.486464	,	0
27,41	,	46616	,	-23417	,	-22484	,	-16.651821	,	0
27,41	,	46648	,	-23394	,	-22476	,	-16.853317	,	0
27,41	,	46664	,	-23378	,	-22476	,	-16.485498	,	0
27,41	,	46680	,	-23363	,	-22469	,	-14.751799	,	0
27,41	,	46712	,	-23349	,	-22460	,	-11.137299	,	1
27,41	,	46728	,	-23343	,	-22465	,	-5.6528335	,	4
27,41	,	46760	,	-23334	,	-22430	,	1.1847444	,	9
27,41	,	46776	,	-23318	,	-22451	,	8.601533	,	15
27,41	,	46792	,	-23309	,	-22448	,	15.901102	,	22
27,41	,	46823	,	-23308	,	-22440	,	22.519753	,	29
27,41	,	46840	,	-23307	,	-22442	,	27.897896	,	35
27,42	,	46856	,	-23307	,	-22438	,	31.525448	,	40
27,42	,	46888	,	-23316	,	-22449	,	33.059147	,	43
27,42	,	46904	,	-23301	,	-22440	,	32.428772	,	43
27,42	,	46920	,	-23299	,	-22440	,	30.000763	,	40
27,42	,	46952	,	-23298	,	-22439	,	26.457718	,	35
27,42	,	46968	,	-23290	,	-22437	,	22.465061	,	29
27,42	,	46999	,	-23293	,	-22446	,	18.547756	,	22
27,42	,	47016	,	-23279	,	-22437	,	15.101519	,	15
27,42	,	47032	,	-23291	,	-22435	,	12.366839	,	9
27,42	,	47064	,	-23288	,	-22439	,	10.327031	,	4
27,42	,	47080	,	-23289	,	-22443	,	8.755277	,	1
27,42	,	47096	,	-23298	,	-22449	,	7.3959403	,	0
27,42	,	47128	,	-23286	,	-22444	,	6.0621867	,	0
27,42	,	47143	,	-23296	,	-22439	,	4.7168927	,	0
27,42	,	47176	,	-23311	,	-22446	,	3.323674	,	0
27,42	,	47192	,	-23311	,	-22455	,	1.6702704	,	0
27,42	,	47208	,	-23320	,	-22440	,	-0.4242046	,	0
27,42	,	47240	,	-23318	,	-22451	,	-2.909389	,	0
27,42	,	47256	,	-23336	,	-22452	,	-5.6019554	,	0
27,42	,	47272	,	-23338	,	-22457	,	-8.371663	,	0
27,42	,	47304	,	-23327	,	-22461	,	-11.0470705	,	0
27,42	,	47320	,	-23340	,	-22461	,	-13.268719	,	0
27,42	,	47336	,	-23347	,	-22464	,	-14.789217	,	0
27,42	,	47367	,	-23348	,	-22464	,	-15.674978	,	0
27,42	,	47383	,	-23352	,	-22472	,	-16.071629	,	0
27,42	,	47415	,	-23362	,	-22472	,	-16.10163	,	0
27,42	,	47432	,	-23361	,	-22489	,	-15.920257	,	0
27,42	,	47448	,	-23369	,	-22465	,	-15.65011	,	0
27,42	,	47480	,	-23376	,	-22485	,	-15.370363	,	0
27,42	,	47496	,	-23376	,	-22480	,	-15.158657	,	0
27,42	,	47511	,	-23391	,	-22477	,	-15.076235	,	0
27,42	,	47543	,	-23392	,	-22486	,	-15.193413	,	0
27,42	,	47559	,	-23402	,	-22493	,	-15.559895	,	0
27,42	,	47591	,	-23394	,	-22497	,	-16.09231	,	0
27,42	,	47608	,	-23397	,	-22491	,	-16.52968	,	0
27,42	,	47623	,	-23386	,	-22491	,	-16.5117	,	0
27,42	,	47655	,	-23360	,	-22479	,	-15.593574	,	0
27,42	,	47671	,	-23353	,	-22470	,	-13.249398	,	0
27,42	,	47688	,	-23335	,	-22468	,	-9.153948	,	2
27,42	,	47720	,	-23324	,	-22459	,	-3.3965259	,	6
27,42	,	47736	,	-23322	,	-22462	,	3.552978	,	11
27,42	,	47751	,	-23311	,	-22461	,	10.92452	,	17
27,42	,	47783	,	-23319	,	-22453	,	17.819618	,	24
27,42	,	47799	,	-23321	,	-22453	,	23.354856	,	30
27,42	,	47831	,	-23321	,	-22445	,	26.82233	,	35
27,42	,	47847	,	-23313	,	-22448	,	27.964184	,	38
27,43	,	47863	,	-23317	,	-22454	,	27.030148	,	39
27,43	,	47896	,	-23312	,	-22458	,	24.53724	,	37
27,43	,	47911	,	-23304	,	-22442	,	21.103615	,	33
27,43	,	47927	,	-23309	,	-22452	,	17.370655	,	28
27,43	,	47959	,	-23309	,	-22454	,	13.80121	,	22
27,43	,	47975	,	-23308	,	-22442	,	10.604007	,	15
27,43	,	48007	,	-23307	,	-22453	,	7.873707	,	9
27,43	,	48023	,	-23301	,	-22448	,	5.6934557	,	4
27,43	,	48040	,	-23307	,	-22453	,	4.1190224	,	1
27,43	,	48071	,	-23311	,	-22448	,	3.0650828	,	0
27,43	,	48087	,	-23306	,	-22461	,	2.319137	,	0
27,43	,	48103	,	-23322	,	-22462	,	1.6679171	,	0
27,43	,	48135	,	-23321	,	-22477	,	0.88102627	,	0
27,43	,	48151	,	-23322	,	-22445	,	-0.21398067	,	0
27,43	,	48167	,	-23336	,	-22471	,	-1.6350268	,	0
27,43	,	48199	,	-23342	,	-22468	,	-3.3967533	,	0
27,43	,	48215	,	-23339	,	-22472	,	-5.49648	,	0
27,43	,	48247	,	-23346	,	-22476	,	-7.740355	,	0
27,43	,	48263	,	-23352	,	-22481	,	-9.864454	,	0
27,43	,	48279	,	-23359	,	-22482	,	-11.738249	,	0
27,43	,	48311	,	-23367	,	-22482	,	-13.360515	,	0
27,43	,	48327	,	-23369	,	-22493	,	-14.761957	,	0
27,43	,	48343	,	-23371	,	-22491	,	-15.910093	,	0
27,43	,	48375	,	-23378	,	-22499	,	-16.71563	,	0
27,43	,	48391	,	-23389	,	-22484	,	-17.177471	,	0
27,43	,	48423	,	-23399	,	-22494	,	-17.468193	,	0
27,43	,	48439	,	-23392	,	-22503	,	-17.764301	,	0
27,43	,	48456	,	-23398	,	-22504	,	-18.017328	,	0
27,43	,	48487	,	-23402	,	-22502	,	-18.045523	,	0
27,43	,	48503	,	-23419	,	-22511	,	-17.827015	,	0
27,43	,	48519	,	-23428	,	-22512	,	-17.604622	,	0
27,43	,	48551	,	-23425	,	-22517	,	-17.64861	,	0
27,43	,	48567	,	-23409	,	-22514	,	-17.859268	,	0
27,43	,	48583	,	-23388	,	-22517	,	-17.617367	,	0
27,43	,	48615	,	-23385	,	-22490	,	-16.12286	,	0
27,43	,	48631	,	-23374	,	-22500	,	-12.949098	,	1
27,43	,	48664	,	-23364	,	-22493	,	-8.2090845	,	4
27,43	,	48680	,	-23356	,	-22490	,	-2.3277001	,	8
27,43	,	48695	,	-23364	,	-22490	,	4.057016	,	13
27,43	,	48727	,	-23360	,	-22483	,	10.098549	,	19
27,43	,	48743	,	-23349	,	-22484	,	15.042338	,	25
27,43	,	48759	,	-23356	,	-22488	,	18.520174	,	29
27,43	,	48791	,	-23363	,	-22485	,	20.38173	,	32
27,43	,	48807	,	-23372	,	-22483	,	20.476818	,	33
27,43	,	48839	,	-23359	,	-22515	,	18.830612	,	32
27,44	,	48855	,	-23358	,	-22473	,	15.888137	,	29
27,44	,	48871	,	-23354	,	-22488	,	12.379406	,	25
27,44	,	48903	,	-23351	,	-22491	,	8.987052	,	20
27,44	,	48919	,	-23355	,	-22489	,	6.157492	,	14
27,44	,	48935	,	-23360	,	-22495	,	4.0152907	,	8
27,44	,	48967	,	-23365	,	-22494	,	2.4046226	,	4
27,44	,	48983	,	-23369	,	-22494	,	1.0603387	,	1
27,44	,	49015	,	-23367	,	-22494	,	-0.21964991	,	0
27,44	,	49031	,	-23358	,	-22488	,	-1.4260283	,	0
27,44	,	49047	,	-23371	,	-22490	,	-2.3936563	,	0
27,44	,	49079	,	-23369	,	-22504	,	-3.0654516	,	0
27,44	,	49095	,	-23376	,	-22491	,	-3.5519638	,	0
27,44	,	49111	,	-23386	,	-22498	,	-4.0301633	,	0
27,44	,	49143	,	-23393	,	-22492	,	-4.728252	,	0
27,44	,	49159	,	-23390	,	-22504	,	-5.8012447	,	0
27,44	,	49175	,	-23401	,	-22504	,	-7.199603	,	0
27,44	,	49207	,	-23396	,	-22507	,	-8.745161	,	0
27,44	,	49223	,	-23409	,	-22507	,	-10.240726	,	0
27,44	,	49255	,	-23415	,	-22508	,	-11.584532	,	0
27,44	,	49271	,	-23413	,	-22524	,	-12.776099	,	0
27,44	,	49287	,	-23426	,	-22523	,	-13.793261	,	0
27,44	,	49319	,	-23428	,	-22510	,	-14.6278105	,	0
27,44	,	49335	,	-23435	,	-22519	,	-15.3246	,	0
27,44	,	49351	,	-23437	,	-22532	,	-15.90318	,	0
27,44	,	49383	,	-23456	,	-22524	,	-16.405722	,	0
27,44	,	49399	,	-23442	,	-22525	,	-16.903076	,	0
27,44	,	49431	,	-23442	,	-22531	,	-17.257763	,	0
27,44	,	49447	,	-23418	,	-22524	,	-17.012129	,	0
27,44	,	49463	,	-23424	,	-22511	,	-15.644764	,	0
27,44	,	49495	,	-23407	,	-22515	,	-12.91719	,	1
27,44	,	49511	,	-23404	,	-22509	,	-8.937082	,	3
27,44	,	49527	,	-23406	,	-22518	,	-4.070519	,	6
27,44	,	49559	,	-23395	,	-22491	,	1.1098967	,	10
27,44	,	49575	,	-23392	,	-22511	,	6.044302	,	15
27,44	,	49591	,	-23405	,	-22511	,	10.278836	,	19
27,44	,	49623	,	-23408	,	-22511	,	13.313662	,	23
27,44	,	49639	,	-23409	,	-22504	,	14.724769	,	26
27,44	,	49671	,	-23411	,	-22508	,	14.437567	,	27
27,44	,	49687	,	-23413	,	-22510	,	12.714871	,	26
27,44	,	49703	,	-23403	,	-22506	,	10.032898	,	24
27,44	,	49735	,	-23408	,	-22506	,	6.998835	,	21
27,44	,	49750	,	-23400	,	-22515	,	4.17607	,	17
27,44	,	49766	,	-23406	,	-22525	,	1.9311266	,	12
27,44	,	49799	,	-23405	,	-22505	,	0.38803244	,	8
27,44	,	49815	,	-23405	,	-22511	,	-0.5294651	,	4
27,44	,	49847	,	-23410	,	-22509	,	-0.9877428	,	1
27,45	,	49863	,	-23420	,	-22513	,	-1.230452	,	0
27,45	,	49879	,	-23414	,	-22520	,	-1.5392169	,	0
27,45	,	49911	,	-23434	,	-22517	,	-2.118386	,	0
27,45	,	49927	,	-23417	,	-22515	,	-3.0544205	,	0
27,45	,	49942	,	-23431	,	-22516	,	-4.2499332	,	0
27,45	,	49974	,	-23434	,	-22518	,	-5.5248303	,	0
27,45	,	49990	,	-23439	,	-22521	,	-6.8123226	,	0
27,45	,	50023	,	-23440	,	-22511	,	-8.082739	,	0
27,45	,	50039	,	-23434	,	-22529	,	-9.200385	,	0
27,45	,	50055	,	-23451	,	-22533	,	-9.996775	,	0
27,45	,	50086	,	-23458	,	-22530	,	-10.515934	,	0
27,45	,	50103	,	-23453	,	-22536	,	-10.970108	,	0
27,45	,	50118	,	-23473	,	-22533	,	-11.487644	,	0
27,45	,	50151	,	-23477	,	-22542	,	-12.188061	,	0
27,45	,	50167	,	-23475	,	-22534	,	-13.171959	,	0
27,45	,	50183	,	-23487	,	-22546	,	-14.336878	,	0
27,45	,	50214	,	-23476	,	-22545	,	-15.442847	,	0
27,45	,	50230	,	-23458	,	-22540	,	-16.082985	,	0
27,45	,	50262	,	-23445	,	-22539	,	-15.611567	,	0
27,45	,	50278	,	-23424	,	-22520	,	-13.409513	,	0
27,45	,	50294	,	-23426	,	-22521	,	-9.239052	,	2
27,45	,	50326	,	-23420	,	-22524	,	-3.4589167	,	6
27,45	,	50343	,	-23416	,	-22523	,	3.0962868	,	11
27,45	,	50359	,	-23429	,	-22520	,	9.436148	,	17
27,45	,	50390	,	-23416	,	-22522	,	14.642446	,	23
27,45	,	50406	,	-23421	,	-22525	,	18.138704	,	28
27,45	,	50438	,	-23427	,	-22524	,	19.753155	,	31
27,45	,	50454	,	-23416	,	-22521	,	19.57901	,	32
27,45	,	50470	,	-23417	,	-22498	,	17.997944	,	32
27,45	,	50502	,	-23420	,	-22514	,	15.549604	,	30
27,45	,	50518	,	-23412	,	-22514	,	12.698525	,	26
27,45	,	50535	,	-23412	,	-22520	,	9.852462	,	21
27,45	,	50566	,	-23406	,	-22511	,	7.3811135	,	15
27,45	,	50582	,	-23411	,	-22512	,	5.5125995	,	9
27,45	,	50598	,	-23413	,	-22513	,	4.249219	,	4
27,45	,	50630	,	-23411	,	-22512	,	3.4168131	,	1
27,45	,	50646	,	-23413	,	-22504	,	2.8302934	,	0
27,45	,	50678	,	-23412	,	-22511	,	2.3713617	,	0
27,45	,	50694	,	-23417	,	-22525	,	1.9503667	,	0
27,45	,	50711	,	-23427	,	-22509	,	1.4292868	,	0
27,45	,	50742	,	-23422	,	-22513	,	0.63862276	,	0
27,45	,	50758	,	-23413	,	-22511	,	-0.39837754	,	0
27,45	,	50774	,	-23438	,	-22528	,	-1.492831	,	0
27,45	,	50806	,	-23435	,	-22526	,	-2.6467414	,	0
27,45	,	50822	,	-23452	,	-22526	,	-4.059284	,	0
27,46	,	50854	,	-23442	,	-22529	,	-5.828551	,	0
27,46	,	50870	,	-23466	,	-22538	,	-7.8741636	,	0
27,46	,	50886	,	-23462	,	-22533	,	-10.092951	,	0
27,46	,	50918	,	-23465	,	-22529	,	-12.353778	,	0
27,46	,	50934	,	-23462	,	-22545	,	-14.359245	,	0
27,46	,	50950	,	-23471	,	-22532	,	-15.782393	,	0
27,46	,	50982	,	-23482	,	-22540	,	-16.54016	,	0
27,46	,	50998	,	-23458	,	-22544	,	-16.69785	,	0
27,46	,	51030	,	-23461	,	-22533	,	-16.121689	,	0
27,46	,	51046	,	-23434	,	-22520	,	-14.478262	,	0
27,46	,	51062	,	-23425	,	-22522	,	-11.441008	,	1
27,46	,	51094	,	-23406	,	-22511	,	-6.832578	,	4
27,46	,	51110	,	-23404	,	-22514	,	-0.8083677	,	8
27,46	,	51126	,	-23386	,	-22502	,	6.118008	,	14
27,46	,	51158	,	-23383	,	-22518	,	13.27555	,	20
27,46	,	51174	,	-23389	,	-22489	,	19.930683	,	27
27,46	,	51190	,	-23380	,	-22501	,	25.311014	,	33
27,46	,	51222	,	-23375	,	-22493	,	28.879595	,	38
27,46	,	51238	,	-23392	,	-22492	,	30.445946	,	41
27,46	,	51270	,	-23383	,	-22501	,	29.969948	,	41
27,46	,	51286	,	-23374	,	-22492	,	27.67614	,	38
27,46	,	51302	,	-23374	,	-22491	,	24.193197	,	34
27,46	,	51334	,	-23376	,	-22496	,	20.224266	,	28
27,46	,	51350	,	-23368	,	-22491	,	16.275524	,	22
27,46	,	51366	,	-23364	,	-22483	,	12.739831	,	15
27,46	,	51398	,	-23362	,	-22501	,	9.932385	,	9
27,46	,	51414	,	-23361	,	-22476	,	7.9859486	,	4
27,46	,	51446	,	-23360	,	-22480	,	6.829005	,	1
27,46	,	51462	,	-23373	,	-22488	,	6.200559	,	0
27,46	,	51478	,	-23367	,	-22487	,	5.707033	,	0
27,46	,	51510	,	-23372	,	-22488	,	5.043955	,	0
27,46	,	51526	,	-23369	,	-22487	,	4.133691	,	0
27,46	,	51542	,	-23386	,	-22485	,	2.9758186	,	0
27,46	,	51574	,	-23378	,	-22492	,	1.5160587	,	0
27,46	,	51590	,	-23376	,	-22497	,	-0.17993712	,	0
27,46	,	51606	,	-23387	,	-22500	,	-1.8657062	,	0
27,46	,	51638	,	-23392	,	-22497	,	-3.4109137	,	0
27,46	,	51654	,	-23391	,	-22489	,	-4.8638353	,	0
27,46	,	51686	,	-23410	,	-22500	,	-6.295197	,	0
27,46	,	51702	,	-23400	,	-22500	,	-7.772914	,	0
27,46	,	51718	,	-23412	,	-22505	,	-9.273981	,	0
27,46	,	51750	,	-23414	,	-22506	,	-10.683879	,	0
27,46	,	51766	,	-23420	,	-22510	,	-11.92563	,	0
27,46	,	51782	,	-23425	,	-22504	,	-12.970499	,	0
27,46	,	51814	,	-23425	,	-22512	,	-13.800504	,	0
27,46	,	51830	,	-23428	,	-22522	,	-14.3619995	,	0
27,47	,	51862	,	-23432	,	-22533	,	-14.580715	,	0
27,47	,	51878	,	-23429	,	-22499	,	-14.422525	,	0
27,47	,	51894	,	-23406	,	-22495	,	-13.75388	,	0
27,47	,	51926	,	-23374	,	-22493	,	-12.080629	,	0
27,47	,	51942	,	-23370	,	-22493	,	-8.720177	,	1
27,47	,	51958	,	-23358	,	-22487	,	-3.430993	,	4
27,47	,	51990	,	-23347	,	-22486	,	3.3618822	,	9
27,47	,	52006	,	-23327	,	-22469	,	10.949308	,	15
27,47	,	52022	,	-23319	,	-22474	,	18.667694	,	22
27,47	,	52054	,	-23334	,	-22469	,	25.802683	,	29
27,47	,	52070	,	-23315	,	-22469	,	31.506536	,	36
27,47	,	52102	,	-23325	,	-22485	,	35.136604	,	41
27,47	,	52118	,	-23319	,	-22454	,	36.455284	,	44
27,47	,	52134	,	-23315	,	-22458	,	35.560913	,	44
27,47	,	52165	,	-23311	,	-22464	,	32.88882	,	41
27,47	,	52182	,	-23320	,	-22461	,	29.03106	,	36
27,47	,	52198	,	-23306	,	-22456	,	24.520737	,	30
27,47	,	52230	,	-23303	,	-22454	,	19.905994	,	23
27,47	,	52246	,	-23293	,	-22448	,	15.780502	,	16
27,47	,	52278	,	-23295	,	-22449	,	12.591182	,	9
27,47	,	52294	,	-23293	,	-22451	,	10.466322	,	4
27,47	,	52310	,	-23288	,	-22459	,	9.255127	,	1
27,47	,	52342	,	-23299	,	-22462	,	8.667564	,	0
27,47	,	52358	,	-23306	,	-22450	,	8.282059	,	0
27,47	,	52374	,	-23305	,	-22452	,	7.6317253	,	0
27,47	,	52406	,	-23309	,	-22453	,	6.455457	,	0
27,47	,	52422	,	-23310	,	-22458	,	4.76075	,	0
27,47	,	52438	,	-23329	,	-22458	,	2.6274354	,	0
27,47	,	52470	,	-23323	,	-22463	,	0.07700133	,	0
27,47	,	52486	,	-23325	,	-22467	,	-2.7560077	,	0
27,47	,	52517	,	-23320	,	-22474	,	-5.4930096	,	0
27,47	,	52534	,	-23339	,	-22472	,	-7.770108	,	0
27,47	,	52549	,	-23334	,	-22489	,	-9.512938	,	0
27,47	,	52582	,	-23349	,	-22462	,	-10.850318	,	0
27,47	,	52598	,	-23354	,	-22476	,	-11.960717	,	0
27,47	,	52614	,	-23361	,	-22486	,	-13.02142	,	0
27,47	,	52646	,	-23361	,	-22483	,	-14.098595	,	0
27,47	,	52661	,	-23367	,	-22494	,	-15.107828	,	0
27,47	,	52693	,	-23369	,	-22500	,	-15.916679	,	0
27,47	,	52709	,	-23373	,	-22494	,	-16.4254	,	0
27,47	,	52725	,	-23377	,	-22504	,	-16.588734	,	0
27,47	,	52758	,	-23378	,	-22502	,	-16.41272	,	0
27,47	,	52774	,	-23379	,	-22491	,	-15.915522	,	0
27,47	,	52790	,	-23359	,	-22501	,	-15.005317	,	0
27,47	,	52821	,	-23345	,	-22462	,	-13.347317	,	0
27,47	,	52838	,	-23320	,	-22471	,	-10.443197	,	1
27,48	,	52869	,	-23298	,	-22469	,	-5.8548	,	3
27,48	,	52885	,	-23300	,	-22461	,	0.502398	,	7
27,48	,	52902	,	-23296	,	-22458	,	8.050867	,	13
27,48	,	52933	,	-23292	,	-22453	,	15.70424	,	20
27,48	,	52949	,	-23295	,	-22458	,	22.366638	,	27
27,48	,	52965	,	-23284	,	-22452	,	27.254866	,	33
27,48	,	52998	,	-23282	,	-22453	,	30.054804	,	37
27,48	,	53014	,	-23273	,	-22449	,	30.903366	,	39
27,48	,	53029	,	-23283	,	-22464	,	30.140854	,	38
27,48	,	53061	,	-23270	,	-22437	,	28.107922	,	36
27,48	,	53077	,	-23269	,	-22451	,	25.203583	,	32
27,48	,	53110	,	-23273	,	-22456	,	21.88129	,	26
27,48	,	53126	,	-23282	,	-22456	,	18.407253	,	19
27,48	,	53142	,	-23269	,	-22454	,	14.8704	,	12
27,48	,	53173	,	-23277	,	-22453	,	11.433696	,	6
27,48	,	53189	,	-23277	,	-22452	,	8.300003	,	2
27,48	,	53205	,	-23281	,	-22449	,	5.548102	,	0
27,48	,	53237	,	-23277	,	-22451	,	3.1837587	,	0
27,48	,	53253	,	-23276	,	-22459	,	1.2487805	,	0
27,48	,	53285	,	-23280	,	-22448	,	-0.20319676	,	0
27,48	,	53301	,	-23292	,	-22455	,	-1.2554168	,	0
27,48	,	53318	,	-23294	,	-22452	,	-2.1742144	,	0
27,48	,	53349	,	-23300	,	-22457	,	-3.2214425	,	0
27,48	,	53365	,	-23315	,	-22464	,	-4.5623894	,	0
27,48	,	53381	,	-23324	,	-22463	,	-6.361175	,	0
27,48	,	53413	,	-23331	,	-22460	,	-8.724999	,	0
27,48	,	53429	,	-23325	,	-22465	,	-11.498019	,	0
27,48	,	53445	,	-23344	,	-22474	,	-14.295241	,	0
27,48	,	53477	,	-23350	,	-22484	,	-16.83992	,	0
27,48	,	53493	,	-23343	,	-22494	,	-19.01226	,	0
27,48	,	53525	,	-23350	,	-22471	,	-20.59361	,	0
27,48	,	53541	,	-23358	,	-22489	,	-21.38028	,	0
27,48	,	53557	,	-23367	,	-22490	,	-21.446991	,	0
27,48	,	53589	,	-23379	,	-22496	,	-21.104042	,	0
27,48	,	53605	,	-23380	,	-22504	,	-20.697895	,	0
27,48	,	53621	,	-23378	,	-22500	,	-20.379318	,	0
27,48	,	53653	,	-23383	,	-22513	,	-20.034344	,	0
27,48	,	53669	,	-23384	,	-22514	,	-19.479362	,	0
27,48	,	53701	,	-23380	,	-22516	,	-18.586731	,	0
27,48	,	53717	,	-23368	,	-22500	,	-17.195637	,	0
27,48	,	53733	,	-23351	,	-22497	,	-15.020154	,	1
27,48	,	53765	,	-23350	,	-22481	,	-11.7738	,	3
27,48	,	53781	,	-23323	,	-22490	,	-7.361143	,	6
27,48	,	53797	,	-23328	,	-22482	,	-1.9009428	,	10
27,48	,	53829	,	-23316	,	-22471	,	4.2216296	,	15
27,48	,	53845	,	-23307	,	-22481	,	10.41298	,	21
27,49	,	53861	,	-23312	,	-22466	,	16.084463	,	27
27,49	,	53893	,	-23314	,	-22478	,	20.647882	,	32
27,49	,	53909	,	-23308	,	-22474	,	23.587244	,	36
27,49	,	53941	,	-23314	,	-22478	,	24.688566	,	37
27,49	,	53957	,	-23307	,	-22486	,	24.055206	,	36
27,49	,	53973	,	-23306	,	-22467	,	22.038925	,	33
27,49	,	54005	,	-23309	,	-22486	,	19.129776	,	29
27,49	,	54021	,	-23307	,	-22482	,	15.766992	,	24
27,49	,	54037	,	-23302	,	-22480	,	12.323	,	18
27,49	,	54069	,	-23302	,	-22484	,	9.1651125	,	12
27,49	,	54085	,	-23305	,	-22481	,	6.547985	,	7
27,49	,	54117	,	-23298	,	-22478	,	4.5455785	,	3
27,49	,	54133	,	-23311	,	-22481	,	3.1096463	,	1
27,49	,	54149	,	-23308	,	-22480	,	2.0699825	,	0
27,49	,	54181	,	-23311	,	-22477	,	1.2102795	,	0
27,49	,	54197	,	-23312	,	-22474	,	0.40517962	,	0
27,49	,	54213	,	-23320	,	-22468	,	-0.4214673	,	0
27,49	,	54245	,	-23331	,	-22494	,	-1.413327	,	0
27,49	,	54261	,	-23329	,	-22489	,	-2.7368162	,	0
27,49	,	54277	,	-23344	,	-22492	,	-4.4462156	,	0
27,49	,	54309	,	-23343	,	-22506	,	-6.4848456	,	0
27,49	,	54325	,	-23347	,	-22493	,	-8.698669	,	0
27,49	,	54357	,	-23350	,	-22496	,	-10.833455	,	0
27,49	,	54373	,	-23348	,	-22504	,	-12.621767	,	0
27,49	,	54389	,	-23357	,	-22506	,	-13.866344	,	0
27,49	,	54421	,	-23365	,	-22512	,	-14.5493965	,	0
27,49	,	54437	,	-23373	,	-22512	,	-14.866421	,	0
27,49	,	54453	,	-23376	,	-22503	,	-15.06788	,	0
27,49	,	54485	,	-23388	,	-22515	,	-15.332235	,	0
27,49	,	54501	,	-23401	,	-22518	,	-15.817282	,	0
27,49	,	54533	,	-23403	,	-22521	,	-16.662313	,	0
27,49	,	54549	,	-23391	,	-22523	,	-17.754185	,	0
27,49	,	54565	,	-23379	,	-22522	,	-18.558033	,	0
27,49	,	54597	,	-23369	,	-22507	,	-18.334236	,	0
27,49	,	54613	,	-23359	,	-22511	,	-16.533722	,	0
27,49	,	54629	,	-23348	,	-22511	,	-12.9939	,	1
27,49	,	54661	,	-23347	,	-22508	,	-7.943568	,	4
27,49	,	54677	,	-23352	,	-22506	,	-2.0113769	,	9
27,49	,	54693	,	-23342	,	-22504	,	3.924141	,	14
27,49	,	54725	,	-23325	,	-22502	,	9.197018	,	19
27,49	,	54741	,	-23352	,	-22494	,	13.479619	,	24
27,49	,	54773	,	-23347	,	-22510	,	16.386822	,	28
27,49	,	54789	,	-23352	,	-22502	,	17.513647	,	30
27,49	,	54805	,	-23354	,	-22509	,	16.809048	,	31
27,49	,	54837	,	-23351	,	-22510	,	14.592014	,	30
27,50	,	54853	,	-23351	,	-22503	,	11.416218	,	27
27,50	,	54869	,	-23343	,	-22513	,	7.939493	,	22
27,50	,	54901	,	-23348	,	-22514	,	4.7467475	,	17
27,50	,	54917	,	-23333	,	-22490	,	2.254046	,	12
27,50	,	54948	,	-23349	,	-22499	,	0.67680645	,	7
27,50	,	54965	,	-23348	,	-22503	,	-0.07982254	,	3
27,50	,	54981	,	-23346	,	-22505	,	-0.34088182	,	1
27,50	,	55013	,	-23349	,	-22510	,	-0.37206936	,	0
27,50	,	55028	,	-23352	,	-22509	,	-0.33804932	,	0
27,50	,	55044	,	-23363	,	-22521	,	-0.43407708	,	0
27,50	,	55077	,	-23358	,	-22523	,	-0.8625071	,	0
27,50	,	55093	,	-23374	,	-22522	,	-1.7235227	,	0
27,50	,	55125	,	-23365	,	-22514	,	-2.9960692	,	0
27,50	,	55141	,	-23382	,	-22525	,	-4.5670724	,	0
27,50	,	55157	,	-23382	,	-22507	,	-6.322799	,	0
27,50	,	55188	,	-23391	,	-22529	,	-8.200183	,	0
27,50	,	55205	,	-23384	,	-22526	,	-10.067026	,	0
27,50	,	55220	,	-23399	,	-22532	,	-11.711581	,	0
27,50	,	55253	,	-23399	,	-22522	,	-13.01695	,	0
27,50	,	55269	,	-23413	,	-22533	,	-14.030403	,	0
27,50	,	55285	,	-23402	,	-22526	,	-14.821373	,	0
27,50	,	55317	,	-23411	,	-22539	,	-15.32281	,	0
27,50	,	55332	,	-23409	,	-22537	,	-15.398333	,	0
27,50	,	55364	,	-23434	,	-22542	,	-15.096252	,	0
27,50	,	55380	,	-23416	,	-22539	,	-14.665815	,	0
27,50	,	55396	,	-23394	,	-22536	,	-14.076432	,	0
27,50	,	55429	,	-23382	,	-22522	,	-12.760016	,	0
27,50	,	55445	,	-23361	,	-22520	,	-10.048668	,	1
27,50	,	55460	,	-23359	,	-22521	,	-5.6452065	,	3
27,50	,	55492	,	-23362	,	-22518	,	0.14568663	,	7
27,50	,	55508	,	-23357	,	-22510	,	6.4638586	,	12
27,50	,	55540	,	-23346	,	-22515	,	12.380593	,	18
27,50	,	55556	,	-23356	,	-22512	,	17.255077	,	23
27,50	,	55573	,	-23349	,	-22521	,	20.6565	,	27
27,50	,	55604	,	-23358	,	-22527	,	22.318903	,	30
27,50	,	55621	,	-23362	,	-22505	,	22.171839	,	31
27,50	,	55636	,	-23354	,	-22519	,	20.36187	,	30
27,50	,	55668	,	-23362	,	-22519	,	17.30157	,	28
27,50	,	55684	,	-23358	,	-22516	,	13.530549	,	24
27,50	,	55700	,	-23350	,	-22517	,	9.592473	,	19
27,50	,	55732	,	-23354	,	-22517	,	6.0212917	,	13
27,50	,	55748	,	-23356	,	-22524	,	3.1653452	,	8
27,50	,	55780	,	-23344	,	-22524	,	1.1442013	,	4
27,50	,	55797	,	-23346	,	-22522	,	0.025625944	,	1
27,50	,	55812	,	-23357	,	-22519	,	-0.2553829	,	0
27,50	,	55844	,	-23362	,	-22529	,	-0.07421702	,	0
27,51	,	55860	,	-23357	,	-22499	,	0.10305942	,	0
27,51	,	55876	,	-23362	,	-22525	,	0.042052954	,	0
27,51	,	55910	,	-23368	,	-22518	,	-0.31244603	,	0
27,51	,	55924	,	-23376	,	-22529	,	-1.0342339	,	0
27,51	,	55956	,	-23376	,	-22528	,	-2.192956	,	0
27,51	,	55972	,	-23376	,	-22526	,	-3.70326	,	0
27,51	,	55988	,	-23387	,	-22526	,	-5.3572283	,	0
27,51	,	56020	,	-23405	,	-22533	,	-7.092954	,	0
27,51	,	56036	,	-23398	,	-22542	,	-9.024158	,	0
27,51	,	56052	,	-23403	,	-22546	,	-11.100581	,	0
27,51	,	56084	,	-23399	,	-22550	,	-13.003118	,	0
27,51	,	56100	,	-23415	,	-22537	,	-14.431667	,	0
27,51	,	56116	,	-23427	,	-22546	,	-15.396221	,	0
27,51	,	56148	,	-23426	,	-22546	,	-16.152817	,	0
27,51	,	56164	,	-23430	,	-22544	,	-16.849579	,	0
27,51	,	56196	,	-23433	,	-22546	,	-17.416376	,	0
27,51	,	56212	,	-23414	,	-22543	,	-17.63055	,	0
27,51	,	56228	,	-23404	,	-22538	,	-17.056833	,	0
27,51	,	56260	,	-23382	,	-22532	,	-15.134969	,	0
27,51	,	56276	,	-23372	,	-22517	,	-11.455457	,	1
27,51	,	56292	,	-23363	,	-22533	,	-6.0063787	,	4
27,51	,	56324	,	-23365	,	-22513	,	0.7016053	,	9
27,51	,	56340	,	-23334	,	-22513	,	7.881695	,	15
27,51	,	56372	,	-23339	,	-22509	,	14.897414	,	22
27,51	,	56388	,	-23340	,	-22499	,	21.198727	,	29
27,51	,	56404	,	-23338	,	-22504	,	26.122536	,	35
27,51	,	56436	,	-23333	,	-22505	,	29.16143	,	39
27,51	,	56452	,	-23330	,	-22504	,	30.220577	,	42
27,51	,	56468	,	-23340	,	-22499	,	29.480968	,	42
27,51	,	56500	,	-23329	,	-22495	,	27.2179	,	39
27,51	,	56516	,	-23324	,	-22491	,	23.877918	,	34
27,51	,	56532	,	-23337	,	-22512	,	20.023521	,	28
27,51	,	56564	,	-23322	,	-22478	,	16.081894	,	21
27,51	,	56580	,	-23320	,	-22496	,	12.418587	,	14
27,51	,	56612	,	-23320	,	-22498	,	9.402837	,	8
27,51	,	56628	,	-23335	,	-22499	,	7.133967	,	4
27,51	,	56644	,	-23323	,	-22497	,	5.396019	,	1
27,51	,	56676	,	-23337	,	-22492	,	3.9432302	,	0
27,51	,	56692	,	-23339	,	-22495	,	2.5780308	,	0
27,51	,	56708	,	-23340	,	-22499	,	1.1205933	,	0
27,51	,	56740	,	-23350	,	-22500	,	-0.50879157	,	0
27,51	,	56756	,	-23344	,	-22512	,	-2.2827501	,	0
27,51	,	56788	,	-23349	,	-22510	,	-4.061701	,	0
27,51	,	56804	,	-23351	,	-22491	,	-5.645277	,	0
27,51	,	56820	,	-23369	,	-22512	,	-6.981578	,	0
27,52	,	56852	,	-23367	,	-22505	,	-8.230577	,	0
27,52	,	56868	,	-23372	,	-22508	,	-9.535562	,	0
27,52	,	56884	,	-23381	,	-22517	,	-10.885554	,	0
27,52	,	56916	,	-23385	,	-22516	,	-12.234705	,	0
27,52	,	56932	,	-23390	,	-22506	,	-13.543825	,	0
27,52	,	56948	,	-23389	,	-22527	,	-14.713829	,	0
27,52	,	56980	,	-23391	,	-22525	,	-15.573925	,	0
27,52	,	56996	,	-23401	,	-22533	,	-15.986494	,	0
27,52	,	57028	,	-23408	,	-22519	,	-16.004354	,	0
27,52	,	57044	,	-23404	,	-22541	,	-15.798587	,	0
27,52	,	57060	,	-23415	,	-22537	,	-15.469322	,	0
27,52	,	57092	,	-23430	,	-22532	,	-15.141522	,	0
27,52	,	57108	,	-23402	,	-22527	,	-14.932099	,	0
27,52	,	57124	,	-23395	,	-22521	,	-14.539331	,	0
27,52	,	57156	,	-23375	,	-22519	,	-13.269083	,	0
27,52	,	57172	,	-23355	,	-22508	,	-10.481583	,	1
27,52	,	57204	,	-23355	,	-22510	,	-5.9040604	,	3
27,52	,	57220	,	-23336	,	-22497	,	0.20521355	,	7
27,52	,	57236	,	-23332	,	-22508	,	7.207717	,	13
27,52	,	57268	,	-23332	,	-22486	,	14.314674	,	20
27,52	,	57283	,	-23327	,	-22496	,	20.667913	,	27
27,52	,	57300	,	-23331	,	-22497	,	25.521051	,	33
27,52	,	57332	,	-23324	,	-22497	,	28.424353	,	37
27,52	,	57348	,	-23327	,	-22487	,	29.279243	,	39
27,52	,	57364	,	-23328	,	-22492	,	28.256596	,	38
27,52	,	57396	,	-23330	,	-22490	,	25.661123	,	36
27,52	,	57412	,	-23315	,	-22490	,	21.965378	,	32
27,52	,	57444	,	-23313	,	-22488	,	17.872158	,	26
27,52	,	57460	,	-23312	,	-22489	,	14.080554	,	19
27,52	,	57476	,	-23318	,	-22490	,	10.950684	,	12
27,52	,	57508	,	-23315	,	-22483	,	8.47928	,	6
27,52	,	57524	,	-23316	,	-22487	,	6.5302715	,	2
27,52	,	57540	,	-23317	,	-22487	,	4.986161	,	0
27,52	,	57572	,	-23319	,	-22489	,	3.74434	,	0
27,52	,	57588	,	-23321	,	-22496	,	2.7016714	,	0
27,52	,	57619	,	-23326	,	-22492	,	1.7466915	,	0
27,52	,	57636	,	-23329	,	-22488	,	0.75228953	,	0
27,52	,	57652	,	-23335	,	-22493	,	-0.39166963	,	0
27,52	,	57684	,	-23337	,	-22495	,	-1.7379416	,	0
27,52	,	57700	,	-23333	,	-22506	,	-3.2234163	,	0
27,52	,	57716	,	-23344	,	-22485	,	-4.6850066	,	0
27,52	,	57747	,	-23355	,	-22510	,	-6.0668025	,	0
27,52	,	57764	,	-23356	,	-22510	,	-7.4899917	,	0
27,52	,	57795	,	-23362	,	-22517	,	-9.031186	,	0
27,52	,	57811	,	-23365	,	-22508	,	-10.6132345	,	0
27,52	,	57827	,	-23374	,	-22515	,	-12.118225	,	0
27,53	,	57859	,	-23372	,	-22514	,	-13.456938	,	0
27,53	,	57876	,	-23388	,	-22521	,	-14.576583	,	0
27,53	,	57891	,	-23388	,	-22524	,	-15.506466	,	0
27,53	,	57923	,	-23392	,	-22523	,	-16.287472	,	0
27,53	,	57940	,	-23399	,	-22541	,	-16.883997	,	0
27,53	,	57956	,	-23409	,	-22520	,	-17.299345	,	0
27,53	,	57988	,	-23414	,	-22534	,	-17.637627	,	0
27,53	,	58004	,	-23419	,	-22539	,	-17.986826	,	0
27,53	,	58035	,	-23410	,	-22534	,	-18.27721	,	0
27,53	,	58051	,	-23405	,	-22531	,	-18.213291	,	0
27,53	,	58068	,	-23379	,	-22527	,	-17.307364	,	0
27,53	,	58100	,	-23380	,	-22522	,	-15.04509	,	0
27,53	,	58115	,	-23362	,	-22517	,	-11.191285	,	2
27,53	,	58131	,	-23348	,	-22512	,	-5.8773527	,	5
27,53	,	58163	,	-23352	,	-22503	,	0.49802828	,	10
27,53	,	58179	,	-23346	,	-22514	,	7.2292156	,	16
27,53	,	58211	,	-23346	,	-22493	,	13.446555	,	22
27,53	,	58228	,	-23332	,	-22501	,	18.489323	,	28
27,53	,	58244	,	-23341	,	-22500	,	22.043736	,	33
27,53	,	58275	,	-23338	,	-22507	,	23.971884	,	36
27,53	,	58292	,	-23349	,	-22501	,	24.185764	,	37
27,53	,	58307	,	-23341	,	-22496	,	22.734951	,	35
27,53	,	58340	,	-23342	,	-22504	,	19.935764	,	32
27,53	,	58355	,	-23337	,	-22496	,	16.342587	,	27
27,53	,	58371	,	-23340	,	-22503	,	12.542458	,	21
27,53	,	58403	,	-23339	,	-22497	,	8.972883	,	15
27,53	,	58419	,	-23338	,	-22489	,	5.894847	,	9
27,53	,	58452	,	-23335	,	-22500	,	3.4588552	,	4
27,53	,	58468	,	-23343	,	-22506	,	1.707262	,	1
27,53	,	58483	,	-23342	,	-22497	,	0.52693367	,	0
27,53	,	58515	,	-23345	,	-22499	,	-0.2789997	,	0
27,53	,	58531	,	-23347	,	-22498	,	-0.88277256	,	0
27,53	,	58547	,	-23353	,	-22501	,	-1.4310284	,	0
27,53	,	58579	,	-23358	,	-22516	,	-2.072311	,	0
27,53	,	58595	,	-23361	,	-22514	,	-2.9256508	,	0
27,53	,	58627	,	-23353	,	-22511	,	-3.9711504	,	0
27,53	,	58643	,	-23370	,	-22527	,	-5.0542345	,	0
27,53	,	58659	,	-23381	,	-22514	,	-6.154887	,	0
27,53	,	58691	,	-23386	,	-22528	,	-7.4709425	,	0
27,53	,	58707	,	-23394	,	-22527	,	-9.149822	,	0
27,53	,	58723	,	-23396	,	-22529	,	-11.136185	,	0
27,53	,	58756	,	-23395	,	-22524	,	-13.191921	,	0
27,53	,	58772	,	-23391	,	-22535	,	-14.933607	,	0
27,53	,	58788	,	-23404	,	-22535	,	-16.014992	,	0
27,53	,	58819	,	-23413	,	-22546	,	-16.404222	,	0
27,53	,	58835	,	-23417	,	-22539	,	-16.381916	,	0
27,54	,	58867	,	-23437	,	-22535	,	-16.317392	,	0
27,54	,	58883	,	-23441	,	-22557	,	-16.560463	,	0
27,54	,	58899	,	-23430	,	-22542	,	-17.22388	,	0
27,54	,	58931	,	-23448	,	-22552	,	-18.04599	,	0
27,54	,	58947	,	-23450	,	-22555	,	-18.748726	,	0
27,54	,	58963	,	-23450	,	-22549	,	-19.233974	,	0
27,54	,	58995	,	-23413	,	-22544	,	-19.208838	,	0
27,54	,	59011	,	-23410	,	-22540	,	-17.98558	,	0
27,54	,	59043	,	-23399	,	-22531	,	-14.970322	,	1
27,54	,	59059	,	-23390	,	-22534	,	-10.144747	,	4
27,54	,	59075	,	-23382	,	-22537	,	-3.96237	,	8
27,54	,	59107	,	-23382	,	-22528	,	2.880103	,	14
27,54	,	59123	,	-23386	,	-22519	,	9.519841	,	20
27,54	,	59139	,	-23392	,	-22519	,	15.036404	,	26
27,54	,	59171	,	-23381	,	-22526	,	18.734217	,	31
27,54	,	59187	,	-23386	,	-22529	,	20.416962	,	34
27,54	,	59203	,	-23386	,	-22524	,	20.286776	,	35
27,54	,	59235	,	-23388	,	-22532	,	18.684452	,	34
27,54	,	59251	,	-23397	,	-22531	,	15.971259	,	31
27,54	,	59283	,	-23390	,	-22533	,	12.500755	,	27
27,54	,	59299	,	-23392	,	-22530	,	8.692459	,	21
27,54	,	59315	,	-23379	,	-22529	,	5.0772147	,	15
27,54	,	59347	,	-23394	,	-22535	,	2.1251087	,	9
27,54	,	59363	,	-23389	,	-22499	,	0.0014657974	,	4
27,54	,	59379	,	-23389	,	-22529	,	-1.3845828	,	1
27,54	,	59411	,	-23399	,	-22529	,	-2.1948354	,	0
27,54	,	59427	,	-23405	,	-22534	,	-2.6923313	,	0
27,54	,	59459	,	-23411	,	-22529	,	-3.2237058	,	0
27,54	,	59475	,	-23402	,	-22533	,	-3.9867911	,	0
27,54	,	59491	,	-23405	,	-22530	,	-4.8749804	,	0
27,54	,	59523	,	-23409	,	-22535	,	-5.648755	,	0
27,54	,	59539	,	-23414	,	-22532	,	-6.2058616	,	0
27,54	,	59555	,	-23417	,	-22536	,	-6.602188	,	0
27,54	,	59587	,	-23427	,	-22554	,	-6.9639206	,	0
27,54	,	59603	,	-23427	,	-22534	,	-7.433139	,	0
27,54	,	59619	,	-23439	,	-22549	,	-8.110981	,	0
27,54	,	59651	,	-23445	,	-22552	,	-9.072256	,	0
27,54	,	59667	,	-23442	,	-22557	,	-10.325895	,	0
27,54	,	59699	,	-23441	,	-22560	,	-11.666259	,	0
27,54	,	59715	,	-23475	,	-22560	,	-12.8838825	,	0
27,54	,	59731	,	-23464	,	-22562	,	-14.0938225	,	0
27,54	,	59763	,	-23472	,	-22559	,	-15.438767	,	0
27,54	,	59779	,	-23464	,	-22564	,	-16.724804	,	0
27,54	,	59795	,	-23479	,	-22564	,	-17.622368	,	0
27,54	,	59827	,	-23486	,	-22560	,	-18.022718	,	0
27,54	,	59843	,	-23474	,	-22567	,	-18.010216	,	0
27,55	,	59875	,	-23454	,	-22559	,	-17.43684	,	0
27,55	,	59891	,	-23434	,	-22554	,	-15.755128	,	0
27,55	,	59907	,	-23433	,	-22543	,	-12.43813	,	1
27,55	,	59939	,	-23421	,	-22545	,	-7.4588013	,	4
27,55	,	59955	,	-23415	,	-22542	,	-1.2928424	,	8
27,55	,	59971	,	-23425	,	-22545	,	5.292637	,	14
27,55	,	60003	,	-23416	,	-22551	,	11.374554	,	20
27,55	,	60019	,	-23422	,	-22541	,	16.151054	,	26
27,55	,	60035	,	-23421	,	-22550	,	19.15676	,	30
27,55	,	60067	,	-23423	,	-22540	,	20.245213	,	33
27,55	,	60083	,	-23430	,	-22551	,	19.517958	,	34
27,55	,	60115	,	-23425	,	-22537	,	17.263172	,	33
27,55	,	60131	,	-23430	,	-22546	,	13.938353	,	30
27,55	,	60147	,	-23414	,	-22548	,	10.15351	,	26
27,55	,	60179	,	-23411	,	-22545	,	6.6166334	,	20
27,55	,	60195	,	-23419	,	-22539	,	3.8914914	,	14
27,55	,	60211	,	-23424	,	-22545	,	2.0853782	,	8
27,55	,	60243	,	-23419	,	-22543	,	0.9562638	,	4
27,55	,	60259	,	-23421	,	-22539	,	0.2684163	,	1
27,55	,	60290	,	-23426	,	-22562	,	-0.12793553	,	0
27,55	,	60307	,	-23431	,	-22523	,	-0.41659576	,	0
27,55	,	60323	,	-23427	,	-22548	,	-0.7824767	,	0
27,55	,	60355	,	-23444	,	-22554	,	-1.3422542	,	0
27,55	,	60371	,	-23440	,	-22547	,	-2.2085557	,	0
27,55	,	60387	,	-23445	,	-22553	,	-3.4268699	,	0
27,55	,	60419	,	-23455	,	-22546	,	-4.91427	,	0
27,55	,	60435	,	-23442	,	-22557	,	-6.51651	,	0
27,55	,	60466	,	-23451	,	-22559	,	-7.970478	,	0
27,55	,	60482	,	-23467	,	-22561	,	-9.091726	,	0
27,55	,	60498	,	-23461	,	-22575	,	-9.981827	,	0
27,55	,	60531	,	-23472	,	-22570	,	-10.787273	,	0
27,55	,	60547	,	-23475	,	-22557	,	-11.547419	,	0
27,55	,	60563	,	-23474	,	-22571	,	-12.254568	,	0
27,55	,	60595	,	-23489	,	-22567	,	-12.869398	,	0
27,55	,	60611	,	-23476	,	-22582	,	-13.351763	,	0
27,55	,	60627	,	-23480	,	-22587	,	-13.573903	,	0
27,55	,	60659	,	-23466	,	-22575	,	-13.271242	,	0
27,55	,	60675	,	-23464	,	-22572	,	-12.167946	,	0
27,55	,	60706	,	-23454	,	-22565	,	-10.101643	,	1
27,55	,	60722	,	-23446	,	-22558	,	-7.076148	,	3
27,55	,	60739	,	-23435	,	-22557	,	-3.218864	,	6
27,55	,	60771	,	-23413	,	-22539	,	1.3340812	,	9
27,55	,	60787	,	-23423	,	-22544	,	6.4153676	,	13
27,55	,	60802	,	-23418	,	-22545	,	11.582244	,	18
27,55	,	60835	,	-23412	,	-22542	,	16.177803	,	23
27,55	,	60851	,	-23408	,	-22548	,	19.721836	,	27
27,56	,	60882	,	-23405	,	-22536	,	22.020372	,	30
27,56	,	60899	,	-23413	,	-22558	,	23.009674	,	31
27,56	,	60914	,	-23411	,	-22546	,	22.653221	,	29
27,56	,	60946	,	-23415	,	-22546	,	21.00386	,	26
27,56	,	60962	,	-23398	,	-22543	,	18.358297	,	23
27,56	,	60978	,	-23394	,	-22550	,	15.311922	,	19
27,56	,	61011	,	-23402	,	-22516	,	12.478747	,	14
27,56	,	61027	,	-23397	,	-22540	,	10.12566	,	9
27,56	,	61042	,	-23390	,	-22535	,	8.275849	,	5
27,56	,	61075	,	-23410	,	-22530	,	6.880476	,	2
27,56	,	61090	,	-23402	,	-22541	,	5.716703	,	0
27,56	,	61122	,	-23405	,	-22539	,	4.534964	,	0
27,56	,	61138	,	-23413	,	-22544	,	3.2417326	,	0
27,56	,	61154	,	-23414	,	-22548	,	1.7818437	,	0
27,56	,	61186	,	-23427	,	-22538	,	0.08107114	,	0
27,56	,	61203	,	-23434	,	-22538	,	-1.9449085	,	0
27,56	,	61218	,	-23425	,	-22546	,	-4.2899942	,	0
27,56	,	61250	,	-23430	,	-22535	,	-6.6812124	,	0
27,56	,	61266	,	-23441	,	-22546	,	-8.76795	,	0
27,56	,	61298	,	-23443	,	-22543	,	-10.432487	,	0
27,56	,	61314	,	-23443	,	-22549	,	-11.699221	,	0
27,56	,	61330	,	-23444	,	-22556	,	-12.531826	,	0
27,56	,	61362	,	-23458	,	-22556	,	-12.917284	,	0
27,56	,	61378	,	-23468	,	-22561	,	-13.058426	,	0
27,56	,	61394	,	-23468	,	-22557	,	-13.2745	,	0
27,56	,	61427	,	-23471	,	-22559	,	-13.698397	,	0
27,56	,	61442	,	-23473	,	-22571	,	-14.21969	,	0
27,56	,	61458	,	-23473	,	-22555	,	-14.639307	,	0
27,56	,	61490	,	-23493	,	-22558	,	-14.8526	,	0
27,56	,	61506	,	-23476	,	-22561	,	-14.900738	,	0
27,56	,	61538	,	-23474	,	-22566	,	-14.702028	,	0
27,56	,	61554	,	-23476	,	-22554	,	-13.989651	,	0
27,56	,	61570	,	-23447	,	-22555	,	-12.503885	,	0
27,56	,	61602	,	-23428	,	-22537	,	-9.875229	,	1
27,56	,	61618	,	-23421	,	-22542	,	-5.7075806	,	3
27,56	,	61634	,	-23405	,	-22540	,	-0.0021438599	,	7
27,56	,	61666	,	-23402	,	-22529	,	6.7657003	,	12
27,56	,	61682	,	-23394	,	-22539	,	13.843507	,	18
27,56	,	61714	,	-23396	,	-22511	,	20.382292	,	25
27,56	,	61730	,	-23384	,	-22523	,	25.651936	,	31
27,56	,	61746	,	-23384	,	-22529	,	29.238575	,	36
27,56	,	61778	,	-23381	,	-22522	,	31.038685	,	39
27,56	,	61794	,	-23389	,	-22526	,	31.085506	,	39
27,56	,	61810	,	-23383	,	-22521	,	29.479874	,	37
27,56	,	61842	,	-23386	,	-22520	,	26.479794	,	33
27,57	,	61858	,	-23381	,	-22521	,	22.528172	,	28
27,57	,	61890	,	-23383	,	-22508	,	18.144552	,	22
27,57	,	61906	,	-23369	,	-22521	,	13.8550625	,	15
27,57	,	61922	,	-23374	,	-22526	,	10.156825	,	9
27,57	,	61954	,	-23363	,	-22501	,	7.397834	,	4
27,57	,	61970	,	-23367	,	-22503	,	5.6958437	,	1
27,57	,	61986	,	-23370	,	-22504	,	4.913004	,	0
27,57	,	62018	,	-23375	,	-22507	,	4.672675	,	0
27,57	,	62034	,	-23378	,	-22512	,	4.5283494	,	0
27,57	,	62066	,	-23369	,	-22516	,	4.197312	,	0
27,57	,	62082	,	-23374	,	-22519	,	3.659792	,	0
27,57	,	62098	,	-23394	,	-22506	,	2.9157648	,	0
27,57	,	62130	,	-23386	,	-22516	,	1.7789047	,	0
27,57	,	62146	,	-23388	,	-22522	,	0.17564476	,	0
27,57	,	62162	,	-23379	,	-22511	,	-1.6169971	,	0
27,57	,	62194	,	-23399	,	-22518	,	-3.2480464	,	0
27,57	,	62210	,	-23413	,	-22510	,	-4.706481	,	0
27,57	,	62226	,	-23420	,	-22526	,	-6.329524	,	0
27,57	,	62258	,	-23405	,	-22518	,	-8.2980585	,	0
27,57	,	62274	,	-23412	,	-22522	,	-10.302831	,	0
27,57	,	62306	,	-23426	,	-22518	,	-11.930803	,	0
27,57	,	62322	,	-23424	,	-22523	,	-13.103188	,	0
27,57	,	62338	,	-23431	,	-22532	,	-13.921034	,	0
27,57	,	62370	,	-23435	,	-22541	,	-14.445773	,	0
27,57	,	62386	,	-23433	,	-22528	,	-14.700453	,	0
27,57	,	62402	,	-23459	,	-22533	,	-14.759552	,	0
27,57	,	62434	,	-23434	,	-22535	,	-14.770847	,	0
27,57	,	62450	,	-23424	,	-22532	,	-14.596725	,	0
27,57	,	62482	,	-23397	,	-22527	,	-13.607371	,	0
27,57	,	62498	,	-23391	,	-22510	,	-11.086046	,	0
27,57	,	62514	,	-23377	,	-22506	,	-6.730071	,	2
27,57	,	62546	,	-23365	,	-22513	,	-0.77383375	,	6
27,57	,	62562	,	-23352	,	-22505	,	6.2295985	,	11
27,57	,	62578	,	-23348	,	-22501	,	13.599689	,	18
27,57	,	62610	,	-23351	,	-22510	,	20.542505	,	25
27,57	,	62626	,	-23343	,	-22467	,	26.237415	,	31
27,57	,	62642	,	-23335	,	-22489	,	30.136782	,	36
27,57	,	62674	,	-23343	,	-22495	,	32.08233	,	39
27,57	,	62690	,	-23340	,	-22486	,	32.097084	,	40
27,57	,	62721	,	-23333	,	-22484	,	30.367802	,	38
27,57	,	62738	,	-23332	,	-22486	,	27.361324	,	34
27,57	,	62754	,	-23332	,	-22486	,	23.659674	,	29
27,57	,	62786	,	-23332	,	-22480	,	19.72514	,	22
27,57	,	62802	,	-23319	,	-22477	,	15.923092	,	15
27,57	,	62818	,	-23318	,	-22471	,	12.640342	,	9
27,58	,	62850	,	-23314	,	-22491	,	10.189197	,	4
27,58	,	62866	,	-23309	,	-22476	,	8.664399	,	1
27,58	,	62897	,	-23317	,	-22480	,	7.938832	,	0
27,58	,	62914	,	-23316	,	-22479	,	7.684016	,	0
27,58	,	62929	,	-23320	,	-22482	,	7.499278	,	0
27,58	,	62962	,	-23332	,	-22484	,	7.0380735	,	0
27,58	,	62978	,	-23328	,	-22484	,	6.0341616	,	0
27,58	,	62994	,	-23343	,	-22494	,	4.3743057	,	0
27,58	,	63026	,	-23334	,	-22488	,	2.129654	,	0
27,58	,	63042	,	-23349	,	-22498	,	-0.48549843	,	0
27,58	,	63073	,	-23351	,	-22500	,	-3.2383568	,	0
27,58	,	63089	,	-23344	,	-22475	,	-5.9134803	,	0
27,58	,	63105	,	-23350	,	-22496	,	-8.20853	,	0
27,58	,	63137	,	-23354	,	-22493	,	-9.867799	,	0
27,58	,	63153	,	-23352	,	-22499	,	-10.832052	,	0
27,58	,	63170	,	-23364	,	-22502	,	-11.181753	,	0
27,58	,	63202	,	-23364	,	-22497	,	-11.118633	,	0
27,58	,	63218	,	-23367	,	-22501	,	-10.875755	,	0
27,58	,	63234	,	-23382	,	-22510	,	-10.642786	,	0
27,58	,	63266	,	-23380	,	-22507	,	-10.620012	,	0
27,58	,	63281	,	-23386	,	-22516	,	-10.916716	,	0
27,58	,	63313	,	-23394	,	-22523	,	-11.487127	,	0
27,58	,	63329	,	-23398	,	-22493	,	-12.262316	,	0
27,58	,	63345	,	-23403	,	-22518	,	-13.181842	,	0
27,58	,	63377	,	-23391	,	-22522	,	-14.074951	,	0
27,58	,	63394	,	-23385	,	-22519	,	-14.555803	,	0
27,58	,	63410	,	-23379	,	-22507	,	-14.151622	,	0
27,58	,	63442	,	-23366	,	-22503	,	-12.54325	,	0
27,58	,	63457	,	-23336	,	-22503	,	-9.515139	,	1
27,58	,	63489	,	-23340	,	-22505	,	-4.918255	,	4
27,58	,	63505	,	-23331	,	-22489	,	0.99841976	,	8
27,58	,	63521	,	-23320	,	-22481	,	7.542127	,	13
27,58	,	63553	,	-23321	,	-22490	,	13.949596	,	19
27,58	,	63569	,	-23308	,	-22489	,	19.582754	,	25
27,58	,	63585	,	-23300	,	-22481	,	24.039762	,	30
27,58	,	63617	,	-23309	,	-22492	,	27.140713	,	34
27,58	,	63633	,	-23309	,	-22485	,	28.689678	,	37
27,58	,	63649	,	-23321	,	-22487	,	28.453014	,	37
27,58	,	63681	,	-23309	,	-22483	,	26.404072	,	34
27,58	,	63698	,	-23313	,	-22484	,	22.901106	,	30
27,58	,	63729	,	-23310	,	-22481	,	18.559113	,	25
27,58	,	63745	,	-23313	,	-22482	,	13.977881	,	19
27,58	,	63761	,	-23306	,	-22490	,	9.650692	,	13
27,58	,	63793	,	-23318	,	-22476	,	5.922104	,	8
27,58	,	63809	,	-23311	,	-22492	,	2.911192	,	4
27,58	,	63825	,	-23316	,	-22481	,	0.59690905	,	1
27,59	,	63857	,	-23316	,	-22485	,	-1.0685909	,	0
27,59	,	63874	,	-23328	,	-22490	,	-2.218636	,	0
27,59	,	63905	,	-23325	,	-22487	,	-3.0934472	,	0
27,59	,	63921	,	-23331	,	-22487	,	-3.8934739	,	0
27,59	,	63937	,	-23339	,	-22497	,	-4.729562	,	0
27,59	,	63969	,	-23343	,	-22501	,	-5.7056503	,	0
27,59	,	63985	,	-23350	,	-22492	,	-6.8988953	,	0
27,59	,	64001	,	-23341	,	-22512	,	-8.246353	,	0
27,59	,	64034	,	-23345	,	-22489	,	-9.491855	,	0
27,59	,	64050	,	-23356	,	-22508	,	-10.386782	,	0
27,59	,	64065	,	-23371	,	-22507	,	-10.996269	,	0
27,59	,	64097	,	-23367	,	-22512	,	-11.612396	,	0
27,59	,	64113	,	-23377	,	-22510	,	-12.400234	,	0
27,59	,	64145	,	-23378	,	-22510	,	-13.314405	,	0
27,59	,	64161	,	-23382	,	-22509	,	-14.223356	,	0
27,59	,	64177	,	-23389	,	-22515	,	-14.998779	,	0
27,59	,	64209	,	-23389	,	-22527	,	-15.565287	,	0
27,59	,	64225	,	-23397	,	-22519	,	-15.884791	,	0
27,59	,	64241	,	-23399	,	-22528	,	-15.957528	,	0
27,59	,	64273	,	-23419	,	-22516	,	-15.901911	,	0
27,59	,	64289	,	-23410	,	-22527	,	-15.922136	,	0
27,59	,	64321	,	-23413	,	-22536	,	-16.056389	,	0
27,59	,	64337	,	-23419	,	-22532	,	-16.125906	,	0
27,59	,	64353	,	-23411	,	-22529	,	-15.940596	,	0
27,59	,	64385	,	-23395	,	-22525	,	-15.249395	,	0
27,59	,	64401	,	-23382	,	-22515	,	-13.632465	,	0
27,59	,	64417	,	-23371	,	-22515	,	-10.701452	,	1
27,59	,	64449	,	-23376	,	-22512	,	-6.4271674	,	3
27,59	,	64465	,	-23362	,	-22519	,	-1.2427225	,	7
27,59	,	64497	,	-23358	,	-22512	,	4.235637	,	12
27,59	,	64513	,	-23360	,	-22514	,	9.443183	,	17
27,59	,	64529	,	-23383	,	-22514	,	13.727463	,	22
27,59	,	64561	,	-23371	,	-22516	,	16.362705	,	26
27,59	,	64577	,	-23373	,	-22507	,	17.01505	,	28
27,59	,	64593	,	-23360	,	-22522	,	15.993681	,	28
27,59	,	64625	,	-23384	,	-22523	,	13.874001	,	27
27,59	,	64641	,	-23374	,	-22522	,	11.051836	,	25
27,59	,	64657	,	-23376	,	-22518	,	7.822782	,	21
27,59	,	64689	,	-23360	,	-22518	,	4.6543927	,	16
27,59	,	64705	,	-23361	,	-22532	,	2.1232896	,	11
27,59	,	64737	,	-23357	,	-22502	,	0.6333473	,	6
27,59	,	64753	,	-23367	,	-22517	,	0.20470107	,	2
27,59	,	64769	,	-23370	,	-22517	,	0.48092324	,	0
27,59	,	64801	,	-23365	,	-22521	,	0.9861849	,	0
27,59	,	64817	,	-23382	,	-22515	,	1.3456826	,	0
27,59	,	64833	,	-23370	,	-22511	,	1.3016015	,	0
28,0	,	64865	,	-23378	,	-22518	,	0.7837069	,	0
28,0	,	64881	,	-23390	,	-22523	,	-0.14623082	,	0
28,0	,	64913	,	-23385	,	-22522	,	-1.4727967	,	0
28,0	,	64929	,	-23389	,	-22533	,	-3.10529	,	0
28,0	,	64945	,	-23400	,	-22538	,	-4.8465724	,	0
28,0	,	64977	,	-23405	,	-22530	,	-6.613552	,	0
28,0	,	64993	,	-23402	,	-22532	,	-8.38584	,	0
28,0	,	65009	,	-23417	,	-22541	,	-10.062485	,	0
28,0	,	65041	,	-23414	,	-22536	,	-11.558933	,	0
28,0	,	65057	,	-23421	,	-22535	,	-12.830097	,	0
28,0	,	65073	,	-23420	,	-22538	,	-13.7949505	,	0
28,0	,	65105	,	-23426	,	-22541	,	-14.371882	,	0
28,0	,	65121	,	-23445	,	-22541	,	-14.6189575	,	0
28,0	,	65152	,	-23438	,	-22549	,	-14.770017	,	0
28,0	,	65169	,	-23438	,	-22561	,	-14.94133	,	0
28,0	,	65185	,	-23441	,	-22544	,	-14.982286	,	0
28,0	,	65217	,	-23445	,	-22551	,	-14.734188	,	0
28,0	,	65233	,	-23425	,	-22550	,	-14.088032	,	0
28,0	,	65249	,	-23414	,	-22542	,	-12.759956	,	0
28,0	,	65281	,	-23404	,	-22540	,	-10.361279	,	1
28,0	,	65297	,	-23407	,	-22530	,	-6.77915	,	3
28,0	,	65329	,	-23393	,	-22539	,	-2.3143034	,	6
28,0	,	65345	,	-23387	,	-22535	,	2.5780993	,	10
28,0	,	65361	,	-23390	,	-22525	,	7.454648	,	14
28,0	,	65393	,	-23395	,	-22524	,	11.772741	,	18
28,0	,	65409	,	-23392	,	-22548	,	14.947923	,	22
28,0	,	65425	,	-23398	,	-22518	,	16.614887	,	25
28,0	,	65457	,	-23403	,	-22531	,	16.6866	,	26
28,0	,	65473	,	-23411	,	-22541	,	15.230539	,	25
28,0	,	65489	,	-23399	,	-22533	,	12.494843	,	23
28,0	,	65521	,	-23401	,	-22534	,	9.020559	,	20
28,0	,	65537	,	-23401	,	-22537	,	5.4689794	,	16
28,0	,	65569	,	-23390	,	-22536	,	2.3805747	,	12
28,0	,	65585	,	-23397	,	-22535	,	0.13244295	,	8
28,0	,	65600	,	-23399	,	-22527	,	-1.1696086	,	4
28,0	,	65633	,	-23402	,	-22530	,	-1.7302359	,	1
28,0	,	65649	,	-23400	,	-22539	,	-1.8483802	,	0
28,0	,	65665	,	-23400	,	-22523	,	-1.729781	,	0
28,0	,	65697	,	-23407	,	-22533	,	-1.5087547	,	0
28,0	,	65712	,	-23416	,	-22541	,	-1.3895578	,	0
28,0	,	65744	,	-23418	,	-22537	,	-1.6398237	,	0
28,0	,	65760	,	-23412	,	-22530	,	-2.3563974	,	0
28,0	,	65777	,	-23420	,	-22542	,	-3.3689733	,	0
28,0	,	65809	,	-23425	,	-22546	,	-4.4725795	,	0
28,0	,	65825	,	-23429	,	-22541	,	-5.6031866	,	0
28,0	,	65841	,	-23428	,	-22541	,	-6.7354813	,	0
28,1	,	65872	,	-23437	,	-22553	,	-7.8002777	,	0
28,1	,	65889	,	-23433	,	-22542	,	-8.731878	,	0
28,1	,	65904	,	-23443	,	-22546	,	-9.488217	,	0
28,1	,	65936	,	-23447	,	-22552	,	-10.081237	,	0
28,1	,	65953	,	-23461	,	-22557	,	-10.633123	,	0
28,1	,	65985	,	-23462	,	-22561	,	-11.32584	,	0
28,1	,	66001	,	-23456	,	-22559	,	-12.192498	,	0
28,1	,	66017	,	-23447	,	-22564	,	-12.941225	,	0
28,1	,	66049	,	-23446	,	-22552	,	-13.099036	,	0
28,1	,	66064	,	-23427	,	-22548	,	-12.267521	,	0
28,1	,	66080	,	-23420	,	-22545	,	-10.174076	,	0
28,1	,	66112	,	-23410	,	-22554	,	-6.726192	,	2
28,1	,	66129	,	-23389	,	-22522	,	-2.0544362	,	5
28,1	,	66160	,	-23387	,	-22538	,	3.5723767	,	9
28,1	,	66177	,	-23391	,	-22528	,	9.65164	,	14
28,1	,	66192	,	-23386	,	-22532	,	15.383239	,	20
28,1	,	66224	,	-23389	,	-22537	,	19.969826	,	25
28,1	,	66241	,	-23396	,	-22541	,	22.850042	,	29
28,1	,	66257	,	-23384	,	-22532	,	23.773548	,	31
28,1	,	66289	,	-23392	,	-22538	,	22.892313	,	31
28,1	,	66304	,	-23389	,	-22530	,	20.616909	,	29
28,1	,	66320	,	-23385	,	-22530	,	17.4254	,	26
28,1	,	66352	,	-23381	,	-22538	,	13.870621	,	22
28,1	,	66368	,	-23384	,	-22522	,	10.478608	,	17
28,1	,	66400	,	-23373	,	-22522	,	7.6052723	,	11
28,1	,	66416	,	-23379	,	-22522	,	5.4566083	,	6
28,1	,	66433	,	-23374	,	-22525	,	4.0848455	,	2
28,1	,	66465	,	-23376	,	-22512	,	3.383874	,	0
28,1	,	66481	,	-23380	,	-22539	,	3.1473613	,	0
28,1	,	66496	,	-23390	,	-22532	,	3.0607743	,	0
28,1	,	66528	,	-23395	,	-22540	,	2.728891	,	0
28,1	,	66544	,	-23382	,	-22527	,	1.918942	,	0
28,1	,	66576	,	-23395	,	-22545	,	0.7286478	,	0
28,1	,	66592	,	-23394	,	-22529	,	-0.6394597	,	0
28,1	,	66609	,	-23401	,	-22527	,	-2.0872047	,	0
28,1	,	66640	,	-23413	,	-22545	,	-3.6143463	,	0
28,1	,	66656	,	-23414	,	-22536	,	-5.2911325	,	0
28,1	,	66673	,	-23417	,	-22541	,	-7.121877	,	0
28,1	,	66704	,	-23415	,	-22537	,	-8.935088	,	0
28,1	,	66720	,	-23420	,	-22546	,	-10.475013	,	0
28,1	,	66752	,	-23434	,	-22544	,	-11.617712	,	0
28,1	,	66768	,	-23437	,	-22552	,	-12.485502	,	0
28,1	,	66784	,	-23444	,	-22545	,	-13.276327	,	0
28,1	,	66816	,	-23445	,	-22567	,	-14.0669	,	0
28,1	,	66833	,	-23468	,	-22532	,	-14.892251	,	0
28,1	,	66849	,	-23467	,	-22554	,	-15.888153	,	0
28,2	,	66880	,	-23470	,	-22560	,	-17.120813	,	0
28,2	,	66896	,	-23471	,	-22572	,	-18.389229	,	0
28,2	,	66912	,	-23453	,	-22554	,	-19.271826	,	0
28,2	,	66944	,	-23437	,	-22559	,	-19.15377	,	0
28,2	,	66960	,	-23420	,	-22551	,	-17.35944	,	0
28,2	,	66992	,	-23413	,	-22538	,	-13.508288	,	1
28,2	,	67008	,	-23396	,	-22530	,	-7.7238903	,	4
28,2	,	67024	,	-23400	,	-22536	,	-0.57999325	,	9
28,2	,	67056	,	-23387	,	-22537	,	7.0525665	,	16
28,2	,	67072	,	-23373	,	-22509	,	14.326382	,	23
28,2	,	67088	,	-23366	,	-22511	,	20.713253	,	30
28,2	,	67120	,	-23361	,	-22513	,	25.921148	,	36
28,2	,	67136	,	-23362	,	-22518	,	29.699062	,	41
28,2	,	67168	,	-23363	,	-22512	,	31.80967	,	44
28,2	,	67184	,	-23365	,	-22513	,	32.09958	,	45
28,2	,	67200	,	-23364	,	-22514	,	30.599222	,	42
28,2	,	67232	,	-23356	,	-22515	,	27.616669	,	37
28,2	,	67248	,	-23351	,	-22511	,	23.743225	,	30
28,2	,	67264	,	-23339	,	-22519	,	19.716328	,	23
28,2	,	67296	,	-23345	,	-22498	,	16.171396	,	16
28,2	,	67312	,	-23353	,	-22499	,	13.348754	,	10
28,2	,	67328	,	-23347	,	-22498	,	11.085846	,	5
28,2	,	67360	,	-23350	,	-22497	,	9.152876	,	2
28,2	,	67376	,	-23354	,	-22506	,	7.4129267	,	0
28,2	,	67408	,	-23358	,	-22500	,	5.742716	,	0
28,2	,	67424	,	-23357	,	-22505	,	4.044812	,	0
28,2	,	67440	,	-23359	,	-22502	,	2.3238993	,	0
28,2	,	67472	,	-23362	,	-22506	,	0.65631104	,	0
28,2	,	67488	,	-23363	,	-22500	,	-0.8921455	,	0
28,2	,	67504	,	-23371	,	-22520	,	-2.301179	,	0
28,2	,	67536	,	-23375	,	-22492	,	-3.6187677	,	0
28,2	,	67552	,	-23390	,	-22520	,	-4.9818897	,	0
28,2	,	67583	,	-23391	,	-22513	,	-6.5662875	,	0
28,2	,	67600	,	-23393	,	-22523	,	-8.416081	,	0
28,2	,	67616	,	-23399	,	-22519	,	-10.362715	,	0
28,2	,	67648	,	-23396	,	-22527	,	-12.144831	,	0
28,2	,	67664	,	-23406	,	-22526	,	-13.535359	,	0
28,2	,	67680	,	-23401	,	-22527	,	-14.407291	,	0
28,2	,	67712	,	-23397	,	-22533	,	-14.670465	,	0
28,2	,	67728	,	-23417	,	-22529	,	-14.297457	,	0
28,2	,	67744	,	-23414	,	-22548	,	-13.518036	,	0
28,2	,	67776	,	-23423	,	-22528	,	-12.695157	,	0
28,2	,	67792	,	-23435	,	-22544	,	-12.110294	,	0
28,2	,	67824	,	-23446	,	-22547	,	-12.022196	,	0
28,2	,	67840	,	-23436	,	-22545	,	-12.560764	,	0
28,3	,	67856	,	-23425	,	-22537	,	-13.424442	,	0
28,3	,	67888	,	-23417	,	-22541	,	-13.922906	,	0
28,3	,	67904	,	-23395	,	-22531	,	-13.320946	,	0
28,3	,	67920	,	-23382	,	-22527	,	-11.056335	,	0
28,3	,	67952	,	-23375	,	-22515	,	-6.917646	,	2
28,3	,	67968	,	-23368	,	-22511	,	-1.2097454	,	6
28,3	,	68000	,	-23361	,	-22507	,	5.363023	,	11
28,3	,	68016	,	-23353	,	-22498	,	11.993601	,	17
28,3	,	68032	,	-23340	,	-22505	,	18.027462	,	23
28,3	,	68064	,	-23344	,	-22498	,	23.035831	,	29
28,3	,	68080	,	-23339	,	-22498	,	26.693193	,	34
28,3	,	68096	,	-23349	,	-22497	,	28.70338	,	37
28,3	,	68128	,	-23342	,	-22502	,	28.885727	,	39
28,3	,	68144	,	-23337	,	-22496	,	27.358978	,	37
28,3	,	68160	,	-23340	,	-22501	,	24.567835	,	33
28,3	,	68191	,	-23334	,	-22502	,	21.05006	,	28
28,3	,	68208	,	-23335	,	-22503	,	17.288704	,	22
28,3	,	68239	,	-23332	,	-22474	,	13.682302	,	16
28,3	,	68256	,	-23326	,	-22493	,	10.526912	,	10
28,3	,	68271	,	-23326	,	-22493	,	8.037708	,	5
28,3	,	68304	,	-23330	,	-22501	,	6.2803016	,	2
28,3	,	68320	,	-23330	,	-22502	,	5.106028	,	0
28,3	,	68336	,	-23330	,	-22497	,	4.2703104	,	0
28,3	,	68368	,	-23332	,	-22503	,	3.5814633	,	0
28,3	,	68383	,	-23342	,	-22498	,	2.8823297	,	0
28,3	,	68415	,	-23355	,	-22501	,	1.9272342	,	0
28,3	,	68431	,	-23353	,	-22498	,	0.44544506	,	0
28,3	,	68448	,	-23347	,	-22517	,	-1.5529033	,	0
28,3	,	68480	,	-23350	,	-22494	,	-3.6894433	,	0
28,3	,	68496	,	-23367	,	-22516	,	-5.6048946	,	0
28,3	,	68512	,	-23371	,	-22526	,	-7.29786	,	0
28,3	,	68543	,	-23384	,	-22516	,	-8.986843	,	0
28,3	,	68559	,	-23374	,	-22525	,	-10.777405	,	0
28,3	,	68591	,	-23390	,	-22524	,	-12.542433	,	0
28,3	,	68607	,	-23386	,	-22527	,	-14.088331	,	0
28,3	,	68623	,	-23388	,	-22520	,	-15.256882	,	0
28,3	,	68655	,	-23405	,	-22533	,	-15.9555855	,	0
28,3	,	68671	,	-23411	,	-22528	,	-16.318039	,	0
28,3	,	68687	,	-23409	,	-22528	,	-16.586725	,	0
28,3	,	68719	,	-23420	,	-22535	,	-16.839687	,	0
28,3	,	68735	,	-23430	,	-22542	,	-17.092495	,	0
28,3	,	68752	,	-23433	,	-22529	,	-17.43776	,	0
28,3	,	68783	,	-23437	,	-22542	,	-17.91307	,	0
28,3	,	68799	,	-23432	,	-22552	,	-18.375134	,	0
28,3	,	68831	,	-23439	,	-22549	,	-18.560574	,	0
28,3	,	68847	,	-23433	,	-22547	,	-18.24545	,	0
28,4	,	68863	,	-23420	,	-22543	,	-17.240368	,	0
28,4	,	68895	,	-23411	,	-22547	,	-15.290259	,	1
28,4	,	68911	,	-23398	,	-22542	,	-12.176273	,	2
28,4	,	68927	,	-23370	,	-22516	,	-7.774884	,	5
28,4	,	68959	,	-23361	,	-22515	,	-2.0127883	,	9
28,4	,	68975	,	-23363	,	-22519	,	4.8801837	,	14
28,4	,	69007	,	-23351	,	-22510	,	12.178984	,	20
28,4	,	69023	,	-23354	,	-22518	,	18.968988	,	27
28,4	,	69039	,	-23352	,	-22505	,	24.45474	,	33
28,4	,	69071	,	-23352	,	-22504	,	28.061497	,	38
28,4	,	69087	,	-23350	,	-22505	,	29.544846	,	40
28,4	,	69103	,	-23344	,	-22507	,	29.040295	,	40
28,4	,	69135	,	-23351	,	-22511	,	26.945303	,	37
28,4	,	69151	,	-23348	,	-22534	,	23.7074	,	33
28,4	,	69167	,	-23344	,	-22503	,	19.774761	,	28
28,4	,	69199	,	-23349	,	-22504	,	15.6218	,	22
28,4	,	69215	,	-23345	,	-22507	,	11.639796	,	15
28,4	,	69247	,	-23342	,	-22515	,	8.108795	,	9
28,4	,	69263	,	-23347	,	-22517	,	5.2315526	,	4
28,4	,	69279	,	-23346	,	-22517	,	3.0660453	,	1
28,4	,	69311	,	-23350	,	-22519	,	1.5171585	,	0
28,4	,	69327	,	-23351	,	-22517	,	0.4211924	,	0
28,4	,	69343	,	-23362	,	-22513	,	-0.42938316	,	0
28,4	,	69375	,	-23352	,	-22532	,	-1.238652	,	0
28,4	,	69391	,	-23365	,	-22522	,	-2.0935779	,	0
28,4	,	69423	,	-23372	,	-22510	,	-3.0422711	,	0
28,4	,	69439	,	-23371	,	-22532	,	-4.182415	,	0
28,4	,	69455	,	-23370	,	-22537	,	-5.4917293	,	0
28,4	,	69487	,	-23398	,	-22532	,	-6.8900414	,	0
28,4	,	69503	,	-23384	,	-22529	,	-8.4460335	,	0
28,4	,	69519	,	-23400	,	-22529	,	-10.180927	,	0
28,4	,	69551	,	-23403	,	-22545	,	-11.969098	,	0
28,4	,	69567	,	-23407	,	-22538	,	-13.692365	,	0
28,4	,	69583	,	-23404	,	-22552	,	-15.184593	,	0
28,4	,	69615	,	-23403	,	-22552	,	-16.176313	,	0
28,4	,	69631	,	-23417	,	-22530	,	-16.484533	,	0
28,4	,	69663	,	-23420	,	-22554	,	-16.215714	,	0
28,4	,	69679	,	-23419	,	-22556	,	-15.63371	,	0
28,4	,	69695	,	-23427	,	-22556	,	-14.907839	,	0
28,4	,	69727	,	-23440	,	-22557	,	-14.190199	,	0
28,4	,	69743	,	-23443	,	-22565	,	-13.730003	,	0
28,4	,	69759	,	-23454	,	-22562	,	-13.734555	,	0
28,4	,	69791	,	-23449	,	-22565	,	-14.216914	,	0
28,4	,	69807	,	-23461	,	-22566	,	-14.997867	,	0
28,4	,	69839	,	-23457	,	-22578	,	-15.8288	,	0
28,5	,	69855	,	-23450	,	-22575	,	-16.41851	,	0
28,5	,	69871	,	-23426	,	-22550	,	-16.293686	,	0
28,5	,	69903	,	-23412	,	-22547	,	-14.812678	,	0
28,5	,	69919	,	-23397	,	-22549	,	-11.469868	,	1
28,5	,	69935	,	-23388	,	-22544	,	-6.204293	,	4
28,5	,	69967	,	-23396	,	-22549	,	0.4704194	,	9
28,5	,	69983	,	-23394	,	-22538	,	7.534571	,	15
28,5	,	70015	,	-23396	,	-22539	,	13.833323	,	22
28,5	,	70031	,	-23396	,	-22535	,	18.499735	,	28
28,5	,	70047	,	-23398	,	-22543	,	21.096643	,	32
28,5	,	70079	,	-23395	,	-22551	,	21.593365	,	34
28,5	,	70095	,	-23387	,	-22548	,	20.340008	,	34
28,5	,	70111	,	-23391	,	-22545	,	17.939419	,	33
28,5	,	70143	,	-23401	,	-22542	,	14.923971	,	30
28,5	,	70159	,	-23390	,	-22543	,	11.611657	,	25
28,5	,	70175	,	-23386	,	-22542	,	8.340156	,	19
28,5	,	70207	,	-23401	,	-22533	,	5.4694657	,	12
28,5	,	70223	,	-23392	,	-22535	,	3.1152353	,	6
28,5	,	70255	,	-23388	,	-22542	,	1.2710161	,	2
28,5	,	70271	,	-23380	,	-22541	,	0.059365034	,	0
28,5	,	70287	,	-23390	,	-22534	,	-0.40637076	,	0
28,5	,	70319	,	-23389	,	-22554	,	-0.2564267	,	0
28,5	,	70335	,	-23390	,	-22526	,	0.19826457	,	0
28,5	,	70350	,	-23400	,	-22547	,	0.6390995	,	0
28,5	,	70383	,	-23421	,	-22541	,	0.6780211	,	0
28,5	,	70399	,	-23420	,	-22551	,	-0.13865195	,	0
28,5	,	70430	,	-23428	,	-22551	,	-2.0101666	,	0
28,5	,	70446	,	-23414	,	-22546	,	-4.65413	,	0
28,5	,	70463	,	-23428	,	-22552	,	-7.460432	,	0
28,5	,	70495	,	-23438	,	-22563	,	-9.950563	,	0
28,5	,	70511	,	-23432	,	-22557	,	-11.990386	,	0
28,5	,	70527	,	-23436	,	-22561	,	-13.506918	,	0
28,5	,	70559	,	-23451	,	-22576	,	-14.431749	,	0
28,5	,	70575	,	-23440	,	-22546	,	-14.851024	,	0
28,5	,	70590	,	-23446	,	-22565	,	-14.832749	,	0
28,5	,	70622	,	-23467	,	-22562	,	-14.45122	,	0
28,5	,	70638	,	-23462	,	-22575	,	-14.006083	,	0
28,5	,	70671	,	-23467	,	-22567	,	-13.77104	,	0
28,5	,	70687	,	-23469	,	-22568	,	-13.741039	,	0
28,5	,	70703	,	-23471	,	-22580	,	-13.777305	,	0
28,5	,	70735	,	-23476	,	-22569	,	-13.753927	,	0
28,5	,	70750	,	-23469	,	-22581	,	-13.561182	,	0
28,5	,	70766	,	-23462	,	-22574	,	-13.018429	,	0
28,5	,	70799	,	-23449	,	-22572	,	-11.83367	,	0
28,5	,	70815	,	-23431	,	-22556	,	-9.6630745	,	1
28,5	,	70846	,	-23418	,	-22564	,	-6.214557	,	3
28,6	,	70862	,	-23426	,	-22550	,	-1.5126586	,	6
28,6	,	70879	,	-23416	,	-22551	,	3.912797	,	10
28,6	,	70911	,	-23409	,	-22546	,	9.32474	,	15
28,6	,	70927	,	-23414	,	-22542	,	14.121384	,	20
28,6	,	70943	,	-23418	,	-22540	,	17.787413	,	24
28,6	,	70974	,	-23426	,	-22549	,	19.850134	,	27
28,6	,	70990	,	-23417	,	-22545	,	20.074617	,	29
28,6	,	71006	,	-23425	,	-22560	,	18.615864	,	28
28,6	,	71038	,	-23424	,	-22542	,	15.890717	,	26
28,6	,	71054	,	-23423	,	-22545	,	12.393139	,	23
28,6	,	71087	,	-23423	,	-22544	,	8.645357	,	19
28,6	,	71103	,	-23418	,	-22547	,	5.1368303	,	14
28,6	,	71118	,	-23413	,	-22550	,	2.2729836	,	9
28,6	,	71150	,	-23417	,	-22551	,	0.31713247	,	5
28,6	,	71166	,	-23414	,	-22554	,	-0.7060108	,	2
28,6	,	71182	,	-23422	,	-22547	,	-0.9952682	,	0
28,6	,	71214	,	-23417	,	-22551	,	-0.8556022	,	0
28,6	,	71230	,	-23412	,	-22555	,	-0.5169262	,	0
28,6	,	71262	,	-23428	,	-22571	,	-0.10314	,	0
28,6	,	71278	,	-23423	,	-22537	,	0.19407547	,	0
28,6	,	71295	,	-23435	,	-22562	,	0.1371677	,	0
28,6	,	71326	,	-23448	,	-22558	,	-0.48203355	,	0
28,6	,	71342	,	-23434	,	-22557	,	-1.7734596	,	0
28,6	,	71358	,	-23446	,	-22558	,	-3.5523818	,	0
28,6	,	71391	,	-23450	,	-22570	,	-5.486545	,	0
28,6	,	71406	,	-23458	,	-22575	,	-7.399383	,	0
28,6	,	71422	,	-23458	,	-22570	,	-9.225363	,	0
28,6	,	71454	,	-23457	,	-22573	,	-10.841762	,	0
28,6	,	71470	,	-23463	,	-22574	,	-12.062851	,	0
28,6	,	71502	,	-23473	,	-22588	,	-12.81699	,	0
28,6	,	71518	,	-23467	,	-22572	,	-13.192313	,	0
28,6	,	71534	,	-23486	,	-22585	,	-13.313395	,	0
28,6	,	71566	,	-23483	,	-22583	,	-13.346388	,	0
28,6	,	71582	,	-23486	,	-22583	,	-13.426221	,	0
28,6	,	71598	,	-23467	,	-22580	,	-13.423307	,	0
28,6	,	71630	,	-23464	,	-22577	,	-12.915082	,	0
28,6	,	71646	,	-23444	,	-22558	,	-11.413028	,	0
28,6	,	71678	,	-23440	,	-22561	,	-8.595037	,	1
28,6	,	71694	,	-23421	,	-22557	,	-4.410985	,	3
28,6	,	71710	,	-23417	,	-22568	,	0.91984653	,	7
28,6	,	71742	,	-23415	,	-22550	,	6.9090447	,	12
28,6	,	71758	,	-23420	,	-22553	,	12.795758	,	17
28,6	,	71775	,	-23415	,	-22560	,	17.737051	,	22
28,6	,	71806	,	-23420	,	-22554	,	21.105774	,	26
28,6	,	71822	,	-23430	,	-22563	,	22.5579	,	29
28,6	,	71838	,	-23417	,	-22565	,	22.027605	,	30
28,7	,	71870	,	-23421	,	-22561	,	19.846653	,	29
28,7	,	71886	,	-23426	,	-22557	,	16.593132	,	27
28,7	,	71918	,	-23422	,	-22554	,	12.788569	,	23
28,7	,	71934	,	-23418	,	-22565	,	8.90667	,	18
28,7	,	71950	,	-23408	,	-22560	,	5.4643164	,	13
28,7	,	71982	,	-23415	,	-22537	,	2.8979697	,	8
28,7	,	71998	,	-23415	,	-22554	,	1.3326893	,	4
28,7	,	72014	,	-23411	,	-22547	,	0.59692955	,	1
28,7	,	72046	,	-23421	,	-22551	,	0.42613494	,	0
28,7	,	72062	,	-23421	,	-22557	,	0.5057976	,	0
28,7	,	72094	,	-23428	,	-22552	,	0.5021739	,	0
28,7	,	72110	,	-23432	,	-22555	,	0.15931746	,	0
28,7	,	72126	,	-23435	,	-22553	,	-0.65417296	,	0
28,7	,	72158	,	-23437	,	-22555	,	-1.9081116	,	0
28,7	,	72174	,	-23429	,	-22572	,	-3.3895445	,	0
28,7	,	72190	,	-23437	,	-22566	,	-4.777756	,	0
28,7	,	72222	,	-23439	,	-22544	,	-5.8484015	,	0
28,7	,	72238	,	-23454	,	-22567	,	-6.62746	,	0
28,7	,	72254	,	-23451	,	-22566	,	-7.316838	,	0
28,7	,	72286	,	-23462	,	-22574	,	-8.091851	,	0
28,7	,	72302	,	-23461	,	-22563	,	-9.00902	,	0
28,7	,	72334	,	-23464	,	-22575	,	-10.014943	,	0
28,7	,	72350	,	-23470	,	-22576	,	-10.983094	,	0
28,7	,	72366	,	-23477	,	-22574	,	-11.833635	,	0
28,7	,	72398	,	-23472	,	-22572	,	-12.536753	,	0
28,7	,	72414	,	-23469	,	-22577	,	-12.954332	,	0
28,7	,	72430	,	-23462	,	-22570	,	-12.823583	,	0
28,7	,	72462	,	-23449	,	-22582	,	-11.862314	,	0
28,7	,	72478	,	-23430	,	-22557	,	-9.7807665	,	0
28,7	,	72510	,	-23408	,	-22554	,	-6.275517	,	2
28,7	,	72526	,	-23404	,	-22545	,	-1.2080235	,	5
28,7	,	72542	,	-23393	,	-22547	,	5.136911	,	10
28,7	,	72574	,	-23386	,	-22543	,	12.08341	,	16
28,7	,	72590	,	-23391	,	-22549	,	18.789293	,	22
28,7	,	72606	,	-23381	,	-22544	,	24.4201	,	28
28,7	,	72638	,	-23377	,	-22536	,	28.402508	,	33
28,7	,	72654	,	-23381	,	-22543	,	30.52715	,	36
28,7	,	72670	,	-23390	,	-22523	,	30.735298	,	38
28,7	,	72702	,	-23395	,	-22533	,	29.003002	,	36
28,7	,	72718	,	-23381	,	-22532	,	25.544037	,	33
28,7	,	72750	,	-23381	,	-22537	,	20.991203	,	28
28,7	,	72766	,	-23377	,	-22529	,	16.172962	,	22
28,7	,	72782	,	-23366	,	-22528	,	11.809105	,	16
28,7	,	72814	,	-23372	,	-22534	,	8.405956	,	10
28,7	,	72830	,	-23374	,	-22529	,	6.1091285	,	5
28,7	,	72846	,	-23374	,	-22531	,	4.6986313	,	2
28,8	,	72878	,	-23375	,	-22526	,	3.8457263	,	0
28,8	,	72894	,	-23375	,	-22544	,	3.2853968	,	0
28,8	,	72926	,	-23380	,	-22508	,	2.8238065	,	0
28,8	,	72942	,	-23382	,	-22535	,	2.303129	,	0
28,8	,	72958	,	-23387	,	-22535	,	1.5939875	,	0
28,8	,	72990	,	-23394	,	-22534	,	0.5963042	,	0
28,8	,	73006	,	-23392	,	-22532	,	-0.73728025	,	0
28,8	,	73022	,	-23407	,	-22538	,	-2.3802385	,	0
28,8	,	73053	,	-23409	,	-22544	,	-4.306866	,	0
28,8	,	73069	,	-23411	,	-22551	,	-6.466296	,	0
28,8	,	73085	,	-23421	,	-22542	,	-8.701798	,	0
28,8	,	73118	,	-23415	,	-22540	,	-10.80742	,	0
28,8	,	73134	,	-23417	,	-22543	,	-12.529902	,	0
28,8	,	73166	,	-23424	,	-22540	,	-13.635435	,	0
28,8	,	73182	,	-23422	,	-22547	,	-14.068787	,	0
28,8	,	73198	,	-23444	,	-22553	,	-13.990452	,	0
28,8	,	73229	,	-23443	,	-22550	,	-13.751772	,	0
28,8	,	73246	,	-23444	,	-22554	,	-13.664543	,	0
28,8	,	73262	,	-23462	,	-22558	,	-13.828104	,	0
28,8	,	73294	,	-23453	,	-22551	,	-14.255764	,	0
28,8	,	73310	,	-23441	,	-22551	,	-14.760616	,	0
28,8	,	73342	,	-23428	,	-22551	,	-14.788337	,	0
28,8	,	73358	,	-23406	,	-22556	,	-13.629261	,	0
28,8	,	73373	,	-23393	,	-22522	,	-10.712662	,	1
28,8	,	73406	,	-23374	,	-22531	,	-5.8168025	,	3
28,8	,	73422	,	-23359	,	-22526	,	0.86794996	,	7
28,8	,	73438	,	-23357	,	-22527	,	8.7758665	,	13
28,8	,	73470	,	-23349	,	-22519	,	17.0069	,	20
28,8	,	73485	,	-23339	,	-22515	,	24.577955	,	28
28,8	,	73517	,	-23345	,	-22509	,	30.696877	,	35
28,8	,	73533	,	-23341	,	-22518	,	34.778652	,	41
28,8	,	73549	,	-23331	,	-22505	,	36.542206	,	45
28,8	,	73581	,	-23319	,	-22498	,	36.215836	,	45
28,8	,	73597	,	-23329	,	-22528	,	34.361565	,	43
28,8	,	73614	,	-23321	,	-22486	,	31.469576	,	39
28,8	,	73646	,	-23329	,	-22500	,	27.861115	,	33
28,8	,	73661	,	-23318	,	-22501	,	23.81915	,	26
28,8	,	73677	,	-23314	,	-22491	,	19.70811	,	18
28,8	,	73709	,	-23319	,	-22486	,	15.919023	,	11
28,8	,	73726	,	-23309	,	-22493	,	12.688272	,	5
28,8	,	73757	,	-23316	,	-22492	,	10.095918	,	1
28,8	,	73773	,	-23315	,	-22498	,	8.095921	,	0
28,8	,	73789	,	-23321	,	-22501	,	6.5073805	,	0
28,8	,	73821	,	-23317	,	-22496	,	5.1266994	,	0
28,8	,	73837	,	-23324	,	-22501	,	3.8209436	,	0
28,9	,	73853	,	-23337	,	-22490	,	2.4537766	,	0
28,9	,	73885	,	-23335	,	-22496	,	0.83407044	,	0
28,9	,	73902	,	-23333	,	-22495	,	-1.0826232	,	0
28,9	,	73933	,	-23353	,	-22510	,	-3.158368	,	0
28,9	,	73949	,	-23341	,	-22505	,	-5.2821293	,	0
28,9	,	73965	,	-23342	,	-22511	,	-7.274254	,	0
28,9	,	73997	,	-23354	,	-22515	,	-8.86133	,	0
28,9	,	74013	,	-23354	,	-22509	,	-9.960599	,	0
28,9	,	74029	,	-23356	,	-22514	,	-10.660435	,	0
28,9	,	74061	,	-23358	,	-22523	,	-11.019308	,	0
28,9	,	74077	,	-23363	,	-22510	,	-11.074205	,	0
28,9	,	74109	,	-23373	,	-22522	,	-10.938237	,	0
28,9	,	74125	,	-23382	,	-22520	,	-10.847035	,	0
28,9	,	74141	,	-23373	,	-22525	,	-10.996445	,	0
28,9	,	74173	,	-23390	,	-22527	,	-11.367942	,	0
28,9	,	74189	,	-23402	,	-22528	,	-11.9419155	,	0
28,9	,	74205	,	-23401	,	-22530	,	-12.831184	,	0
28,9	,	74237	,	-23406	,	-22533	,	-14.017573	,	0
28,9	,	74253	,	-23393	,	-22532	,	-15.207647	,	0
28,9	,	74269	,	-23372	,	-22533	,	-15.831005	,	0
28,9	,	74301	,	-23356	,	-22508	,	-15.107559	,	0
28,9	,	74317	,	-23335	,	-22513	,	-12.364482	,	0
28,9	,	74349	,	-23321	,	-22499	,	-7.348963	,	2
28,9	,	74366	,	-23322	,	-22494	,	-0.39029408	,	7
28,9	,	74381	,	-23308	,	-22498	,	7.63363	,	13
28,9	,	74413	,	-23299	,	-22492	,	15.686122	,	21
28,9	,	74429	,	-23305	,	-22488	,	22.88376	,	29
28,9	,	74445	,	-23297	,	-22489	,	28.488672	,	36
28,9	,	74477	,	-23307	,	-22494	,	31.961836	,	41
28,9	,	74493	,	-23310	,	-22493	,	33.02108	,	44
28,9	,	74525	,	-23299	,	-22512	,	31.705408	,	45
28,9	,	74541	,	-23297	,	-22479	,	28.515232	,	43
28,9	,	74557	,	-23297	,	-22488	,	24.23901	,	38
28,9	,	74589	,	-23297	,	-22485	,	19.585386	,	32
28,9	,	74605	,	-23293	,	-22479	,	15.069164	,	24
28,9	,	74621	,	-23284	,	-22485	,	11.111779	,	16
28,9	,	74653	,	-23289	,	-22485	,	8.04567	,	9
28,9	,	74669	,	-23290	,	-22484	,	5.94432	,	4
28,9	,	74701	,	-23289	,	-22484	,	4.610147	,	1
28,9	,	74717	,	-23301	,	-22483	,	3.7288744	,	0
28,9	,	74733	,	-23291	,	-22484	,	2.9816031	,	0
28,9	,	74765	,	-23303	,	-22500	,	2.1704414	,	0
28,9	,	74781	,	-23305	,	-22477	,	1.2065538	,	0
28,9	,	74797	,	-23304	,	-22499	,	0.04148841	,	0
28,9	,	74829	,	-23317	,	-22495	,	-1.3153205	,	0
28,9	,	74845	,	-23322	,	-22500	,	-2.8829436	,	0
28,10	,	74861	,	-23322	,	-22501	,	-4.6916533	,	0
28,10	,	74893	,	-23328	,	-22508	,	-6.6391506	,	0
28,10	,	74909	,	-23331	,	-22503	,	-8.540316	,	0
28,10	,	74941	,	-23338	,	-22507	,	-10.254062	,	0
28,10	,	74957	,	-23335	,	-22510	,	-11.687568	,	0
28,10	,	74973	,	-23339	,	-22509	,	-12.731392	,	0
28,10	,	75005	,	-23341	,	-22498	,	-13.279137	,	0
28,10	,	75021	,	-23349	,	-22518	,	-13.339954	,	0
28,10	,	75037	,	-23365	,	-22513	,	-13.132666	,	0
28,10	,	75069	,	-23367	,	-22522	,	-13.030235	,	0
28,10	,	75085	,	-23368	,	-22526	,	-13.282917	,	0
28,10	,	75117	,	-23372	,	-22520	,	-13.839313	,	0
28,10	,	75133	,	-23384	,	-22535	,	-14.528081	,	0
28,10	,	75149	,	-23393	,	-22529	,	-15.304653	,	0
28,10	,	75181	,	-23403	,	-22537	,	-16.255428	,	0
28,10	,	75197	,	-23401	,	-22542	,	-17.415245	,	0
28,10	,	75213	,	-23392	,	-22546	,	-18.55618	,	0
28,10	,	75245	,	-23390	,	-22522	,	-19.178837	,	0
28,10	,	75261	,	-23350	,	-22515	,	-18.640785	,	0
28,10	,	75277	,	-23339	,	-22513	,	-16.217283	,	0
28,10	,	75309	,	-23328	,	-22517	,	-11.447784	,	2
28,10	,	75325	,	-23326	,	-22507	,	-4.595704	,	6
28,10	,	75357	,	-23327	,	-22515	,	3.3889399	,	12
28,10	,	75373	,	-23316	,	-22504	,	11.306049	,	19
28,10	,	75389	,	-23316	,	-22517	,	18.16614	,	26
28,10	,	75421	,	-23319	,	-22508	,	23.320625	,	32
28,10	,	75437	,	-23316	,	-22512	,	26.37725	,	37
28,10	,	75453	,	-23314	,	-22526	,	27.261402	,	40
28,10	,	75485	,	-23323	,	-22502	,	26.200026	,	40
28,10	,	75501	,	-23315	,	-22506	,	23.561913	,	38
28,10	,	75533	,	-23315	,	-22503	,	19.85165	,	34
28,10	,	75549	,	-23316	,	-22507	,	15.672625	,	28
28,10	,	75564	,	-23309	,	-22509	,	11.565477	,	21
28,10	,	75597	,	-23308	,	-22504	,	7.9693108	,	14
28,10	,	75613	,	-23318	,	-22511	,	5.1386313	,	8
28,10	,	75629	,	-23308	,	-22509	,	3.0627503	,	3
28,10	,	75661	,	-23313	,	-22500	,	1.6411307	,	0
28,10	,	75677	,	-23318	,	-22508	,	0.7575147	,	0
28,10	,	75692	,	-23323	,	-22502	,	0.17518795	,	0
28,10	,	75725	,	-23323	,	-22506	,	-0.38246697	,	0
28,10	,	75741	,	-23321	,	-22519	,	-1.0473449	,	0
28,10	,	75773	,	-23326	,	-22520	,	-1.7844254	,	0
28,10	,	75789	,	-23328	,	-22523	,	-2.5266879	,	0
28,10	,	75805	,	-23342	,	-22515	,	-3.3092067	,	0
28,10	,	75837	,	-23341	,	-22522	,	-4.273418	,	0
28,11	,	75853	,	-23343	,	-22521	,	-5.4923754	,	0
28,11	,	75868	,	-23345	,	-22536	,	-6.8464637	,	0
28,11	,	75900	,	-23345	,	-22533	,	-8.117762	,	0
28,11	,	75917	,	-23363	,	-22537	,	-9.180824	,	0
28,11	,	75949	,	-23369	,	-22526	,	-10.150333	,	0
28,11	,	75965	,	-23367	,	-22531	,	-11.221712	,	0
28,11	,	75981	,	-23369	,	-22538	,	-12.365909	,	0
28,11	,	76013	,	-23371	,	-22533	,	-13.355314	,	0
28,11	,	76028	,	-23378	,	-22539	,	-13.997237	,	0
28,11	,	76045	,	-23391	,	-22550	,	-14.301863	,	0
28,11	,	76077	,	-23391	,	-22539	,	-14.465864	,	0
28,11	,	76093	,	-23396	,	-22546	,	-14.653057	,	0
28,11	,	76109	,	-23394	,	-22550	,	-14.852657	,	0
28,11	,	76141	,	-23387	,	-22543	,	-14.887199	,	0
28,11	,	76157	,	-23376	,	-22563	,	-14.425201	,	0
28,11	,	76188	,	-23365	,	-22524	,	-13.065268	,	0
28,11	,	76205	,	-23347	,	-22530	,	-10.46991	,	1
28,11	,	76220	,	-23350	,	-22524	,	-6.525927	,	3
28,11	,	76252	,	-23338	,	-22524	,	-1.5060039	,	6
28,11	,	76269	,	-23340	,	-22526	,	4.0061197	,	11
28,11	,	76285	,	-23337	,	-22523	,	9.324024	,	16
28,11	,	76316	,	-23346	,	-22528	,	13.758776	,	21
28,11	,	76332	,	-23349	,	-22533	,	16.70627	,	25
28,11	,	76364	,	-23351	,	-22523	,	17.810707	,	27
28,11	,	76381	,	-23363	,	-22528	,	17.037514	,	28
28,11	,	76396	,	-23357	,	-22525	,	14.605029	,	27
28,11	,	76428	,	-23348	,	-22530	,	11.03584	,	25
28,11	,	76444	,	-23346	,	-22533	,	7.148338	,	22
28,11	,	76460	,	-23351	,	-22526	,	3.6930604	,	17
28,11	,	76492	,	-23350	,	-22530	,	1.0370979	,	12
28,11	,	76508	,	-23351	,	-22537	,	-0.7765503	,	7
28,11	,	76524	,	-23346	,	-22531	,	-1.8202143	,	3
28,11	,	76557	,	-23350	,	-22535	,	-2.188858	,	1
28,11	,	76573	,	-23350	,	-22521	,	-2.0345836	,	0
28,11	,	76604	,	-23350	,	-22531	,	-1.5667125	,	0
28,11	,	76620	,	-23361	,	-22545	,	-1.0295594	,	0
28,11	,	76636	,	-23363	,	-22527	,	-0.7181332	,	0
28,11	,	76668	,	-23367	,	-22538	,	-0.8752449	,	0
28,11	,	76684	,	-23371	,	-22546	,	-1.567502	,	0
28,11	,	76700	,	-23382	,	-22546	,	-2.760758	,	0
28,11	,	76732	,	-23372	,	-22547	,	-4.3600984	,	0
28,11	,	76749	,	-23384	,	-22552	,	-6.1303225	,	0
28,11	,	76780	,	-23384	,	-22551	,	-7.810924	,	0
28,11	,	76797	,	-23388	,	-22550	,	-9.260295	,	0
28,11	,	76812	,	-23397	,	-22551	,	-10.432611	,	0
28,11	,	76844	,	-23397	,	-22556	,	-11.354393	,	0
28,12	,	76860	,	-23408	,	-22581	,	-12.091375	,	0
28,12	,	76876	,	-23409	,	-22538	,	-12.722538	,	0
28,12	,	76908	,	-23414	,	-22568	,	-13.303654	,	0
28,12	,	76924	,	-23422	,	-22568	,	-13.843376	,	0
28,12	,	76940	,	-23421	,	-22574	,	-14.337108	,	0
28,12	,	76973	,	-23419	,	-22565	,	-14.70532	,	0
28,12	,	76988	,	-23412	,	-22565	,	-14.723799	,	0
28,12	,	77020	,	-23400	,	-22562	,	-14.068058	,	0
28,12	,	77036	,	-23380	,	-22562	,	-12.355257	,	0
28,12	,	77052	,	-23376	,	-22559	,	-9.261179	,	1
28,12	,	77084	,	-23374	,	-22543	,	-4.814377	,	4
28,12	,	77100	,	-23361	,	-22551	,	0.5264387	,	8
28,12	,	77116	,	-23369	,	-22538	,	6.110201	,	13
