Data recorded on Fri Jun 23 15:47:54 CAT 2017
Time: 15:48:0
Time		Millis		IR PPG		Red PPG		Filtered		SSF
48,4	,	25092	,	-33659	,	-30732	,	-13.127883	,	0
48,4	,	25124	,	-33659	,	-30739	,	-14.532459	,	0
48,4	,	25140	,	-33675	,	-30756	,	-14.447052	,	0
48,4	,	25156	,	-33667	,	-30727	,	-12.543585	,	0
48,4	,	25188	,	-33665	,	-30739	,	-9.200869	,	1
48,4	,	25204	,	-33652	,	-30736	,	-4.9974766	,	4
48,4	,	25220	,	-33657	,	-30737	,	-0.4287758	,	8
48,4	,	25252	,	-33674	,	-30732	,	3.918713	,	12
48,4	,	25268	,	-33662	,	-30739	,	7.3311787	,	16
48,4	,	25284	,	-33664	,	-30730	,	9.37446		,	19
48,4	,	25316	,	-33661	,	-30741	,	10.090024	,	21
48,4	,	25332	,	-33667	,	-30734	,	9.733452	,	21
48,4	,	25364	,	-33662	,	-30735	,	8.583582	,	21
48,4	,	25381	,	-33663	,	-30754	,	6.94334		,	20
48,4	,	25396	,	-33657	,	-30725	,	5.1481805	,	17
48,4	,	25428	,	-33658	,	-30730	,	3.5181303	,	13
48,4	,	25444	,	-33657	,	-30736	,	2.2685473	,	9
48,4	,	25460	,	-33662	,	-30735	,	1.4411068	,	5
48,4	,	25492	,	-33667	,	-30740	,	0.9055985	,	2
48,4	,	25508	,	-33652	,	-30739	,	0.5168879	,	0
48,4	,	25540	,	-33657	,	-30744	,	0.3045265	,	0
48,4	,	25556	,	-33661	,	-30742	,	0.33464494	,	0
48,4	,	25572	,	-33669	,	-30740	,	0.46497285	,	0
48,4	,	25604	,	-33653	,	-30735	,	0.4965747	,	0
48,4	,	25620	,	-33667	,	-30757	,	0.41417864	,	0
48,4	,	25636	,	-33658	,	-30734	,	0.27730632	,	0
48,4	,	25668	,	-33681	,	-30748	,	0.019049495	,	0
48,4	,	25684	,	-33662	,	-30747	,	-0.50773776	,	0
48,4	,	25700	,	-33677	,	-30744	,	-1.3132567	,	0
48,4	,	25732	,	-33667	,	-30742	,	-2.2455473	,	0
48,4	,	25748	,	-33673	,	-30750	,	-3.1268754	,	0
48,4	,	25780	,	-33680	,	-30749	,	-3.850401	,	0
48,4	,	25796	,	-33695	,	-30746	,	-4.5243325	,	0
48,4	,	25812	,	-33683	,	-30750	,	-5.372873	,	0
48,4	,	25844	,	-33687	,	-30749	,	-6.3804064	,	0
48,4	,	25860	,	-33686	,	-30765	,	-7.2870836	,	0
48,4	,	25876	,	-33687	,	-30738	,	-7.863735	,	0
48,4	,	25908	,	-33673	,	-30754	,	-7.9449005	,	0
48,4	,	25924	,	-33689	,	-30754	,	-7.4110956	,	0
48,4	,	25956	,	-33684	,	-30753	,	-6.3610687	,	0
48,4	,	25972	,	-33698	,	-30741	,	-5.1312885	,	1
48,4	,	25988	,	-33713	,	-30747	,	-4.197747	,	2
48,4	,	26020	,	-33701	,	-30748	,	-3.9933443	,	2
48,4	,	26036	,	-33708	,	-30751	,	-4.559683	,	2
48,4	,	26052	,	-33692	,	-30752	,	-5.5077367	,	2
48,4	,	26084	,	-33678	,	-30760	,	-6.215814	,	2
48,4	,	26100	,	-33680	,	-30767	,	-6.0568132	,	2
48,5	,	26116	,	-33658	,	-30743	,	-4.678853	,	2
48,5	,	26148	,	-33677	,	-30752	,	-2.1134653	,	3
48,5	,	26164	,	-33651	,	-30744	,	1.2660236	,	4
48,5	,	26196	,	-33644	,	-30738	,	5.0531635	,	6
48,5	,	26212	,	-33655	,	-30744	,	8.957843	,	9
48,5	,	26228	,	-33653	,	-30737	,	12.508644	,	12
48,5	,	26260	,	-33648	,	-30733	,	15.15154	,	15
48,5	,	26276	,	-33635	,	-30740	,	16.689955	,	17
48,5	,	26292	,	-33639	,	-30725	,	17.3103		,	18
48,5	,	26324	,	-33626	,	-30740	,	17.304138	,	18
48,5	,	26340	,	-33627	,	-30741	,	16.935532	,	17
48,5	,	26371	,	-33633	,	-30723	,	16.354362	,	15
48,5	,	26388	,	-33625	,	-30726	,	15.52971	,	12
48,5	,	26404	,	-33618	,	-30735	,	14.465004	,	9
48,5	,	26436	,	-33618	,	-30729	,	13.330868	,	6
48,5	,	26451	,	-33620	,	-30726	,	12.258116	,	3
48,5	,	26468	,	-33620	,	-30726	,	11.209112	,	1
48,5	,	26500	,	-33621	,	-30723	,	10.082413	,	0
48,5	,	26515	,	-33614	,	-30720	,	8.849227	,	0
48,5	,	26532	,	-33619	,	-30724	,	7.580921	,	0
48,5	,	26563	,	-33610	,	-30720	,	6.3847427	,	0
48,5	,	26580	,	-33615	,	-30733	,	5.362372	,	0
48,5	,	26612	,	-33635	,	-30714	,	4.458455	,	0
48,5	,	26628	,	-33627	,	-30726	,	3.379574	,	0
48,5	,	26644	,	-33646	,	-30727	,	1.8550475	,	0
48,5	,	26676	,	-33635	,	-30729	,	-0.16564703	,	0
48,5	,	26692	,	-33616	,	-30726	,	-2.3720732	,	0
48,5	,	26708	,	-33630	,	-30729	,	-4.1404405	,	0
48,5	,	26739	,	-33625	,	-30728	,	-5.0656676	,	0
48,5	,	26755	,	-33640	,	-30727	,	-5.24153	,	0
48,5	,	26788	,	-33631	,	-30726	,	-5.007295	,	0
48,5	,	26804	,	-33630	,	-30721	,	-4.6092434	,	0
48,5	,	26820	,	-33639	,	-30739	,	-4.1318526	,	0
48,5	,	26852	,	-33652	,	-30723	,	-3.7471218	,	0
48,5	,	26868	,	-33644	,	-30724	,	-3.7285209	,	0
48,5	,	26883	,	-33667	,	-30725	,	-4.235146	,	0
48,5	,	26915	,	-33647	,	-30735	,	-5.2604055	,	0
48,5	,	26932	,	-33668	,	-30731	,	-6.621394	,	0
48,5	,	26947	,	-33664	,	-30727	,	-8.087241	,	0
48,5	,	26980	,	-33658	,	-30731	,	-9.459732	,	0
48,5	,	26995	,	-33648	,	-30727	,	-10.391809	,	0
48,5	,	27028	,	-33665	,	-30739	,	-10.536391	,	0
48,5	,	27044	,	-33663	,	-30728	,	-9.928852	,	0
48,5	,	27060	,	-33664	,	-30747	,	-8.891778	,	0
48,5	,	27092	,	-33659	,	-30729	,	-7.6744456	,	1
48,6	,	27107	,	-33647	,	-30721	,	-6.304931	,	2
48,6	,	27123	,	-33640	,	-30726	,	-4.6135483	,	3
48,6	,	27155	,	-33635	,	-30711	,	-2.4046063	,	4
48,6	,	27171	,	-33622	,	-30711	,	0.37523246	,	6
48,6	,	27204	,	-33619	,	-30717	,	3.6520362	,	8
48,6	,	27220	,	-33610	,	-30718	,	7.24871	,	11
48,6	,	27236	,	-33621	,	-30703	,	10.825707	,	14
48,6	,	27267	,	-33620	,	-30703	,	13.853138	,	17
48,6	,	27284	,	-33601	,	-30711	,	15.895943	,	19
48,6	,	27300	,	-33596	,	-30721	,	16.997286	,	20
48,6	,	27331	,	-33615	,	-30713	,	17.413982	,	20
48,6	,	27347	,	-33608	,	-30712	,	17.12204	,	19
48,6	,	27363	,	-33603	,	-30706	,	16.015509	,	17
48,6	,	27395	,	-33605	,	-30698	,	14.256512	,	15
48,6	,	27411	,	-33591	,	-30698	,	12.201387	,	12
48,6	,	27443	,	-33582	,	-30689	,	10.315567	,	9
48,6	,	27460	,	-33587	,	-30693	,	9.029263	,	6
48,6	,	27475	,	-33598	,	-30689	,	8.38469	,	3
48,6	,	27508	,	-33585	,	-30688	,	8.048873	,	1
48,6	,	27523	,	-33567	,	-30693	,	7.8422017	,	0
48,6	,	27539	,	-33575	,	-30707	,	7.9311466	,	0
48,6	,	27571	,	-33596	,	-30688	,	8.289018	,	0
48,6	,	27587	,	-33599	,	-30690	,	8.374656	,	0
48,6	,	27619	,	-33586	,	-30690	,	7.670636	,	0
48,6	,	27635	,	-33593	,	-30691	,	6.202798	,	0
48,6	,	27651	,	-33590	,	-30693	,	4.329361	,	0
48,6	,	27683	,	-33587	,	-30694	,	2.4058597	,	0
48,6	,	27699	,	-33595	,	-30695	,	0.6995053	,	0
48,6	,	27715	,	-33602	,	-30693	,	-0.7199552	,	0
48,6	,	27747	,	-33597	,	-30695	,	-1.9507179	,	0
48,6	,	27763	,	-33588	,	-30697	,	-2.9735029	,	0
48,6	,	27779	,	-33600	,	-30701	,	-3.616493	,	0
48,6	,	27811	,	-33601	,	-30695	,	-3.8619308	,	0
48,6	,	27827	,	-33611	,	-30707	,	-3.9354138	,	0
48,6	,	27859	,	-33606	,	-30691	,	-4.090082	,	0
48,6	,	27875	,	-33601	,	-30694	,	-4.376075	,	0
48,6	,	27891	,	-33613	,	-30694	,	-4.6638393	,	0
48,6	,	27923	,	-33611	,	-30692	,	-4.895252	,	0
48,6	,	27939	,	-33617	,	-30695	,	-5.1254554	,	0
48,6	,	27955	,	-33623	,	-30694	,	-5.4246426	,	0
48,6	,	27987	,	-33631	,	-30706	,	-5.9019847	,	0
48,6	,	28003	,	-33621	,	-30708	,	-6.6151633	,	0
48,6	,	28035	,	-33631	,	-30702	,	-7.426692	,	0
48,6	,	28051	,	-33650	,	-30699	,	-8.233826	,	0
48,6	,	28067	,	-33648	,	-30705	,	-9.19127	,	0
48,6	,	28099	,	-33647	,	-30723	,	-10.398706	,	0
48,7	,	28115	,	-33657	,	-30718	,	-11.688682	,	0
48,7	,	28131	,	-33661	,	-30709	,	-12.880384	,	0
48,7	,	28163	,	-33641	,	-30704	,	-13.803366	,	0
48,7	,	28179	,	-33639	,	-30708	,	-14.067255	,	0
48,7	,	28218	,	-33623	,	-30706	,	-13.187581	,	0
48,7	,	28227	,	-33631	,	-30715	,	-10.943064	,	0
48,7	,	28243	,	-33616	,	-30714	,	-7.5180144	,	2
48,7	,	28275	,	-33634	,	-30706	,	-3.4182296	,	5
48,7	,	28291	,	-33625	,	-30701	,	0.665545	,	9
48,7	,	28307	,	-33626	,	-30705	,	4.114835	,	13
48,7	,	28339	,	-33618	,	-30700	,	6.646569	,	16
48,7	,	28355	,	-33615	,	-30706	,	8.302523	,	18
48,7	,	28371	,	-33625	,	-30709	,	9.225249	,	19
48,7	,	28403	,	-33631	,	-30709	,	9.416569	,	19
48,7	,	28419	,	-33621	,	-30710	,	8.8115635	,	19
48,7	,	28451	,	-33620	,	-30711	,	7.5745215	,	17
48,7	,	28467	,	-33619	,	-30702	,	6.071779	,	14
48,7	,	28483	,	-33610	,	-30712	,	4.6567745	,	10
48,7	,	28515	,	-33602	,	-30695	,	3.6570833	,	6
48,7	,	28531	,	-33616	,	-30701	,	3.2839572	,	3
48,7	,	28547	,	-33606	,	-30704	,	3.438098	,	1
48,7	,	28579	,	-33618	,	-30711	,	3.8145337	,	0
48,7	,	28595	,	-33618	,	-30708	,	4.0820837	,	0
48,7	,	28611	,	-33619	,	-30716	,	3.97151	,	0
48,7	,	28643	,	-33626	,	-30705	,	3.3664687	,	0
48,7	,	28659	,	-33629	,	-30711	,	2.26267	,	0
48,7	,	28691	,	-33632	,	-30705	,	0.71842635	,	0
48,7	,	28707	,	-33636	,	-30704	,	-1.1297052	,	0
48,7	,	28723	,	-33633	,	-30714	,	-3.0782852	,	0
48,7	,	28755	,	-33629	,	-30712	,	-4.849196	,	0
48,7	,	28771	,	-33643	,	-30703	,	-6.201116	,	0
48,7	,	28787	,	-33638	,	-30708	,	-7.101864	,	0
48,7	,	28819	,	-33643	,	-30714	,	-7.640642	,	0
48,7	,	28835	,	-33634	,	-30702	,	-7.842077	,	0
48,7	,	28867	,	-33646	,	-30713	,	-7.685135	,	0
48,7	,	28883	,	-33650	,	-30715	,	-7.2688103	,	0
48,7	,	28899	,	-33667	,	-30704	,	-6.902322	,	0
48,7	,	28931	,	-33663	,	-30711	,	-6.9547234	,	0
48,7	,	28946	,	-33648	,	-30709	,	-7.48267	,	0
48,7	,	28962	,	-33663	,	-30720	,	-8.131435	,	0
48,7	,	28995	,	-33666	,	-30710	,	-8.592777	,	0
48,7	,	29011	,	-33671	,	-30718	,	-8.876288	,	0
48,7	,	29027	,	-33682	,	-30725	,	-9.141933	,	0
48,7	,	29059	,	-33681	,	-30722	,	-9.552849	,	0
48,7	,	29074	,	-33669	,	-30723	,	-10.081237	,	0
48,8	,	29107	,	-33686	,	-30733	,	-10.473434	,	0
48,8	,	29123	,	-33695	,	-30715	,	-10.639291	,	0
48,8	,	29139	,	-33698	,	-30725	,	-10.79927	,	0
48,8	,	29171	,	-33703	,	-30720	,	-11.161795	,	0
48,8	,	29187	,	-33712	,	-30732	,	-11.774496	,	0
48,8	,	29203	,	-33703	,	-30746	,	-12.562115	,	0
48,8	,	29234	,	-33687	,	-30722	,	-13.1890545	,	0
48,8	,	29251	,	-33682	,	-30730	,	-13.060089	,	0
48,8	,	29283	,	-33662	,	-30726	,	-11.63139	,	0
48,8	,	29298	,	-33661	,	-30714	,	-8.650483	,	1
48,8	,	29315	,	-33659	,	-30730	,	-4.2921185	,	3
48,8	,	29347	,	-33659	,	-30717	,	0.8292327	,	7
48,8	,	29363	,	-33654	,	-30723	,	5.9314117	,	12
48,8	,	29379	,	-33656	,	-30723	,	10.352506	,	17
48,8	,	29410	,	-33651	,	-30718	,	13.65617	,	21
48,8	,	29427	,	-33644	,	-30705	,	15.694985	,	24
48,8	,	29443	,	-33652	,	-30724	,	16.559265	,	26
48,8	,	29475	,	-33659	,	-30695	,	16.327015	,	26
48,8	,	29490	,	-33671	,	-30708	,	14.940683	,	25
48,8	,	29522	,	-33662	,	-30707	,	12.405167	,	23
48,8	,	29539	,	-33646	,	-30711	,	9.11709	,	19
48,8	,	29555	,	-33636	,	-30708	,	5.918252	,	14
48,8	,	29587	,	-33646	,	-30700	,	3.6085396	,	9
48,8	,	29603	,	-33628	,	-30705	,	2.500691	,	5
48,8	,	29619	,	-33630	,	-30699	,	2.557083	,	2
48,8	,	29650	,	-33638	,	-30703	,	3.528158	,	0
48,8	,	29667	,	-33632	,	-30691	,	4.9149203	,	0
48,8	,	29699	,	-33632	,	-30717	,	6.222287	,	1
48,8	,	29715	,	-33646	,	-30692	,	7.115438	,	2
48,8	,	29730	,	-33630	,	-30699	,	7.364678	,	2
48,8	,	29762	,	-33640	,	-30693	,	6.9590025	,	2
48,8	,	29778	,	-33644	,	-30697	,	6.0356913	,	2
48,8	,	29794	,	-33652	,	-30704	,	4.644795	,	2
48,8	,	29826	,	-33639	,	-30704	,	2.8516657	,	2
48,8	,	29842	,	-33642	,	-30695	,	0.94172907	,	2
48,8	,	29874	,	-33651	,	-30709	,	-0.75812364	,	2
48,8	,	29890	,	-33656	,	-30708	,	-2.1867716	,	1
48,8	,	29906	,	-33638	,	-30715	,	-3.3858745	,	0
48,8	,	29938	,	-33650	,	-30724	,	-4.2094398	,	0
48,8	,	29954	,	-33645	,	-30694	,	-4.510975	,	0
48,8	,	29971	,	-33639	,	-30714	,	-4.30359	,	0
48,8	,	30002	,	-33649	,	-30707	,	-3.660511	,	0
48,8	,	30018	,	-33656	,	-30712	,	-2.8047795	,	0
48,8	,	30034	,	-33655	,	-30710	,	-2.106784	,	0
48,8	,	30066	,	-33642	,	-30709	,	-1.742777	,	0
48,8	,	30082	,	-33660	,	-30704	,	-1.611545	,	0
48,9	,	30114	,	-33657	,	-30708	,	-1.6617308	,	0
48,9	,	30130	,	-33644	,	-30703	,	-1.8861852	,	0
48,9	,	30146	,	-33654	,	-30711	,	-2.0949275	,	0
48,9	,	30178	,	-33666	,	-30729	,	-2.1844893	,	0
48,9	,	30194	,	-33656	,	-30698	,	-2.318989	,	0
48,9	,	30210	,	-33674	,	-30708	,	-2.6631749	,	0
48,9	,	30242	,	-33672	,	-30710	,	-3.3149338	,	0
48,9	,	30259	,	-33677	,	-30724	,	-4.3253145	,	0
48,9	,	30290	,	-33674	,	-30715	,	-5.582205	,	0
48,9	,	30306	,	-33681	,	-30727	,	-6.859819	,	0
48,9	,	30322	,	-33686	,	-30714	,	-8.000238	,	0
48,9	,	30354	,	-33665	,	-30714	,	-8.862196	,	0
48,9	,	30370	,	-33657	,	-30709	,	-9.0776615	,	0
48,9	,	30386	,	-33645	,	-30710	,	-8.153397	,	0
48,9	,	30418	,	-33639	,	-30726	,	-5.8312187	,	0
48,9	,	30434	,	-33634	,	-30706	,	-2.2349682	,	2
48,9	,	30450	,	-33638	,	-30716	,	2.1538155	,	5
48,9	,	30482	,	-33640	,	-30705	,	6.599639	,	9
48,9	,	30498	,	-33631	,	-30708	,	10.38835	,	13
48,9	,	30530	,	-33637	,	-30692	,	13.092549	,	16
48,9	,	30546	,	-33636	,	-30692	,	14.542656	,	18
48,9	,	30562	,	-33631	,	-30706	,	14.754238	,	19
48,9	,	30594	,	-33632	,	-30711	,	13.954029	,	19
48,9	,	30610	,	-33635	,	-30709	,	12.451342	,	19
48,9	,	30626	,	-33627	,	-30700	,	10.527416	,	17
48,9	,	30658	,	-33631	,	-30714	,	8.472176	,	14
48,9	,	30674	,	-33622	,	-30700	,	6.5662503	,	10
48,9	,	30706	,	-33619	,	-30697	,	5.0630794	,	6
48,9	,	30722	,	-33620	,	-30700	,	4.146592	,	3
48,9	,	30738	,	-33614	,	-30702	,	3.8372288	,	1
48,9	,	30770	,	-33608	,	-30695	,	4.0613136	,	0
48,9	,	30786	,	-33608	,	-30689	,	4.7414017	,	0
48,9	,	30802	,	-33609	,	-30698	,	5.71891	,	0
48,9	,	30834	,	-33620	,	-30694	,	6.6712346	,	0
48,9	,	30850	,	-33616	,	-30690	,	7.196449	,	0
48,9	,	30866	,	-33617	,	-30697	,	7.058337	,	0
48,9	,	30898	,	-33634	,	-30704	,	6.2176604	,	0
48,9	,	30914	,	-33614	,	-30685	,	4.720291	,	0
48,9	,	30946	,	-33632	,	-30704	,	2.7861466	,	0
48,9	,	30962	,	-33637	,	-30702	,	0.66501975	,	0
48,9	,	30978	,	-33641	,	-30705	,	-1.5873148	,	0
48,9	,	31010	,	-33638	,	-30705	,	-3.9074054	,	0
48,9	,	31026	,	-33637	,	-30701	,	-6.045964	,	0
48,9	,	31042	,	-33638	,	-30706	,	-7.6898947	,	0
48,9	,	31074	,	-33638	,	-30712	,	-8.637939	,	0
48,9	,	31090	,	-33640	,	-30692	,	-8.86132	,	0
48,10	,	31122	,	-33635	,	-30704	,	-8.444654	,	0
48,10	,	31138	,	-33637	,	-30722	,	-7.506341	,	0
48,10	,	31154	,	-33647	,	-30693	,	-6.241381	,	0
48,10	,	31186	,	-33645	,	-30713	,	-4.9716253	,	1
48,10	,	31202	,	-33658	,	-30706	,	-4.0308113	,	2
48,10	,	31218	,	-33663	,	-30714	,	-3.6855047	,	2
48,10	,	31250	,	-33657	,	-30710	,	-4.0468483	,	2
48,10	,	31266	,	-33668	,	-30717	,	-4.9645214	,	2
48,10	,	31282	,	-33669	,	-30708	,	-6.190007	,	2
48,10	,	31314	,	-33667	,	-30708	,	-7.513889	,	2
48,10	,	31330	,	-33670	,	-30715	,	-8.703657	,	2
48,10	,	31362	,	-33678	,	-30715	,	-9.586585	,	2
48,10	,	31378	,	-33666	,	-30739	,	-10.107625	,	1
48,10	,	31394	,	-33661	,	-30706	,	-10.138513	,	0
48,10	,	31426	,	-33634	,	-30717	,	-9.333932	,	0
48,10	,	31442	,	-33620	,	-30711	,	-7.202597	,	0
48,10	,	31458	,	-33618	,	-30715	,	-3.4390125	,	2
48,10	,	31490	,	-33619	,	-30710	,	1.6775398	,	5
48,10	,	31506	,	-33614	,	-30709	,	7.339838	,	10
48,10	,	31538	,	-33602	,	-30703	,	12.703749	,	15
48,10	,	31554	,	-33595	,	-30703	,	17.266504	,	20
48,10	,	31570	,	-33590	,	-30698	,	20.844543	,	24
48,10	,	31602	,	-33579	,	-30692	,	23.408083	,	27
48,10	,	31618	,	-33604	,	-30701	,	24.903572	,	29
48,10	,	31634	,	-33598	,	-30678	,	25.074673	,	30
48,10	,	31666	,	-33592	,	-30702	,	23.723988	,	28
48,10	,	31682	,	-33582	,	-30692	,	21.141033	,	25
48,10	,	31698	,	-33579	,	-30693	,	17.996292	,	20
48,10	,	31730	,	-33579	,	-30687	,	14.929386	,	15
48,10	,	31746	,	-33592	,	-30680	,	12.237269	,	10
48,10	,	31778	,	-33580	,	-30689	,	9.879669	,	6
48,10	,	31794	,	-33552	,	-30689	,	7.944034	,	3
48,10	,	31809	,	-33574	,	-30687	,	6.8009324	,	1
48,10	,	31842	,	-33579	,	-30681	,	6.4771247	,	0
48,10	,	31858	,	-33581	,	-30704	,	6.445511	,	0
48,10	,	31874	,	-33567	,	-30677	,	6.249898	,	0
48,10	,	31906	,	-33575	,	-30694	,	5.841837	,	0
48,10	,	31922	,	-33568	,	-30689	,	5.3384285	,	0
48,10	,	31954	,	-33576	,	-30680	,	4.7976227	,	0
48,10	,	31970	,	-33582	,	-30691	,	4.158947	,	0
48,10	,	31986	,	-33577	,	-30682	,	3.3029885	,	0
48,10	,	32018	,	-33552	,	-30688	,	2.3604066	,	0
48,10	,	32034	,	-33568	,	-30688	,	1.7670162	,	0
48,10	,	32050	,	-33581	,	-30693	,	1.676834	,	0
48,10	,	32082	,	-33559	,	-30695	,	1.7951351	,	0
48,10	,	32098	,	-33588	,	-30711	,	1.8494358	,	0
48,11	,	32114	,	-33577	,	-30680	,	1.6407013	,	0
48,11	,	32146	,	-33586	,	-30690	,	0.9981547	,	0
48,11	,	32162	,	-33589	,	-30686	,	-0.0804891	,	0
48,11	,	32193	,	-33579	,	-30700	,	-1.4519271	,	0
48,11	,	32209	,	-33586	,	-30687	,	-2.844574	,	0
48,11	,	32225	,	-33579	,	-30699	,	-3.964604	,	0
48,11	,	32258	,	-33591	,	-30691	,	-4.666682	,	0
48,11	,	32274	,	-33590	,	-30699	,	-5.002983	,	0
48,11	,	32290	,	-33607	,	-30691	,	-5.203876	,	0
48,11	,	32322	,	-33591	,	-30695	,	-5.517609	,	0
48,11	,	32337	,	-33588	,	-30715	,	-5.9135804	,	0
48,11	,	32369	,	-33605	,	-30685	,	-6.162793	,	0
48,11	,	32385	,	-33610	,	-30707	,	-6.283884	,	0
48,11	,	32401	,	-33614	,	-30706	,	-6.537568	,	0
48,11	,	32434	,	-33611	,	-30701	,	-7.060403	,	0
48,11	,	32450	,	-33600	,	-30706	,	-7.6854696	,	0
48,11	,	32466	,	-33584	,	-30702	,	-7.939226	,	0
48,11	,	32497	,	-33569	,	-30692	,	-7.1942806	,	0
48,11	,	32513	,	-33563	,	-30688	,	-4.9882	,	0
48,11	,	32529	,	-33564	,	-30688	,	-1.3417542	,	2
48,11	,	32561	,	-33551	,	-30685	,	3.2472117	,	5
48,11	,	32577	,	-33545	,	-30709	,	8.163033	,	9
48,11	,	32610	,	-33546	,	-30666	,	12.875894	,	13
48,11	,	32626	,	-33541	,	-30682	,	16.890564	,	17
48,11	,	32642	,	-33528	,	-30675	,	19.867582	,	21
48,11	,	32673	,	-33539	,	-30668	,	21.720942	,	23
48,11	,	32689	,	-33523	,	-30677	,	22.471416	,	24
48,11	,	32705	,	-33522	,	-30672	,	22.26096	,	24
48,11	,	32737	,	-33532	,	-30674	,	21.317005	,	22
48,11	,	32753	,	-33525	,	-30676	,	19.733707	,	19
48,11	,	32785	,	-33523	,	-30673	,	17.592133	,	15
48,11	,	32802	,	-33515	,	-30677	,	15.169128	,	11
48,11	,	32818	,	-33509	,	-30687	,	12.86613	,	7
48,11	,	32849	,	-33507	,	-30666	,	11.037016	,	3
48,11	,	32865	,	-33520	,	-30665	,	9.769321	,	1
48,11	,	32881	,	-33504	,	-30676	,	8.870544	,	0
48,11	,	32913	,	-33508	,	-30665	,	8.17971	,	0
48,11	,	32929	,	-33513	,	-30661	,	7.6333146	,	0
48,11	,	32945	,	-33484	,	-30668	,	7.216953	,	0
48,11	,	32977	,	-33489	,	-30664	,	7.13957	,	0
48,11	,	32993	,	-33495	,	-30663	,	7.5785723	,	0
48,11	,	33025	,	-33504	,	-30661	,	8.255304	,	0
48,11	,	33041	,	-33488	,	-30673	,	8.699117	,	0
48,11	,	33057	,	-33506	,	-30686	,	8.670811	,	0
48,11	,	33089	,	-33493	,	-30652	,	8.125623	,	0
48,12	,	33105	,	-33504	,	-30661	,	7.108947	,	0
48,12	,	33121	,	-33509	,	-30652	,	5.698137	,	0
48,12	,	33153	,	-33516	,	-30659	,	3.8923512	,	0
48,12	,	33169	,	-33506	,	-30664	,	1.7356913	,	0
48,12	,	33201	,	-33506	,	-30665	,	-0.491709	,	0
48,12	,	33217	,	-33512	,	-30658	,	-2.4185743	,	0
48,12	,	33233	,	-33504	,	-30666	,	-3.822672	,	0
48,12	,	33265	,	-33507	,	-30666	,	-4.612277	,	0
48,12	,	33281	,	-33499	,	-30669	,	-4.744062	,	0
48,12	,	33297	,	-33526	,	-30688	,	-4.350067	,	0
48,12	,	33329	,	-33529	,	-30652	,	-3.9021456	,	0
48,12	,	33345	,	-33513	,	-30671	,	-3.871103	,	0
48,12	,	33361	,	-33538	,	-30665	,	-4.314677	,	0
48,12	,	33393	,	-33536	,	-30674	,	-5.1571236	,	0
48,12	,	33409	,	-33524	,	-30668	,	-6.315082	,	0
48,12	,	33441	,	-33527	,	-30672	,	-7.4398565	,	0
48,12	,	33457	,	-33538	,	-30664	,	-8.164593	,	0
48,12	,	33473	,	-33545	,	-30676	,	-8.495138	,	0
48,12	,	33506	,	-33551	,	-30670	,	-8.712104	,	0
48,12	,	33521	,	-33535	,	-30668	,	-8.982622	,	0
48,12	,	33537	,	-33532	,	-30696	,	-9.107733	,	0
48,12	,	33569	,	-33521	,	-30646	,	-8.672211	,	0
48,12	,	33585	,	-33501	,	-30662	,	-7.273881	,	0
48,12	,	33617	,	-33484	,	-30663	,	-4.550339	,	1
48,12	,	33633	,	-33496	,	-30661	,	-0.41246986	,	3
48,12	,	33649	,	-33475	,	-30656	,	4.6941586	,	7
48,12	,	33681	,	-33468	,	-30657	,	10.120964	,	12
48,12	,	33697	,	-33474	,	-30659	,	15.3276	,	17
48,12	,	33713	,	-33467	,	-30655	,	19.755741	,	22
48,12	,	33745	,	-33481	,	-30653	,	22.843542	,	26
48,12	,	33761	,	-33468	,	-30660	,	24.213686	,	29
48,12	,	33793	,	-33483	,	-30672	,	23.793926	,	30
48,12	,	33809	,	-33491	,	-30642	,	21.711723	,	29
48,12	,	33825	,	-33478	,	-30667	,	18.215761	,	27
48,12	,	33857	,	-33476	,	-30655	,	13.871506	,	23
48,12	,	33873	,	-33467	,	-30651	,	9.500113	,	18
48,12	,	33905	,	-33463	,	-30659	,	5.8483295	,	13
48,12	,	33921	,	-33458	,	-30660	,	3.394155	,	8
48,12	,	33937	,	-33473	,	-30667	,	2.2051845	,	4
48,12	,	33969	,	-33461	,	-30657	,	1.9495645	,	1
48,12	,	33985	,	-33460	,	-30664	,	2.237112	,	0
48,12	,	34001	,	-33468	,	-30667	,	2.8039985	,	0
48,12	,	34033	,	-33485	,	-30691	,	3.283094	,	0
48,12	,	34049	,	-33485	,	-30645	,	3.1617863	,	0
48,12	,	34065	,	-33507	,	-30677	,	2.0402215	,	0
48,12	,	34097	,	-33498	,	-30673	,	-0.20798635	,	0
48,13	,	34113	,	-33493	,	-30672	,	-3.28157	,	0
48,13	,	34145	,	-33479	,	-30678	,	-6.402217	,	0
48,13	,	34161	,	-33509	,	-30672	,	-8.807178	,	0
48,13	,	34177	,	-33492	,	-30668	,	-10.280635	,	0
48,13	,	34209	,	-33489	,	-30664	,	-10.889988	,	0
48,13	,	34225	,	-33499	,	-30678	,	-10.638754	,	0
48,13	,	34241	,	-33505	,	-30668	,	-9.716407	,	0
48,13	,	34273	,	-33503	,	-30676	,	-8.5389595	,	0
48,13	,	34289	,	-33519	,	-30670	,	-7.4881444	,	1
48,13	,	34321	,	-33511	,	-30670	,	-6.8405385	,	2
48,13	,	34337	,	-33523	,	-30684	,	-6.711113	,	2
48,13	,	34353	,	-33536	,	-30690	,	-7.1184506	,	2
48,13	,	34385	,	-33518	,	-30683	,	-8.034051	,	2
48,13	,	34401	,	-33529	,	-30693	,	-9.185386	,	2
48,13	,	34417	,	-33534	,	-30681	,	-10.206399	,	2
48,13	,	34449	,	-33535	,	-30683	,	-10.952353	,	2
48,13	,	34465	,	-33555	,	-30700	,	-11.491983	,	2
48,13	,	34481	,	-33538	,	-30686	,	-11.963957	,	1
48,13	,	34513	,	-33561	,	-30703	,	-12.409065	,	0
48,13	,	34529	,	-33563	,	-30688	,	-12.85854	,	0
48,13	,	34561	,	-33556	,	-30690	,	-13.374637	,	0
48,13	,	34577	,	-33529	,	-30683	,	-13.673494	,	0
48,13	,	34593	,	-33515	,	-30695	,	-13.01557	,	0
48,13	,	34625	,	-33512	,	-30688	,	-10.722649	,	0
48,13	,	34641	,	-33521	,	-30679	,	-6.7869835	,	2
48,13	,	34657	,	-33510	,	-30677	,	-1.8883224	,	5
48,13	,	34689	,	-33499	,	-30679	,	3.1952276	,	9
48,13	,	34705	,	-33492	,	-30690	,	8.010487	,	14
48,13	,	34737	,	-33506	,	-30666	,	12.238796	,	18
48,13	,	34753	,	-33508	,	-30679	,	15.399722	,	22
48,13	,	34769	,	-33512	,	-30676	,	17.006702	,	25
48,13	,	34801	,	-33512	,	-30679	,	16.883339	,	26
48,13	,	34817	,	-33511	,	-30683	,	15.225419	,	26
48,13	,	34833	,	-33504	,	-30670	,	12.521456	,	24
48,13	,	34865	,	-33508	,	-30672	,	9.396168	,	21
48,13	,	34880	,	-33494	,	-30665	,	6.4278946	,	17
48,13	,	34897	,	-33495	,	-30662	,	4.091173	,	12
48,13	,	34929	,	-33494	,	-30673	,	2.6640196	,	8
48,13	,	34945	,	-33480	,	-30690	,	2.1916568	,	4
48,13	,	34977	,	-33488	,	-30655	,	2.6024594	,	1
48,13	,	34993	,	-33500	,	-30671	,	3.5923276	,	0
48,13	,	35009	,	-33503	,	-30669	,	4.548389	,	0
48,13	,	35040	,	-33513	,	-30668	,	4.861897	,	0
48,13	,	35056	,	-33512	,	-30668	,	4.2036505	,	0
48,13	,	35073	,	-33515	,	-30681	,	2.5910082	,	0
48,13	,	35105	,	-33511	,	-30671	,	0.34636164	,	0
48,14	,	35121	,	-33510	,	-30676	,	-2.0416284	,	0
48,14	,	35152	,	-33507	,	-30670	,	-4.084448	,	0
48,14	,	35168	,	-33513	,	-30681	,	-5.4615984	,	0
48,14	,	35184	,	-33527	,	-30710	,	-6.186312	,	0
48,14	,	35217	,	-33525	,	-30680	,	-6.5785165	,	0
48,14	,	35233	,	-33523	,	-30678	,	-6.923648	,	0
48,14	,	35249	,	-33529	,	-30684	,	-7.260743	,	0
48,14	,	35281	,	-33534	,	-30674	,	-7.5584216	,	0
48,14	,	35296	,	-33525	,	-30678	,	-7.8067784	,	0
48,14	,	35313	,	-33539	,	-30677	,	-7.953524	,	0
48,14	,	35345	,	-33547	,	-30678	,	-8.044306	,	0
48,14	,	35361	,	-33539	,	-30679	,	-8.235038	,	0
48,14	,	35392	,	-33531	,	-30689	,	-8.463973	,	0
48,14	,	35408	,	-33533	,	-30684	,	-8.410412	,	0
48,14	,	35424	,	-33543	,	-30711	,	-7.8864126	,	0
48,14	,	35456	,	-33543	,	-30681	,	-7.041748	,	0
48,14	,	35472	,	-33551	,	-30690	,	-6.184538	,	0
48,14	,	35489	,	-33560	,	-30695	,	-5.6183095	,	0
48,14	,	35521	,	-33572	,	-30695	,	-5.6355863	,	0
48,14	,	35537	,	-33576	,	-30692	,	-6.4535522	,	0
48,14	,	35568	,	-33591	,	-30700	,	-8.118147	,	0
48,14	,	35584	,	-33562	,	-30691	,	-10.362567	,	0
48,14	,	35600	,	-33562	,	-30685	,	-12.4573965	,	0
48,14	,	35632	,	-33545	,	-30681	,	-13.483802	,	0
48,14	,	35648	,	-33531	,	-30691	,	-12.767921	,	0
48,14	,	35665	,	-33527	,	-30706	,	-10.0400505	,	0
48,14	,	35696	,	-33519	,	-30670	,	-5.520403	,	2
48,14	,	35712	,	-33513	,	-30685	,	0.16486788	,	6
48,14	,	35729	,	-33507	,	-30682	,	6.2581487	,	11
48,14	,	35760	,	-33509	,	-30685	,	12.0277815	,	17
48,14	,	35776	,	-33511	,	-30687	,	16.793604	,	22
48,14	,	35808	,	-33493	,	-30676	,	20.09438	,	26
48,14	,	35824	,	-33496	,	-30673	,	21.904482	,	29
48,14	,	35840	,	-33495	,	-30674	,	22.454353	,	30
48,14	,	35872	,	-33501	,	-30674	,	21.905807	,	30
48,14	,	35889	,	-33474	,	-30670	,	20.4586	,	28
48,14	,	35904	,	-33482	,	-30692	,	18.575108	,	24
48,14	,	35936	,	-33474	,	-30655	,	16.745855	,	19
48,14	,	35952	,	-33484	,	-30662	,	15.155789	,	13
48,14	,	35984	,	-33470	,	-30664	,	13.75144	,	8
48,14	,	36000	,	-33470	,	-30664	,	12.50387	,	4
48,14	,	36016	,	-33460	,	-30663	,	11.508984	,	1
48,14	,	36048	,	-33488	,	-30661	,	10.755665	,	0
48,14	,	36064	,	-33478	,	-30660	,	9.914305	,	0
48,14	,	36080	,	-33479	,	-30668	,	8.654584	,	0
48,15	,	36112	,	-33475	,	-30663	,	7.0060725	,	0
48,15	,	36128	,	-33468	,	-30658	,	5.254221	,	0
48,15	,	36160	,	-33464	,	-30672	,	3.7561984	,	0
48,15	,	36176	,	-33467	,	-30647	,	2.790451	,	0
48,15	,	36192	,	-33489	,	-30666	,	2.2893586	,	0
48,15	,	36224	,	-33462	,	-30661	,	1.9050648	,	0
48,15	,	36240	,	-33481	,	-30662	,	1.4625252	,	0
48,15	,	36256	,	-33469	,	-30664	,	1.006879	,	0
48,15	,	36288	,	-33470	,	-30669	,	0.603741	,	0
48,15	,	36304	,	-33487	,	-30656	,	0.25979596	,	0
48,15	,	36320	,	-33495	,	-30658	,	-0.25262225	,	0
48,15	,	36352	,	-33492	,	-30657	,	-1.247499	,	0
48,15	,	36368	,	-33491	,	-30655	,	-2.7237291	,	0
48,15	,	36400	,	-33480	,	-30679	,	-4.313658	,	0
48,15	,	36416	,	-33489	,	-30635	,	-5.5545077	,	0
48,15	,	36432	,	-33489	,	-30657	,	-6.2022104	,	0
48,15	,	36464	,	-33500	,	-30664	,	-6.339142	,	0
48,15	,	36480	,	-33504	,	-30661	,	-6.267416	,	0
48,15	,	36496	,	-33489	,	-30668	,	-6.230139	,	0
48,15	,	36528	,	-33507	,	-30669	,	-6.2181654	,	0
48,15	,	36544	,	-33506	,	-30654	,	-6.199109	,	0
48,15	,	36576	,	-33506	,	-30658	,	-6.2497034	,	0
48,15	,	36592	,	-33528	,	-30662	,	-6.473709	,	0
48,15	,	36608	,	-33505	,	-30671	,	-6.9693556	,	0
48,15	,	36640	,	-33514	,	-30696	,	-7.60546	,	0
48,15	,	36656	,	-33517	,	-30645	,	-8.076407	,	0
48,15	,	36672	,	-33496	,	-30648	,	-8.153842	,	0
48,15	,	36704	,	-33494	,	-30663	,	-7.5560923	,	0
48,15	,	36720	,	-33474	,	-30666	,	-5.942436	,	0
48,15	,	36736	,	-33476	,	-30659	,	-3.1541986	,	1
48,15	,	36768	,	-33444	,	-30656	,	0.74721503	,	3
48,15	,	36784	,	-33479	,	-30660	,	5.4498997	,	6
48,15	,	36816	,	-33438	,	-30650	,	10.328399	,	10
48,15	,	36832	,	-33446	,	-30652	,	14.815746	,	14
48,15	,	36848	,	-33443	,	-30652	,	18.611502	,	18
48,15	,	36880	,	-33459	,	-30672	,	21.341549	,	21
48,15	,	36896	,	-33441	,	-30634	,	22.594791	,	23
48,15	,	36912	,	-33465	,	-30649	,	22.229408	,	24
48,15	,	36944	,	-33452	,	-30644	,	20.336647	,	23
48,15	,	36960	,	-33423	,	-30647	,	17.3699	,	21
48,15	,	36992	,	-33421	,	-30647	,	14.308954	,	18
48,15	,	37008	,	-33459	,	-30654	,	11.897534	,	14
48,15	,	37024	,	-33432	,	-30647	,	10.007718	,	10
48,15	,	37056	,	-33445	,	-30640	,	8.28492	,	6
48,15	,	37072	,	-33424	,	-30632	,	6.731156	,	3
48,15	,	37088	,	-33424	,	-30637	,	5.5818543	,	1
48,16	,	37120	,	-33437	,	-30656	,	4.993255	,	0
48,16	,	37136	,	-33436	,	-30623	,	4.7747545	,	0
48,16	,	37152	,	-33447	,	-30636	,	4.5160036	,	0
48,16	,	37184	,	-33446	,	-30643	,	3.8747213	,	0
48,16	,	37200	,	-33444	,	-30642	,	2.7317185	,	0
48,16	,	37232	,	-33457	,	-30641	,	1.1833236	,	0
48,16	,	37248	,	-33451	,	-30636	,	-0.6310618	,	0
48,16	,	37264	,	-33448	,	-30647	,	-2.505178	,	0
48,16	,	37296	,	-33438	,	-30645	,	-4.0603533	,	0
48,16	,	37312	,	-33472	,	-30646	,	-5.051732	,	0
48,16	,	37327	,	-33430	,	-30645	,	-5.5602717	,	0
48,16	,	37360	,	-33457	,	-30673	,	-5.616068	,	0
48,16	,	37376	,	-33456	,	-30635	,	-5.22318	,	0
48,16	,	37408	,	-33463	,	-30659	,	-4.6684895	,	0
48,16	,	37424	,	-33481	,	-30656	,	-4.37648	,	0
48,16	,	37440	,	-33478	,	-30647	,	-4.7236977	,	0
48,16	,	37472	,	-33470	,	-30664	,	-5.7768955	,	0
48,16	,	37488	,	-33483	,	-30660	,	-7.1864953	,	0
48,16	,	37504	,	-33481	,	-30663	,	-8.575099	,	0
48,16	,	37536	,	-33485	,	-30668	,	-9.745188	,	0
48,16	,	37551	,	-33487	,	-30660	,	-10.580478	,	0
48,16	,	37567	,	-33484	,	-30660	,	-11.002304	,	0
48,16	,	37600	,	-33485	,	-30686	,	-10.951302	,	0
48,16	,	37616	,	-33504	,	-30640	,	-10.496914	,	0
48,16	,	37647	,	-33510	,	-30670	,	-9.990218	,	0
48,16	,	37664	,	-33489	,	-30663	,	-9.742603	,	0
48,16	,	37679	,	-33469	,	-30659	,	-9.476517	,	0
48,16	,	37712	,	-33471	,	-30657	,	-8.484619	,	0
48,16	,	37728	,	-33442	,	-30665	,	-6.2354465	,	0
48,16	,	37744	,	-33421	,	-30655	,	-2.4480457	,	2
48,16	,	37776	,	-33428	,	-30657	,	2.9159427	,	5
48,16	,	37791	,	-33409	,	-30659	,	9.378151	,	10
48,16	,	37824	,	-33421	,	-30659	,	16.046595	,	16
48,16	,	37840	,	-33395	,	-30673	,	22.031893	,	22
48,16	,	37856	,	-33401	,	-30626	,	26.765308	,	27
48,16	,	37888	,	-33376	,	-30647	,	30.07852	,	31
48,16	,	37903	,	-33365	,	-30647	,	32.15212	,	34
48,16	,	37919	,	-33402	,	-30649	,	33.165466	,	36
48,16	,	37951	,	-33394	,	-30638	,	32.8079	,	35
48,16	,	37968	,	-33384	,	-30637	,	30.708672	,	32
48,16	,	37984	,	-33381	,	-30637	,	27.14817	,	27
48,16	,	38016	,	-33383	,	-30646	,	22.823326	,	21
48,16	,	38031	,	-33347	,	-30635	,	18.502289	,	15
48,16	,	38063	,	-33346	,	-30653	,	15.070197	,	10
48,16	,	38079	,	-33361	,	-30662	,	13.106293	,	6
48,16	,	38095	,	-33352	,	-30617	,	12.402495	,	3
48,17	,	38127	,	-33368	,	-30633	,	12.288235	,	1
48,17	,	38143	,	-33347	,	-30631	,	12.171189	,	0
48,17	,	38159	,	-33367	,	-30639	,	11.745026	,	0
48,17	,	38191	,	-33376	,	-30639	,	10.799083	,	0
48,17	,	38207	,	-33345	,	-30636	,	9.20892	,	0
48,17	,	38239	,	-33366	,	-30639	,	7.2579756	,	0
48,17	,	38255	,	-33366	,	-30634	,	5.3228354	,	0
48,17	,	38271	,	-33357	,	-30644	,	3.5185404	,	0
48,17	,	38303	,	-33374	,	-30646	,	1.890049	,	0
48,17	,	38319	,	-33366	,	-30678	,	0.42711878	,	0
48,17	,	38335	,	-33388	,	-30629	,	-0.99268985	,	0
48,17	,	38367	,	-33375	,	-30651	,	-2.499633	,	0
48,17	,	38384	,	-33370	,	-30642	,	-4.0192437	,	0
48,17	,	38399	,	-33388	,	-30649	,	-5.295821	,	0
48,17	,	38431	,	-33370	,	-30656	,	-6.194005	,	0
48,17	,	38447	,	-33387	,	-30654	,	-6.694461	,	0
48,17	,	38479	,	-33367	,	-30644	,	-6.769088	,	0
48,17	,	38495	,	-33361	,	-30654	,	-6.2919254	,	0
48,17	,	38511	,	-33395	,	-30654	,	-5.2185516	,	0
48,17	,	38543	,	-33379	,	-30662	,	-3.9512892	,	1
48,17	,	38560	,	-33396	,	-30688	,	-3.0290408	,	2
48,17	,	38575	,	-33400	,	-30639	,	-2.7545478	,	2
48,17	,	38607	,	-33404	,	-30652	,	-3.2720892	,	2
48,17	,	38623	,	-33399	,	-30655	,	-4.4918404	,	2
48,17	,	38655	,	-33405	,	-30661	,	-6.060747	,	2
48,17	,	38671	,	-33429	,	-30662	,	-7.7154374	,	2
48,17	,	38687	,	-33401	,	-30672	,	-9.400436	,	2
48,17	,	38719	,	-33411	,	-30664	,	-10.868275	,	2
48,17	,	38735	,	-33424	,	-30665	,	-11.768216	,	1
48,17	,	38751	,	-33407	,	-30661	,	-12.040349	,	0
48,17	,	38783	,	-33400	,	-30659	,	-11.645206	,	0
48,17	,	38799	,	-33387	,	-30675	,	-10.332564	,	0
48,17	,	38815	,	-33356	,	-30634	,	-7.7651567	,	1
48,17	,	38847	,	-33292	,	-30644	,	-3.3442125	,	3
48,17	,	38863	,	-33335	,	-30643	,	3.4835696	,	7
48,17	,	38895	,	-33324	,	-30643	,	12.108732	,	13
48,17	,	38911	,	-33312	,	-30628	,	20.88102	,	21
48,17	,	38927	,	-33309	,	-30641	,	28.407757	,	29
48,17	,	38959	,	-33312	,	-30635	,	33.91299	,	36
48,17	,	38975	,	-33306	,	-30632	,	36.97412	,	41
48,17	,	38991	,	-33303	,	-30635	,	37.550243	,	44
48,17	,	39023	,	-33300	,	-30644	,	35.99051	,	43
48,17	,	39039	,	-33286	,	-30667	,	32.917274	,	41
48,17	,	39071	,	-33275	,	-30605	,	29.149805	,	37
48,17	,	39087	,	-33281	,	-30625	,	25.46823	,	31
48,17	,	39103	,	-33284	,	-30628	,	22.233704	,	23
48,18	,	39135	,	-33255	,	-30629	,	19.506208	,	15
48,18	,	39151	,	-33257	,	-30627	,	17.487316	,	8
48,18	,	39167	,	-33266	,	-30624	,	16.32455	,	3
48,18	,	39199	,	-33256	,	-30622	,	15.749306	,	0
48,18	,	39215	,	-33255	,	-30629	,	15.374882	,	0
48,18	,	39247	,	-33268	,	-30621	,	14.920927	,	0
48,18	,	39263	,	-33250	,	-30623	,	14.1504345	,	0
48,18	,	39279	,	-33269	,	-30655	,	12.966333	,	0
48,18	,	39311	,	-33260	,	-30608	,	11.366293	,	0
48,18	,	39327	,	-33278	,	-30640	,	9.318177	,	0
48,18	,	39343	,	-33266	,	-30627	,	6.831806	,	0
48,18	,	39375	,	-33271	,	-30631	,	4.0902357	,	0
48,18	,	39391	,	-33276	,	-30639	,	1.3953567	,	0
48,18	,	39407	,	-33281	,	-30635	,	-1.0646632	,	0
48,18	,	39439	,	-33288	,	-30638	,	-3.2747452	,	0
48,18	,	39455	,	-33293	,	-30638	,	-5.2986836	,	0
48,18	,	39487	,	-33299	,	-30635	,	-7.208887	,	0
48,18	,	39503	,	-33270	,	-30638	,	-8.876572	,	0
48,18	,	39519	,	-33286	,	-30662	,	-9.864958	,	0
48,18	,	39551	,	-33318	,	-30625	,	-10.022052	,	0
48,18	,	39567	,	-33299	,	-30652	,	-9.852205	,	0
48,18	,	39583	,	-33290	,	-30640	,	-9.733574	,	0
48,18	,	39615	,	-33299	,	-30657	,	-9.477629	,	0
48,18	,	39631	,	-33285	,	-30651	,	-8.81935	,	0
48,18	,	39663	,	-33287	,	-30647	,	-7.636646	,	0
48,18	,	39679	,	-33299	,	-30651	,	-5.979183	,	1
48,18	,	39695	,	-33311	,	-30658	,	-4.247356	,	2
48,18	,	39727	,	-33310	,	-30664	,	-3.017679	,	3
48,18	,	39743	,	-33326	,	-30669	,	-2.6840749	,	4
48,18	,	39759	,	-33322	,	-30682	,	-3.367922	,	4
48,18	,	39791	,	-33331	,	-30654	,	-4.9262314	,	4
48,18	,	39807	,	-33323	,	-30669	,	-6.975147	,	4
48,18	,	39823	,	-33297	,	-30651	,	-8.871843	,	4
48,18	,	39855	,	-33296	,	-30644	,	-9.765741	,	4
48,18	,	39871	,	-33287	,	-30643	,	-9.037651	,	3
48,18	,	39903	,	-33274	,	-30651	,	-6.587754	,	2
48,18	,	39919	,	-33281	,	-30644	,	-2.7161698	,	3
48,18	,	39935	,	-33279	,	-30650	,	1.9284449	,	5
48,18	,	39967	,	-33270	,	-30646	,	6.54583	,	9
48,18	,	39983	,	-33263	,	-30641	,	10.585469	,	13
48,18	,	39999	,	-33258	,	-30663	,	13.840159	,	17
48,18	,	40030	,	-33267	,	-30648	,	16.206535	,	20
48,18	,	40047	,	-33260	,	-30650	,	17.530243	,	22
48,18	,	40079	,	-33259	,	-30650	,	17.747787	,	23
48,18	,	40095	,	-33257	,	-30640	,	17.010496	,	23
48,19	,	40111	,	-33260	,	-30637	,	15.565511	,	21
48,19	,	40143	,	-33261	,	-30634	,	13.620306	,	18
48,19	,	40159	,	-33261	,	-30644	,	11.336003	,	14
48,19	,	40174	,	-33240	,	-30636	,	8.984163	,	10
48,19	,	40206	,	-33242	,	-30646	,	7.0409985	,	6
48,19	,	40222	,	-33250	,	-30650	,	5.848517	,	3
48,19	,	40239	,	-33240	,	-30661	,	5.334921	,	1
48,19	,	40271	,	-33251	,	-30630	,	5.2295694	,	0
48,19	,	40287	,	-33257	,	-30643	,	5.2021594	,	0
48,19	,	40318	,	-33233	,	-30643	,	4.9956064	,	0
48,19	,	40334	,	-33242	,	-30641	,	4.6955485	,	0
48,19	,	40350	,	-33278	,	-30643	,	4.330842	,	0
48,19	,	40382	,	-33258	,	-30644	,	3.4800084	,	0
48,19	,	40398	,	-33274	,	-30656	,	1.8358011	,	0
48,19	,	40414	,	-33268	,	-30649	,	-0.44091725	,	0
48,19	,	40447	,	-33280	,	-30651	,	-3.021221	,	0
48,19	,	40463	,	-33292	,	-30664	,	-5.675317	,	0
48,19	,	40494	,	-33280	,	-30676	,	-8.27574	,	0
48,19	,	40510	,	-33276	,	-30657	,	-10.530852	,	0
48,19	,	40526	,	-33281	,	-30654	,	-12.004511	,	0
48,19	,	40558	,	-33295	,	-30661	,	-12.54849	,	0
48,19	,	40574	,	-33285	,	-30655	,	-12.387331	,	0
48,19	,	40590	,	-33290	,	-30664	,	-11.759679	,	0
48,19	,	40622	,	-33298	,	-30658	,	-10.819101	,	0
48,19	,	40638	,	-33308	,	-30653	,	-9.838947	,	0
48,19	,	40654	,	-33320	,	-30667	,	-9.220802	,	0
48,19	,	40686	,	-33308	,	-30663	,	-9.229687	,	0
48,19	,	40703	,	-33313	,	-30663	,	-9.73368	,	0
48,19	,	40734	,	-33325	,	-30677	,	-10.401133	,	0
48,19	,	40750	,	-33307	,	-30653	,	-11.001413	,	0
48,19	,	40766	,	-33313	,	-30666	,	-11.277912	,	0
48,19	,	40798	,	-33317	,	-30664	,	-10.991897	,	0
48,19	,	40814	,	-33324	,	-30666	,	-10.200403	,	0
48,19	,	40830	,	-33329	,	-30667	,	-9.208904	,	0
48,19	,	40862	,	-33339	,	-30669	,	-8.37747	,	0
48,19	,	40878	,	-33323	,	-30657	,	-7.919875	,	0
48,19	,	40910	,	-33318	,	-30665	,	-7.676453	,	0
48,19	,	40926	,	-33276	,	-30667	,	-7.036687	,	0
48,19	,	40942	,	-33250	,	-30658	,	-5.027603	,	0
48,19	,	40974	,	-33279	,	-30672	,	-0.97465634	,	2
48,19	,	40990	,	-33282	,	-30651	,	4.587928	,	6
48,19	,	41006	,	-33250	,	-30652	,	10.370255	,	11
48,19	,	41038	,	-33258	,	-30651	,	15.530643	,	16
48,19	,	41054	,	-33256	,	-30637	,	19.709711	,	21
48,19	,	41070	,	-33247	,	-30637	,	22.610588	,	25
48,19	,	41102	,	-33254	,	-30640	,	24.084646	,	27
48,20	,	41118	,	-33261	,	-30641	,	24.105679	,	28
48,20	,	41150	,	-33262	,	-30630	,	22.66045	,	28
48,20	,	41166	,	-33242	,	-30628	,	19.981102	,	26
48,20	,	41182	,	-33241	,	-30644	,	16.71465	,	22
48,20	,	41215	,	-33228	,	-30656	,	13.651714	,	17
48,20	,	41230	,	-33237	,	-30628	,	11.328164	,	12
48,20	,	41246	,	-33250	,	-30632	,	9.7635	,	7
48,20	,	41278	,	-33222	,	-30624	,	8.647761	,	3
48,20	,	41294	,	-33220	,	-30622	,	7.925295	,	1
48,20	,	41326	,	-33234	,	-30617	,	7.730524	,	0
48,20	,	41342	,	-33202	,	-30625	,	8.002609	,	0
48,20	,	41358	,	-33235	,	-30616	,	8.583694	,	0
48,20	,	41390	,	-33262	,	-30613	,	8.977491	,	0
48,20	,	41406	,	-33248	,	-30628	,	8.309673	,	0
48,20	,	41422	,	-33266	,	-30627	,	6.132975	,	0
48,20	,	41454	,	-33244	,	-30638	,	2.7595563	,	0
48,20	,	41470	,	-33253	,	-30632	,	-1.0483601	,	0
48,20	,	41486	,	-33266	,	-30635	,	-4.5639277	,	0
48,20	,	41518	,	-33258	,	-30633	,	-7.464553	,	0
48,20	,	41534	,	-33271	,	-30623	,	-9.671954	,	0
48,20	,	41566	,	-33269	,	-30629	,	-11.185909	,	0
48,20	,	41582	,	-33265	,	-30632	,	-12.049243	,	0
48,20	,	41598	,	-33277	,	-30635	,	-12.286146	,	0
48,20	,	41630	,	-33269	,	-30638	,	-11.982628	,	0
48,20	,	41646	,	-33284	,	-30642	,	-11.311983	,	0
48,20	,	41662	,	-33272	,	-30639	,	-10.465908	,	0
48,20	,	41694	,	-33305	,	-30650	,	-9.679638	,	0
48,20	,	41710	,	-33297	,	-30632	,	-9.296833	,	0
48,20	,	41742	,	-33292	,	-30648	,	-9.500472	,	0
48,20	,	41758	,	-33294	,	-30643	,	-10.030329	,	0
48,20	,	41774	,	-33304	,	-30639	,	-10.51372	,	0
48,20	,	41806	,	-33302	,	-30650	,	-10.818022	,	0
48,20	,	41822	,	-33297	,	-30641	,	-10.896835	,	0
48,20	,	41838	,	-33312	,	-30646	,	-10.68107	,	0
48,20	,	41870	,	-33330	,	-30652	,	-10.342854	,	0
48,20	,	41886	,	-33314	,	-30642	,	-10.2493105	,	0
48,20	,	41902	,	-33315	,	-30645	,	-10.4417305	,	0
48,20	,	41934	,	-33322	,	-30668	,	-10.614306	,	0
48,20	,	41950	,	-33338	,	-30652	,	-10.639546	,	0
48,20	,	41982	,	-33317	,	-30659	,	-10.620638	,	0
48,20	,	41998	,	-33298	,	-30654	,	-10.361578	,	0
48,20	,	42014	,	-33276	,	-30650	,	-9.184896	,	0
48,20	,	42046	,	-33284	,	-30637	,	-6.4874043	,	1
48,20	,	42062	,	-33251	,	-30633	,	-2.2091827	,	3
48,20	,	42078	,	-33247	,	-30625	,	3.3736076	,	7
48,21	,	42110	,	-33259	,	-30633	,	9.7402115	,	12
48,21	,	42126	,	-33243	,	-30635	,	15.993184	,	18
48,21	,	42157	,	-33247	,	-30626	,	21.237015	,	24
48,21	,	42174	,	-33228	,	-30632	,	24.996517	,	29
48,21	,	42190	,	-33235	,	-30618	,	27.202274	,	32
48,21	,	42222	,	-33234	,	-30626	,	27.94595	,	34
48,21	,	42238	,	-33237	,	-30620	,	27.291471	,	33
48,21	,	42254	,	-33241	,	-30623	,	25.3209	,	31
48,21	,	42286	,	-33232	,	-30607	,	22.256203	,	27
48,21	,	42302	,	-33240	,	-30607	,	18.495346	,	22
48,21	,	42318	,	-33215	,	-30605	,	14.574758	,	16
48,21	,	42350	,	-33219	,	-30610	,	11.128314	,	10
48,21	,	42366	,	-33211	,	-30610	,	8.669785	,	5
48,21	,	42398	,	-33219	,	-30610	,	7.3126698	,	2
48,21	,	42414	,	-33223	,	-30616	,	6.762516	,	0
48,21	,	42430	,	-33236	,	-30612	,	6.4706235	,	0
48,21	,	42462	,	-33218	,	-30611	,	5.9446898	,	0
48,21	,	42478	,	-33212	,	-30597	,	5.140229	,	0
48,21	,	42494	,	-33244	,	-30604	,	4.24907	,	0
48,21	,	42526	,	-33259	,	-30619	,	3.0344324	,	0
48,21	,	42542	,	-33243	,	-30618	,	1.0236788	,	0
48,21	,	42574	,	-33239	,	-30616	,	-1.675958	,	0
48,21	,	42590	,	-33257	,	-30621	,	-4.4690375	,	0
48,21	,	42606	,	-33251	,	-30610	,	-6.9477396	,	0
48,21	,	42638	,	-33262	,	-30630	,	-8.983741	,	0
48,21	,	42654	,	-33265	,	-30614	,	-10.558054	,	0
48,21	,	42670	,	-33258	,	-30615	,	-11.6843605	,	0
48,21	,	42702	,	-33259	,	-30627	,	-12.2642975	,	0
48,21	,	42718	,	-33259	,	-30623	,	-12.15182	,	0
48,21	,	42734	,	-33280	,	-30626	,	-11.445984	,	0
48,21	,	42765	,	-33267	,	-30622	,	-10.51692	,	0
48,21	,	42781	,	-33287	,	-30625	,	-9.704694	,	0
48,21	,	42813	,	-33284	,	-30622	,	-9.216867	,	0
48,21	,	42830	,	-33280	,	-30619	,	-9.119322	,	0
48,21	,	42846	,	-33295	,	-30625	,	-9.291588	,	0
48,21	,	42878	,	-33302	,	-30642	,	-9.669483	,	0
48,21	,	42893	,	-33295	,	-30635	,	-10.285238	,	0
48,21	,	42909	,	-33300	,	-30632	,	-10.997684	,	0
48,21	,	42941	,	-33295	,	-30641	,	-11.519611	,	0
48,21	,	42957	,	-33308	,	-30630	,	-11.659523	,	0
48,21	,	42989	,	-33315	,	-30632	,	-11.491562	,	0
48,21	,	43006	,	-33314	,	-30637	,	-11.26911	,	0
48,21	,	43022	,	-33328	,	-30644	,	-11.187099	,	0
48,21	,	43053	,	-33331	,	-30650	,	-11.371824	,	0
48,21	,	43069	,	-33336	,	-30649	,	-11.903343	,	0
48,21	,	43085	,	-33313	,	-30640	,	-12.602457	,	0
48,22	,	43117	,	-33303	,	-30638	,	-12.880081	,	0
48,22	,	43134	,	-33288	,	-30626	,	-11.98675	,	0
48,22	,	43165	,	-33293	,	-30629	,	-9.506142	,	0
48,22	,	43181	,	-33296	,	-30631	,	-5.6712837	,	2
48,22	,	43197	,	-33281	,	-30633	,	-1.1709638	,	5
48,22	,	43229	,	-33284	,	-30630	,	3.3472304	,	9
48,22	,	43245	,	-33273	,	-30639	,	7.462321	,	13
48,22	,	43261	,	-33278	,	-30621	,	10.89353	,	17
48,22	,	43293	,	-33268	,	-30622	,	13.464018	,	20
48,22	,	43310	,	-33281	,	-30624	,	15.062295	,	22
48,22	,	43326	,	-33299	,	-30620	,	15.478008	,	23
48,22	,	43357	,	-33270	,	-30640	,	14.520551	,	23
48,22	,	43373	,	-33273	,	-30621	,	12.507591	,	21
48,22	,	43405	,	-33270	,	-30619	,	10.149588	,	18
48,22	,	43421	,	-33264	,	-30627	,	8.008528	,	14
48,22	,	43437	,	-33272	,	-30622	,	6.3558555	,	10
48,22	,	43469	,	-33263	,	-30619	,	5.2270837	,	6
48,22	,	43485	,	-33262	,	-30625	,	4.56353	,	3
48,22	,	43501	,	-33254	,	-30623	,	4.355195	,	1
48,22	,	43533	,	-33273	,	-30618	,	4.5180836	,	0
48,22	,	43549	,	-33274	,	-30626	,	4.7109766	,	0
48,22	,	43581	,	-33303	,	-30626	,	4.3745437	,	0
48,22	,	43597	,	-33299	,	-30633	,	2.9591193	,	0
48,22	,	43613	,	-33281	,	-30620	,	0.38961625	,	0
48,22	,	43645	,	-33286	,	-30623	,	-2.688023	,	0
48,22	,	43661	,	-33282	,	-30629	,	-5.418987	,	0
48,22	,	43678	,	-33311	,	-30637	,	-7.404761	,	0
48,22	,	43709	,	-33296	,	-30635	,	-8.788644	,	0
48,22	,	43725	,	-33291	,	-30629	,	-9.731417	,	0
48,22	,	43741	,	-33298	,	-30637	,	-10.110135	,	0
48,22	,	43773	,	-33311	,	-30638	,	-9.911177	,	0
48,22	,	43789	,	-33299	,	-30643	,	-9.391621	,	0
48,22	,	43821	,	-33309	,	-30646	,	-8.754668	,	0
48,22	,	43837	,	-33304	,	-30660	,	-8.0551405	,	0
48,22	,	43853	,	-33317	,	-30629	,	-7.3564663	,	0
48,22	,	43885	,	-33308	,	-30633	,	-6.7670474	,	0
48,22	,	43901	,	-33325	,	-30633	,	-6.3787584	,	0
48,22	,	43917	,	-33322	,	-30631	,	-6.280034	,	0
48,22	,	43949	,	-33331	,	-30632	,	-6.5446606	,	0
48,22	,	43965	,	-33323	,	-30638	,	-7.1174607	,	0
48,22	,	43997	,	-33339	,	-30641	,	-7.8335953	,	0
48,22	,	44013	,	-33346	,	-30645	,	-8.639328	,	0
48,22	,	44029	,	-33350	,	-30643	,	-9.633831	,	0
48,22	,	44061	,	-33373	,	-30643	,	-10.9406395	,	0
48,22	,	44077	,	-33365	,	-30679	,	-12.65407	,	0
48,22	,	44093	,	-33348	,	-30651	,	-14.555205	,	0
48,23	,	44125	,	-33392	,	-30649	,	-16.16586	,	0
48,23	,	44141	,	-33344	,	-30645	,	-17.222036	,	0
48,23	,	44157	,	-33332	,	-30653	,	-17.330088	,	0
48,23	,	44189	,	-33337	,	-30651	,	-15.816515	,	0
48,23	,	44205	,	-33329	,	-30652	,	-12.499049	,	1
48,23	,	44237	,	-33299	,	-30646	,	-7.7090626	,	4
48,23	,	44253	,	-33313	,	-30639	,	-1.8216062	,	8
48,23	,	44269	,	-33277	,	-30629	,	4.705596	,	13
48,23	,	44301	,	-33273	,	-30628	,	11.424077	,	19
48,23	,	44317	,	-33276	,	-30647	,	17.93755	,	25
48,23	,	44333	,	-33258	,	-30620	,	23.70826	,	31
48,23	,	44365	,	-33268	,	-30622	,	28.212036	,	36
48,23	,	44381	,	-33276	,	-30617	,	31.007069	,	40
48,23	,	44413	,	-33267	,	-30624	,	31.726562	,	41
48,23	,	44429	,	-33300	,	-30626	,	30.238514	,	38
48,23	,	44445	,	-33279	,	-30617	,	26.635654	,	34
48,23	,	44477	,	-33266	,	-30618	,	21.47061	,	29
48,23	,	44493	,	-33253	,	-30612	,	15.922351	,	23
48,23	,	44509	,	-33259	,	-30612	,	11.190381	,	17
48,23	,	44541	,	-33259	,	-30618	,	7.845645	,	11
48,23	,	44557	,	-33247	,	-30638	,	5.890237	,	6
48,23	,	44573	,	-33254	,	-30591	,	5.124387	,	2
48,23	,	44605	,	-33243	,	-30618	,	5.2599864	,	0
48,23	,	44621	,	-33258	,	-30610	,	5.9132204	,	0
48,23	,	44653	,	-33250	,	-30611	,	6.647848	,	0
48,23	,	44669	,	-33276	,	-30623	,	6.997194	,	0
48,23	,	44685	,	-33254	,	-30616	,	6.589466	,	0
48,23	,	44717	,	-33266	,	-30619	,	5.4070725	,	0
48,23	,	44733	,	-33259	,	-30615	,	3.7544012	,	0
48,23	,	44749	,	-33273	,	-30627	,	1.9220421	,	0
48,23	,	44781	,	-33258	,	-30619	,	0.09578848	,	0
48,23	,	44797	,	-33272	,	-30642	,	-1.5406549	,	0
48,23	,	44829	,	-33264	,	-30612	,	-2.8447778	,	0
48,23	,	44845	,	-33270	,	-30633	,	-3.7645702	,	0
48,23	,	44861	,	-33264	,	-30618	,	-4.286381	,	0
48,23	,	44893	,	-33278	,	-30627	,	-4.4606037	,	0
48,23	,	44909	,	-33274	,	-30623	,	-4.4573536	,	0
48,23	,	44925	,	-33286	,	-30621	,	-4.4933977	,	0
48,23	,	44957	,	-33295	,	-30627	,	-4.7910986	,	0
48,23	,	44973	,	-33285	,	-30628	,	-5.495426	,	0
48,23	,	44989	,	-33285	,	-30632	,	-6.450631	,	0
48,23	,	45021	,	-33298	,	-30631	,	-7.33597	,	0
48,23	,	45037	,	-33298	,	-30659	,	-8.041485	,	0
48,23	,	45069	,	-33277	,	-30624	,	-8.520477	,	0
48,23	,	45085	,	-33298	,	-30637	,	-8.560396	,	0
48,23	,	45101	,	-33298	,	-30638	,	-8.115208	,	0
48,24	,	45133	,	-33308	,	-30634	,	-7.4816895	,	0
48,24	,	45149	,	-33311	,	-30643	,	-7.0196323	,	0
48,24	,	45165	,	-33327	,	-30640	,	-7.0083876	,	0
48,24	,	45197	,	-33327	,	-30650	,	-7.6457663	,	0
48,24	,	45213	,	-33324	,	-30638	,	-8.9019985	,	0
48,24	,	45244	,	-33305	,	-30639	,	-10.33189	,	0
48,24	,	45260	,	-33298	,	-30638	,	-11.164328	,	0
48,24	,	45277	,	-33273	,	-30642	,	-10.6318245	,	0
48,24	,	45309	,	-33277	,	-30606	,	-8.278667	,	0
48,24	,	45325	,	-33228	,	-30617	,	-4.0071473	,	2
48,24	,	45341	,	-33215	,	-30622	,	2.188086	,	6
48,24	,	45373	,	-33249	,	-30622	,	9.930265	,	12
48,24	,	45389	,	-33224	,	-30624	,	17.966888	,	19
48,24	,	45405	,	-33237	,	-30609	,	24.81816	,	27
48,24	,	45437	,	-33226	,	-30627	,	29.557037	,	33
48,24	,	45453	,	-33229	,	-30612	,	31.836067	,	37
48,24	,	45484	,	-33225	,	-30613	,	31.762695	,	39
48,24	,	45501	,	-33198	,	-30610	,	29.872234	,	39
48,24	,	45517	,	-33224	,	-30642	,	26.96575	,	37
48,24	,	45549	,	-33228	,	-30592	,	23.545013	,	33
48,24	,	45565	,	-33205	,	-30619	,	19.75466	,	27
48,24	,	45581	,	-33196	,	-30604	,	16.019758	,	20
48,24	,	45612	,	-33211	,	-30609	,	12.937404	,	12
48,24	,	45628	,	-33212	,	-30611	,	10.630254	,	6
48,24	,	45661	,	-33189	,	-30615	,	8.90913	,	2
48,24	,	45677	,	-33206	,	-30610	,	7.7438393	,	0
48,24	,	45693	,	-33223	,	-30619	,	6.973264	,	0
48,24	,	45725	,	-33201	,	-30612	,	6.152808	,	0
48,24	,	45740	,	-33186	,	-30616	,	5.204632	,	0
48,24	,	45756	,	-33222	,	-30636	,	4.4211287	,	0
48,24	,	45788	,	-33219	,	-30598	,	3.692625	,	0
48,24	,	45805	,	-33219	,	-30617	,	2.5999334	,	0
48,24	,	45837	,	-33232	,	-30618	,	0.9806981	,	0
48,24	,	45852	,	-33221	,	-30616	,	-1.0647981	,	0
48,24	,	45868	,	-33246	,	-30614	,	-3.3500514	,	0
48,24	,	45901	,	-33216	,	-30615	,	-5.642478	,	0
48,24	,	45917	,	-33228	,	-30621	,	-7.5492535	,	0
48,24	,	45933	,	-33234	,	-30609	,	-8.693755	,	0
48,24	,	45964	,	-33241	,	-30613	,	-9.111582	,	0
48,24	,	45980	,	-33237	,	-30629	,	-9.106272	,	0
48,24	,	46012	,	-33247	,	-30641	,	-8.915924	,	0
48,24	,	46028	,	-33253	,	-30610	,	-8.726217	,	0
48,24	,	46045	,	-33253	,	-30635	,	-8.7118	,	0
48,24	,	46077	,	-33252	,	-30631	,	-8.899718	,	0
48,24	,	46092	,	-33263	,	-30624	,	-9.183139	,	0
48,25	,	46108	,	-33266	,	-30623	,	-9.52195	,	0
48,25	,	46140	,	-33276	,	-30639	,	-9.984211	,	0
48,25	,	46156	,	-33268	,	-30633	,	-10.595184	,	0
48,25	,	46188	,	-33274	,	-30640	,	-11.216684	,	0
48,25	,	46204	,	-33287	,	-30643	,	-11.706587	,	0
48,25	,	46220	,	-33282	,	-30644	,	-12.097931	,	0
48,25	,	46252	,	-33304	,	-30641	,	-12.509977	,	0
48,25	,	46268	,	-33298	,	-30643	,	-13.069588	,	0
48,25	,	46284	,	-33284	,	-30642	,	-13.711115	,	0
48,25	,	46316	,	-33261	,	-30641	,	-13.892677	,	0
48,25	,	46332	,	-33233	,	-30636	,	-12.710797	,	0
48,25	,	46364	,	-33248	,	-30628	,	-9.489981	,	1
48,25	,	46380	,	-33237	,	-30628	,	-4.3980002	,	4
48,25	,	46396	,	-33224	,	-30625	,	1.7517953	,	9
48,25	,	46428	,	-33229	,	-30630	,	8.119404	,	15
48,25	,	46444	,	-33220	,	-30632	,	13.963833	,	21
48,25	,	46460	,	-33230	,	-30621	,	18.619263	,	26
48,25	,	46492	,	-33220	,	-30625	,	21.615643	,	30
48,25	,	46508	,	-33220	,	-30626	,	22.817846	,	32
48,25	,	46524	,	-33235	,	-30617	,	22.358124	,	33
48,25	,	46556	,	-33212	,	-30622	,	20.487751	,	32
48,25	,	46572	,	-33220	,	-30626	,	17.682472	,	29
48,25	,	46604	,	-33218	,	-30623	,	14.5254545	,	24
48,25	,	46620	,	-33219	,	-30622	,	11.407145	,	18
48,25	,	46636	,	-33193	,	-30619	,	8.665208	,	12
48,25	,	46668	,	-33219	,	-30624	,	6.6694446	,	7
48,25	,	46684	,	-33204	,	-30630	,	5.4872108	,	3
48,25	,	46700	,	-33222	,	-30619	,	4.8292766	,	1
48,25	,	46732	,	-33220	,	-30624	,	4.2991185	,	0
48,25	,	46748	,	-33219	,	-30627	,	3.5848653	,	0
48,25	,	46780	,	-33206	,	-30624	,	2.6767838	,	0
48,25	,	46796	,	-33220	,	-30624	,	1.801451	,	0
48,25	,	46812	,	-33208	,	-30628	,	1.1119347	,	0
48,25	,	46844	,	-33222	,	-30630	,	0.61533356	,	0
48,25	,	46860	,	-33221	,	-30625	,	0.20807952	,	0
48,25	,	46876	,	-33243	,	-30625	,	-0.3641531	,	0
48,25	,	46908	,	-33233	,	-30630	,	-1.397691	,	0
48,25	,	46924	,	-33252	,	-30641	,	-3.0047026	,	0
48,25	,	46940	,	-33239	,	-30627	,	-5.059009	,	0
48,25	,	46972	,	-33238	,	-30636	,	-7.199155	,	0
48,25	,	46988	,	-33242	,	-30636	,	-8.930976	,	0
48,25	,	47020	,	-33260	,	-30642	,	-10.025927	,	0
48,25	,	47036	,	-33253	,	-30629	,	-10.659335	,	0
48,25	,	47052	,	-33266	,	-30637	,	-11.08251	,	0
48,25	,	47084	,	-33290	,	-30633	,	-11.56004	,	0
48,25	,	47100	,	-33260	,	-30637	,	-12.343392	,	0
48,26	,	47116	,	-33299	,	-30646	,	-13.390852	,	0
48,26	,	47148	,	-33257	,	-30646	,	-14.422787	,	0
48,26	,	47164	,	-33280	,	-30660	,	-15.033028	,	0
48,26	,	47196	,	-33277	,	-30649	,	-14.885066	,	0
48,26	,	47212	,	-33286	,	-30650	,	-14.038369	,	0
48,26	,	47228	,	-33301	,	-30653	,	-12.875568	,	0
48,26	,	47260	,	-33301	,	-30650	,	-11.8815	,	1
48,26	,	47276	,	-33309	,	-30652	,	-11.400583	,	1
48,26	,	47292	,	-33299	,	-30646	,	-11.438711	,	1
48,26	,	47324	,	-33265	,	-30644	,	-11.520965	,	1
48,26	,	47340	,	-33251	,	-30625	,	-10.694063	,	1
48,26	,	47356	,	-33222	,	-30635	,	-7.9954357	,	1
48,26	,	47388	,	-33231	,	-30628	,	-3.046845	,	3
48,26	,	47404	,	-33234	,	-30636	,	3.6016474	,	7
48,26	,	47436	,	-33239	,	-30622	,	10.647583	,	13
48,26	,	47452	,	-33228	,	-30625	,	16.754955	,	19
48,26	,	47468	,	-33211	,	-30618	,	21.216164	,	25
48,26	,	47500	,	-33199	,	-30612	,	24.093645	,	29
48,26	,	47516	,	-33219	,	-30610	,	25.720686	,	31
48,26	,	47532	,	-33205	,	-30605	,	26.169863	,	32
48,26	,	47564	,	-33210	,	-30615	,	25.407948	,	32
48,26	,	47580	,	-33210	,	-30620	,	23.565472	,	30
48,26	,	47611	,	-33207	,	-30613	,	20.878197	,	26
48,26	,	47627	,	-33178	,	-30609	,	17.797277	,	20
48,26	,	47644	,	-33211	,	-30623	,	14.930299	,	13
48,26	,	47676	,	-33202	,	-30608	,	12.489588	,	7
48,26	,	47692	,	-33199	,	-30620	,	10.291206	,	3
48,26	,	47708	,	-33180	,	-30621	,	8.359589	,	1
48,26	,	47740	,	-33192	,	-30617	,	6.97911	,	0
48,26	,	47756	,	-33187	,	-30610	,	6.2505856	,	0
48,26	,	47772	,	-33190	,	-30612	,	5.9793286	,	0
48,26	,	47804	,	-33209	,	-30612	,	5.805375	,	0
48,26	,	47820	,	-33206	,	-30614	,	5.2636304	,	0
48,26	,	47852	,	-33198	,	-30611	,	4.0898523	,	0
48,26	,	47868	,	-33196	,	-30612	,	2.4945943	,	0
48,26	,	47884	,	-33203	,	-30624	,	0.88942814	,	0
48,26	,	47916	,	-33212	,	-30608	,	-0.53202534	,	0
48,26	,	47932	,	-33218	,	-30619	,	-1.872683	,	0
48,26	,	47948	,	-33212	,	-30628	,	-3.272956	,	0
48,26	,	47979	,	-33238	,	-30635	,	-4.7738447	,	0
48,26	,	47996	,	-33236	,	-30621	,	-6.481186	,	0
48,26	,	48028	,	-33243	,	-30617	,	-8.49946	,	0
48,26	,	48044	,	-33236	,	-30621	,	-10.668972	,	0
48,26	,	48060	,	-33249	,	-30630	,	-12.638439	,	0
48,26	,	48092	,	-33237	,	-30621	,	-14.099163	,	0
48,27	,	48108	,	-33237	,	-30620	,	-14.794551	,	0
48,27	,	48124	,	-33227	,	-30639	,	-14.4824295	,	0
48,27	,	48156	,	-33238	,	-30620	,	-13.094902	,	0
48,27	,	48172	,	-33251	,	-30615	,	-10.956687	,	1
48,27	,	48187	,	-33266	,	-30632	,	-8.789177	,	3
48,27	,	48219	,	-33272	,	-30628	,	-7.385242	,	5
48,27	,	48235	,	-33248	,	-30631	,	-7.069439	,	6
48,27	,	48268	,	-33269	,	-30633	,	-7.510476	,	6
48,27	,	48284	,	-33292	,	-30640	,	-8.362467	,	6
48,27	,	48300	,	-33307	,	-30648	,	-9.804204	,	6
48,27	,	48331	,	-33288	,	-30656	,	-12.034557	,	6
48,27	,	48347	,	-33270	,	-30632	,	-14.538395	,	6
48,27	,	48363	,	-33288	,	-30658	,	-16.335052	,	5
48,27	,	48395	,	-33263	,	-30634	,	-16.765148	,	3
48,27	,	48411	,	-33251	,	-30632	,	-15.539206	,	1
48,27	,	48443	,	-33232	,	-30625	,	-12.437962	,	1
48,27	,	48459	,	-33201	,	-30613	,	-7.3315153	,	4
48,27	,	48475	,	-33210	,	-30625	,	-0.35281563	,	9
48,27	,	48508	,	-33198	,	-30614	,	7.8195057	,	15
48,27	,	48524	,	-33186	,	-30618	,	16.118706	,	23
48,27	,	48540	,	-33206	,	-30615	,	23.504896	,	31
48,27	,	48572	,	-33181	,	-30616	,	29.089842	,	38
48,27	,	48587	,	-33199	,	-30620	,	32.34984	,	43
48,27	,	48603	,	-33172	,	-30622	,	33.27261	,	46
48,27	,	48635	,	-33170	,	-30604	,	32.320118	,	45
48,27	,	48651	,	-33198	,	-30610	,	30.080818	,	42
48,27	,	48684	,	-33181	,	-30601	,	26.800852	,	37
48,27	,	48700	,	-33176	,	-30609	,	22.697752	,	31
48,27	,	48716	,	-33163	,	-30595	,	18.381838	,	23
48,27	,	48747	,	-33150	,	-30611	,	14.642476	,	15
48,27	,	48763	,	-33171	,	-30604	,	12.005834	,	8
48,27	,	48779	,	-33159	,	-30609	,	10.420296	,	3
48,27	,	48811	,	-33178	,	-30603	,	9.422233	,	0
48,27	,	48827	,	-33175	,	-30609	,	8.477987	,	0
48,27	,	48859	,	-33175	,	-30629	,	7.211734	,	0
48,27	,	48875	,	-33165	,	-30592	,	5.6152163	,	0
48,27	,	48892	,	-33191	,	-30616	,	3.8755493	,	0
48,27	,	48923	,	-33169	,	-30611	,	2.0683618	,	0
48,27	,	48939	,	-33192	,	-30607	,	0.24271154	,	0
48,27	,	48955	,	-33175	,	-30609	,	-1.4916257	,	0
48,27	,	48987	,	-33190	,	-30610	,	-3.0190916	,	0
48,27	,	49003	,	-33213	,	-30610	,	-4.3902044	,	0
48,27	,	49019	,	-33207	,	-30614	,	-5.927595	,	0
48,27	,	49051	,	-33210	,	-30624	,	-7.818366	,	0
48,27	,	49067	,	-33219	,	-30616	,	-9.886709	,	0
48,27	,	49099	,	-33208	,	-30625	,	-11.8289995	,	0
48,28	,	49115	,	-33234	,	-30600	,	-13.3955555	,	0
48,28	,	49131	,	-33228	,	-30616	,	-14.558329	,	0
48,28	,	49163	,	-33220	,	-30621	,	-15.3556595	,	0
48,28	,	49179	,	-33235	,	-30617	,	-15.656459	,	0
48,28	,	49195	,	-33213	,	-30611	,	-15.318779	,	0
48,28	,	49227	,	-33222	,	-30623	,	-14.241936	,	0
48,28	,	49243	,	-33230	,	-30627	,	-12.453495	,	1
48,28	,	49275	,	-33250	,	-30617	,	-10.386356	,	2
48,28	,	49291	,	-33245	,	-30627	,	-8.719919	,	4
48,28	,	49307	,	-33252	,	-30628	,	-7.882965	,	5
48,28	,	49339	,	-33252	,	-30651	,	-7.878024	,	5
48,28	,	49355	,	-33259	,	-30611	,	-8.484739	,	5
48,28	,	49371	,	-33251	,	-30637	,	-9.404343	,	5
48,28	,	49403	,	-33273	,	-30630	,	-10.353693	,	5
48,28	,	49419	,	-33292	,	-30632	,	-11.34996	,	5
48,28	,	49451	,	-33273	,	-30630	,	-12.620372	,	4
48,28	,	49467	,	-33249	,	-30629	,	-13.901861	,	3
48,28	,	49483	,	-33233	,	-30632	,	-14.257943	,	1
48,28	,	49515	,	-33215	,	-30622	,	-12.729885	,	0
48,28	,	49531	,	-33224	,	-30631	,	-8.975403	,	1
48,28	,	49547	,	-33223	,	-30616	,	-3.5113778	,	4
48,28	,	49579	,	-33229	,	-30643	,	2.5421414	,	9
48,28	,	49595	,	-33226	,	-30602	,	8.023475	,	15
48,28	,	49611	,	-33226	,	-30616	,	12.135424	,	20
48,28	,	49643	,	-33201	,	-30629	,	14.66237	,	24
48,28	,	49659	,	-33223	,	-30619	,	15.877935	,	26
48,28	,	49691	,	-33217	,	-30624	,	16.048075	,	27
48,28	,	49707	,	-33217	,	-30623	,	15.255955	,	27
48,28	,	49723	,	-33229	,	-30621	,	13.609223	,	26
48,28	,	49755	,	-33209	,	-30618	,	11.323368	,	23
48,28	,	49771	,	-33219	,	-30617	,	8.786633	,	18
48,28	,	49787	,	-33184	,	-30608	,	6.5615387	,	12
48,28	,	49819	,	-33206	,	-30641	,	5.1922092	,	7
48,28	,	49835	,	-33219	,	-30599	,	4.735082	,	3
48,28	,	49867	,	-33208	,	-30616	,	4.6516795	,	1
48,28	,	49883	,	-33226	,	-30626	,	4.390457	,	0
48,28	,	49899	,	-33236	,	-30622	,	3.586696	,	0
48,28	,	49931	,	-33203	,	-30625	,	2.1186068	,	0
48,28	,	49947	,	-33241	,	-30622	,	0.28855562	,	0
48,28	,	49963	,	-33216	,	-30631	,	-1.5594922	,	0
48,28	,	49995	,	-33225	,	-30628	,	-3.2090888	,	0
48,28	,	50011	,	-33234	,	-30625	,	-4.462148	,	0
48,28	,	50027	,	-33234	,	-30627	,	-5.339146	,	0
48,28	,	50059	,	-33216	,	-30654	,	-5.9076114	,	0
48,28	,	50075	,	-33245	,	-30610	,	-6.096265	,	0
48,28	,	50107	,	-33265	,	-30632	,	-6.157399	,	0
48,29	,	50123	,	-33267	,	-30631	,	-6.7532187	,	0
48,29	,	50139	,	-33249	,	-30634	,	-8.189442	,	0
48,29	,	50171	,	-33257	,	-30633	,	-10.022619	,	0
48,29	,	50187	,	-33258	,	-30635	,	-11.598492	,	0
48,29	,	50203	,	-33266	,	-30629	,	-12.58695	,	0
48,29	,	50235	,	-33278	,	-30644	,	-13.035696	,	0
48,29	,	50251	,	-33280	,	-30643	,	-13.218672	,	0
48,29	,	50283	,	-33257	,	-30637	,	-13.261503	,	0
48,29	,	50299	,	-33285	,	-30661	,	-12.990547	,	0
48,29	,	50315	,	-33290	,	-30622	,	-12.424528	,	0
48,29	,	50347	,	-33298	,	-30638	,	-11.955893	,	0
48,29	,	50363	,	-33301	,	-30641	,	-11.912584	,	0
48,29	,	50379	,	-33302	,	-30646	,	-12.320581	,	0
48,29	,	50411	,	-33295	,	-30652	,	-12.937621	,	0
48,29	,	50427	,	-33307	,	-30645	,	-13.408232	,	0
48,29	,	50443	,	-33292	,	-30639	,	-13.46885	,	0
48,29	,	50475	,	-33280	,	-30642	,	-12.866729	,	0
48,29	,	50490	,	-33266	,	-30635	,	-11.230213	,	0
48,29	,	50523	,	-33253	,	-30632	,	-8.237442	,	1
48,29	,	50539	,	-33243	,	-30651	,	-3.8285098	,	3
48,29	,	50555	,	-33245	,	-30613	,	1.6781039	,	7
48,29	,	50587	,	-33240	,	-30622	,	7.5881014	,	12
48,29	,	50602	,	-33226	,	-30616	,	13.141173	,	17
48,29	,	50618	,	-33231	,	-30627	,	17.828968	,	22
48,29	,	50651	,	-33235	,	-30623	,	21.28601	,	26
48,29	,	50667	,	-33237	,	-30617	,	23.145763	,	29
48,29	,	50698	,	-33220	,	-30622	,	23.296537	,	30
48,29	,	50714	,	-33251	,	-30621	,	21.958157	,	29
48,29	,	50731	,	-33236	,	-30619	,	19.34837	,	27
48,29	,	50762	,	-33213	,	-30615	,	15.851027	,	23
48,29	,	50778	,	-33228	,	-30652	,	12.2609215	,	18
48,29	,	50795	,	-33228	,	-30595	,	9.194598	,	13
48,29	,	50827	,	-33209	,	-30620	,	6.8308196	,	8
48,29	,	50843	,	-33230	,	-30623	,	5.2435236	,	4
48,29	,	50858	,	-33218	,	-30621	,	4.3452315	,	1
48,29	,	50890	,	-33216	,	-30621	,	3.9102538	,	0
48,29	,	50907	,	-33229	,	-30620	,	3.7550397	,	0
48,29	,	50939	,	-33224	,	-30619	,	3.635417	,	0
48,29	,	50955	,	-33215	,	-30621	,	3.3734717	,	0
48,29	,	50970	,	-33198	,	-30613	,	3.1454873	,	0
48,29	,	51002	,	-33224	,	-30622	,	3.2407606	,	0
48,29	,	51018	,	-33216	,	-30650	,	3.576198	,	0
48,29	,	51035	,	-33228	,	-30606	,	3.7661622	,	0
48,29	,	51066	,	-33238	,	-30626	,	3.442855	,	0
48,29	,	51082	,	-33228	,	-30625	,	2.401414	,	0
48,30	,	51114	,	-33260	,	-30624	,	0.6371846	,	0
48,30	,	51130	,	-33257	,	-30623	,	-1.8499255	,	0
48,30	,	51146	,	-33276	,	-30629	,	-5.082986	,	0
48,30	,	51178	,	-33254	,	-30635	,	-8.810723	,	0
48,30	,	51194	,	-33259	,	-30630	,	-12.369772	,	0
48,30	,	51210	,	-33252	,	-30630	,	-14.973032	,	0
48,30	,	51242	,	-33254	,	-30638	,	-16.138313	,	0
48,30	,	51258	,	-33260	,	-30674	,	-15.831148	,	0
48,30	,	51274	,	-33269	,	-30611	,	-14.426804	,	0
48,30	,	51306	,	-33285	,	-30639	,	-12.605195	,	1
48,30	,	51322	,	-33270	,	-30639	,	-11.0192375	,	2
48,30	,	51354	,	-33294	,	-30644	,	-9.979195	,	3
48,30	,	51370	,	-33289	,	-30640	,	-9.57151	,	4
48,30	,	51386	,	-33292	,	-30640	,	-9.780304	,	4
48,30	,	51418	,	-33290	,	-30649	,	-10.374816	,	4
48,30	,	51434	,	-33319	,	-30654	,	-11.126785	,	4
48,30	,	51450	,	-33315	,	-30652	,	-12.100668	,	4
48,30	,	51482	,	-33318	,	-30654	,	-13.392353	,	4
48,30	,	51498	,	-33316	,	-30681	,	-14.793295	,	3
48,30	,	51530	,	-33291	,	-30634	,	-15.793106	,	2
48,30	,	51546	,	-33249	,	-30641	,	-15.513664	,	1
48,30	,	51562	,	-33270	,	-30633	,	-13.027983	,	0
48,30	,	51594	,	-33248	,	-30633	,	-8.197075	,	2
48,30	,	51610	,	-33259	,	-30632	,	-1.7808361	,	6
48,30	,	51626	,	-33240	,	-30633	,	5.1630793	,	12
48,30	,	51658	,	-33228	,	-30631	,	11.790615	,	18
48,30	,	51674	,	-33230	,	-30624	,	17.624962	,	24
48,30	,	51690	,	-33202	,	-30622	,	22.432058	,	29
48,30	,	51722	,	-33222	,	-30635	,	26.118038	,	33
48,30	,	51738	,	-33218	,	-30654	,	28.495598	,	36
48,30	,	51770	,	-33231	,	-30605	,	29.198456	,	38
48,30	,	51786	,	-33210	,	-30617	,	28.077147	,	36
48,30	,	51802	,	-33217	,	-30622	,	25.475506	,	32
48,30	,	51834	,	-33222	,	-30621	,	21.95287	,	26
48,30	,	51850	,	-33219	,	-30621	,	17.928799	,	20
48,30	,	51866	,	-33188	,	-30614	,	13.886547	,	14
48,30	,	51898	,	-33222	,	-30619	,	10.450808	,	9
48,30	,	51914	,	-33201	,	-30617	,	7.888588	,	5
48,30	,	51946	,	-33193	,	-30620	,	6.161182	,	2
48,30	,	51962	,	-33197	,	-30618	,	5.311672	,	0
48,30	,	51978	,	-33212	,	-30642	,	5.1869187	,	0
48,30	,	52010	,	-33212	,	-30600	,	5.2511463	,	0
48,30	,	52026	,	-33232	,	-30614	,	4.896657	,	0
48,30	,	52042	,	-33212	,	-30615	,	3.7612886	,	0
48,30	,	52074	,	-33223	,	-30620	,	1.9352987	,	0
48,30	,	52090	,	-33220	,	-30621	,	-0.18830776	,	0
48,31	,	52106	,	-33231	,	-30624	,	-2.2858582	,	0
48,31	,	52138	,	-33234	,	-30627	,	-4.235965	,	0
48,31	,	52154	,	-33216	,	-30622	,	-5.9333467	,	0
48,31	,	52186	,	-33226	,	-30625	,	-7.1007423	,	0
48,31	,	52202	,	-33208	,	-30633	,	-7.4395523	,	0
48,31	,	52218	,	-33228	,	-30656	,	-6.874979	,	0
48,31	,	52250	,	-33239	,	-30618	,	-5.7380376	,	0
48,31	,	52266	,	-33219	,	-30623	,	-4.5860868	,	1
48,31	,	52282	,	-33229	,	-30634	,	-3.665818	,	2
48,31	,	52314	,	-33221	,	-30627	,	-2.9000766	,	2
48,31	,	52330	,	-33231	,	-30624	,	-2.2296844	,	2
48,31	,	52362	,	-33249	,	-30631	,	-1.7934204	,	2
48,31	,	52378	,	-33252	,	-30631	,	-1.9448633	,	2
48,31	,	52394	,	-33238	,	-30629	,	-2.8711343	,	2
48,31	,	52426	,	-33244	,	-30641	,	-4.27124	,	2
48,31	,	52442	,	-33258	,	-30635	,	-5.7181363	,	2
48,31	,	52458	,	-33262	,	-30663	,	-7.1003237	,	1
48,31	,	52490	,	-33277	,	-30638	,	-8.554025	,	0
48,31	,	52506	,	-33274	,	-30652	,	-10.208405	,	0
48,31	,	52522	,	-33296	,	-30648	,	-12.087423	,	0
48,31	,	52554	,	-33304	,	-30664	,	-14.219418	,	0
48,31	,	52570	,	-33305	,	-30651	,	-16.623854	,	0
48,31	,	52601	,	-33270	,	-30641	,	-18.911186	,	0
48,31	,	52618	,	-33247	,	-30642	,	-20.031776	,	0
48,31	,	52634	,	-33240	,	-30643	,	-18.808342	,	0
48,31	,	52666	,	-33233	,	-30636	,	-14.790145	,	1
48,31	,	52681	,	-33219	,	-30634	,	-8.416911	,	5
48,31	,	52698	,	-33235	,	-30662	,	-0.676527	,	11
48,31	,	52730	,	-33231	,	-30624	,	7.1179843	,	18
48,31	,	52746	,	-33226	,	-30633	,	13.721889	,	25
48,31	,	52778	,	-33215	,	-30640	,	18.472374	,	31
48,31	,	52794	,	-33217	,	-30632	,	21.321915	,	35
48,31	,	52810	,	-33237	,	-30647	,	22.38652	,	37
48,31	,	52842	,	-33253	,	-30643	,	21.54871	,	38
48,31	,	52858	,	-33225	,	-30639	,	18.752422	,	37
48,31	,	52874	,	-33251	,	-30633	,	14.490879	,	33
48,31	,	52906	,	-33242	,	-30632	,	9.516432	,	27
48,31	,	52922	,	-33230	,	-30634	,	4.5338	,	20
48,31	,	52938	,	-33221	,	-30659	,	0.34432077	,	13
48,31	,	52970	,	-33230	,	-30622	,	-2.3982654	,	7
48,31	,	52986	,	-33226	,	-30634	,	-3.5819228	,	3
48,31	,	53017	,	-33236	,	-30631	,	-3.557125	,	1
48,31	,	53033	,	-33224	,	-30640	,	-2.8116057	,	0
48,31	,	53049	,	-33242	,	-30642	,	-1.7753736	,	0
48,31	,	53081	,	-33225	,	-30639	,	-0.78416514	,	1
48,31	,	53097	,	-33226	,	-30646	,	0.03274119	,	1
48,32	,	53114	,	-33236	,	-30646	,	0.7047711	,	1
48,32	,	53146	,	-33240	,	-30645	,	1.1324742	,	1
48,32	,	53162	,	-33218	,	-30646	,	1.2166529	,	1
48,32	,	53194	,	-33242	,	-30672	,	1.0922573	,	1
48,32	,	53209	,	-33240	,	-30644	,	0.82199657	,	1
48,32	,	53225	,	-33263	,	-30651	,	0.17159224	,	1
48,32	,	53257	,	-33254	,	-30644	,	-1.1379511	,	1
48,32	,	53273	,	-33256	,	-30654	,	-3.0828474	,	0
48,32	,	53289	,	-33274	,	-30647	,	-5.374161	,	0
48,32	,	53322	,	-33252	,	-30658	,	-7.7112885	,	0
48,32	,	53338	,	-33273	,	-30649	,	-9.766493	,	0
48,32	,	53370	,	-33267	,	-30652	,	-11.278098	,	0
48,32	,	53386	,	-33285	,	-30663	,	-12.249477	,	0
48,32	,	53402	,	-33276	,	-30660	,	-12.838144	,	0
48,32	,	53434	,	-33279	,	-30687	,	-13.116459	,	0
48,32	,	53450	,	-33283	,	-30654	,	-13.035557	,	0
48,32	,	53465	,	-33294	,	-30662	,	-12.64486	,	0
48,32	,	53497	,	-33298	,	-30664	,	-12.181186	,	0
48,32	,	53513	,	-33291	,	-30661	,	-11.838303	,	0
48,32	,	53529	,	-33284	,	-30668	,	-11.517118	,	0
48,32	,	53561	,	-33295	,	-30664	,	-10.955821	,	0
48,32	,	53577	,	-33304	,	-30670	,	-10.124802	,	0
48,32	,	53609	,	-33279	,	-30658	,	-9.165478	,	0
48,32	,	53625	,	-33243	,	-30652	,	-7.7882514	,	0
48,32	,	53641	,	-33234	,	-30655	,	-5.179942	,	1
48,32	,	53673	,	-33228	,	-30659	,	-0.7937956	,	3
48,32	,	53689	,	-33231	,	-30639	,	5.0587926	,	7
48,32	,	53705	,	-33241	,	-30645	,	11.358544	,	12
48,32	,	53737	,	-33215	,	-30646	,	16.975061	,	18
48,32	,	53753	,	-33219	,	-30642	,	21.278267	,	23
48,32	,	53785	,	-33202	,	-30636	,	24.184334	,	27
48,32	,	53801	,	-33189	,	-30640	,	25.920242	,	29
48,32	,	53818	,	-33228	,	-30645	,	26.687483	,	30
48,32	,	53849	,	-33216	,	-30640	,	26.240513	,	29
48,32	,	53865	,	-33221	,	-30636	,	24.233032	,	27
48,32	,	53881	,	-33203	,	-30637	,	20.873657	,	23
48,32	,	53913	,	-33190	,	-30648	,	16.94675	,	18
48,32	,	53929	,	-33206	,	-30624	,	13.32762	,	12
48,32	,	53945	,	-33187	,	-30638	,	10.485639	,	7
48,32	,	53977	,	-33202	,	-30633	,	8.498568	,	3
48,32	,	53993	,	-33203	,	-30643	,	7.1947756	,	1
48,32	,	54025	,	-33182	,	-30628	,	6.3120036	,	0
48,32	,	54041	,	-33187	,	-30631	,	5.8223143	,	0
48,32	,	54057	,	-33204	,	-30630	,	5.712199	,	0
48,32	,	54089	,	-33187	,	-30633	,	5.6884174	,	0
48,33	,	54105	,	-33153	,	-30627	,	5.7092905	,	0
48,33	,	54121	,	-33198	,	-30626	,	6.1062603	,	0
48,33	,	54153	,	-33179	,	-30650	,	6.795784	,	0
48,33	,	54169	,	-33210	,	-30626	,	7.1831183	,	0
48,33	,	54201	,	-33218	,	-30615	,	6.62718	,	0
48,33	,	54217	,	-33195	,	-30622	,	4.8013535	,	0
48,33	,	54233	,	-33211	,	-30628	,	2.0352	,	0
48,33	,	54265	,	-33211	,	-30632	,	-1.0277848	,	0
48,33	,	54281	,	-33172	,	-30628	,	-3.75197	,	0
48,33	,	54297	,	-33221	,	-30639	,	-5.523222	,	0
48,33	,	54329	,	-33217	,	-30633	,	-6.338953	,	0
48,33	,	54345	,	-33236	,	-30640	,	-6.872139	,	0
48,33	,	54361	,	-33235	,	-30640	,	-7.7323885	,	0
48,33	,	54393	,	-33235	,	-30651	,	-9.098655	,	0
48,33	,	54409	,	-33237	,	-30639	,	-10.754737	,	0
48,33	,	54441	,	-33245	,	-30639	,	-12.350633	,	0
48,33	,	54457	,	-33238	,	-30644	,	-13.629139	,	0
48,33	,	54473	,	-33243	,	-30641	,	-14.383116	,	0
48,33	,	54505	,	-33250	,	-30644	,	-14.5007305	,	0
48,33	,	54521	,	-33243	,	-30637	,	-14.043816	,	0
48,33	,	54537	,	-33241	,	-30643	,	-13.086018	,	0
48,33	,	54569	,	-33240	,	-30647	,	-11.636083	,	0
48,33	,	54585	,	-33261	,	-30645	,	-9.856485	,	1
48,33	,	54617	,	-33260	,	-30645	,	-8.183642	,	2
48,33	,	54633	,	-33223	,	-30649	,	-6.86016	,	3
48,33	,	54649	,	-33213	,	-30635	,	-5.4155874	,	4
48,33	,	54681	,	-33188	,	-30629	,	-3.0096278	,	5
48,33	,	54697	,	-33159	,	-30617	,	1.0031621	,	7
48,33	,	54713	,	-33153	,	-30619	,	6.8783054	,	11
48,33	,	54745	,	-33155	,	-30609	,	14.219512	,	16
48,33	,	54761	,	-33191	,	-30606	,	21.753647	,	23
48,33	,	54777	,	-33149	,	-30613	,	27.84954	,	29
48,33	,	54809	,	-33139	,	-30599	,	31.694038	,	34
48,33	,	54825	,	-33134	,	-30605	,	33.56945	,	36
48,33	,	54857	,	-33124	,	-30602	,	34.045647	,	36
48,33	,	54873	,	-33142	,	-30605	,	33.451042	,	35
48,33	,	54889	,	-33127	,	-30594	,	31.840683	,	33
48,33	,	54921	,	-33117	,	-30601	,	29.33228	,	29
48,33	,	54937	,	-33092	,	-30599	,	26.471401	,	24
48,33	,	54953	,	-33089	,	-30596	,	24.052975	,	17
48,33	,	54985	,	-33107	,	-30589	,	22.494036	,	10
48,33	,	55001	,	-33095	,	-30594	,	21.50914	,	4
48,33	,	55032	,	-33092	,	-30587	,	20.607494	,	1
48,33	,	55049	,	-33099	,	-30593	,	19.534325	,	0
48,33	,	55065	,	-33114	,	-30590	,	18.051208	,	0
48,33	,	55097	,	-33099	,	-30585	,	15.886524	,	0
48,34	,	55113	,	-33067	,	-30598	,	13.252249	,	0
48,34	,	55129	,	-33101	,	-30582	,	10.840375	,	0
48,34	,	55161	,	-33110	,	-30579	,	8.893436	,	0
48,34	,	55177	,	-33100	,	-30584	,	7.016213	,	0
48,34	,	55193	,	-33076	,	-30583	,	5.1007957	,	0
48,34	,	55225	,	-33094	,	-30582	,	3.5709195	,	0
48,34	,	55241	,	-33114	,	-30587	,	2.5753808	,	0
48,34	,	55273	,	-33095	,	-30591	,	1.7266037	,	0
48,34	,	55288	,	-33114	,	-30594	,	0.7091937	,	0
48,34	,	55305	,	-33116	,	-30587	,	-0.5655993	,	0
48,34	,	55337	,	-33115	,	-30597	,	-2.1436143	,	0
48,34	,	55353	,	-33097	,	-30589	,	-3.817312	,	0
48,34	,	55369	,	-33103	,	-30588	,	-5.084759	,	0
48,34	,	55401	,	-33122	,	-30595	,	-5.6601443	,	0
48,34	,	55417	,	-33126	,	-30598	,	-5.8263664	,	0
48,34	,	55449	,	-33125	,	-30596	,	-6.0599213	,	0
48,34	,	55465	,	-33108	,	-30598	,	-6.4628444	,	0
48,34	,	55481	,	-33133	,	-30602	,	-6.8043876	,	0
48,34	,	55513	,	-33156	,	-30606	,	-7.141773	,	0
48,34	,	55529	,	-33136	,	-30606	,	-7.878928	,	0
48,34	,	55545	,	-33167	,	-30602	,	-9.178361	,	0
48,34	,	55577	,	-33172	,	-30619	,	-11.008772	,	0
48,34	,	55593	,	-33139	,	-30604	,	-13.202165	,	0
48,34	,	55609	,	-33167	,	-30611	,	-15.16611	,	0
48,34	,	55641	,	-33187	,	-30612	,	-16.49009	,	0
48,34	,	55657	,	-33167	,	-30610	,	-17.349566	,	0
48,34	,	55689	,	-33159	,	-30592	,	-17.759352	,	0
48,34	,	55704	,	-33144	,	-30595	,	-17.253248	,	0
48,34	,	55720	,	-33112	,	-30596	,	-15.22331	,	0
48,34	,	55752	,	-33116	,	-30591	,	-11.212571	,	2
48,34	,	55769	,	-33083	,	-30600	,	-5.2052784	,	6
48,34	,	55785	,	-33091	,	-30593	,	2.3323865	,	12
48,34	,	55817	,	-33091	,	-30598	,	10.509405	,	19
48,34	,	55833	,	-33117	,	-30580	,	17.996176	,	27
48,34	,	55864	,	-33108	,	-30593	,	23.389832	,	34
48,34	,	55880	,	-33100	,	-30587	,	25.919632	,	39
48,34	,	55896	,	-33087	,	-30592	,	25.815468	,	41
48,34	,	55929	,	-33116	,	-30590	,	23.815401	,	41
48,34	,	55945	,	-33092	,	-30587	,	20.521809	,	39
48,34	,	55961	,	-33102	,	-30586	,	16.479635	,	35
48,34	,	55992	,	-33078	,	-30587	,	12.399072	,	29
48,34	,	56008	,	-33096	,	-30579	,	8.9463825	,	22
48,34	,	56025	,	-33088	,	-30587	,	6.41334	,	14
48,34	,	56056	,	-33077	,	-30602	,	4.777614	,	7
48,34	,	56072	,	-33069	,	-30577	,	4.0620093	,	2
48,34	,	56104	,	-33086	,	-30591	,	4.252493	,	0
48,35	,	56120	,	-33089	,	-30581	,	4.9481773	,	0
48,35	,	56136	,	-33111	,	-30592	,	5.423854	,	0
48,35	,	56168	,	-33114	,	-30596	,	4.960477	,	0
48,35	,	56184	,	-33093	,	-30588	,	3.2993433	,	0
48,35	,	56201	,	-33128	,	-30596	,	0.77276134	,	0
48,35	,	56232	,	-33104	,	-30595	,	-2.167585	,	0
48,35	,	56248	,	-33104	,	-30596	,	-5.0562778	,	0
48,35	,	56280	,	-33102	,	-30609	,	-7.2948008	,	0
48,35	,	56296	,	-33125	,	-30613	,	-8.577464	,	0
48,35	,	56312	,	-33130	,	-30585	,	-9.184919	,	0
48,35	,	56344	,	-33115	,	-30593	,	-9.556183	,	0
48,35	,	56360	,	-33138	,	-30601	,	-9.8458	,	0
48,35	,	56376	,	-33138	,	-30614	,	-10.134352	,	0
48,35	,	56408	,	-33148	,	-30601	,	-10.605602	,	0
48,35	,	56424	,	-33167	,	-30608	,	-11.438978	,	0
48,35	,	56456	,	-33142	,	-30597	,	-12.68218	,	0
48,35	,	56472	,	-33166	,	-30606	,	-14.070557	,	0
48,35	,	56488	,	-33157	,	-30613	,	-15.234349	,	0
48,35	,	56520	,	-33160	,	-30605	,	-15.947849	,	0
48,35	,	56536	,	-33193	,	-30628	,	-16.204086	,	0
48,35	,	56552	,	-33183	,	-30609	,	-16.338154	,	0
48,35	,	56584	,	-33151	,	-30618	,	-16.4798	,	0
48,35	,	56600	,	-33185	,	-30611	,	-16.189636	,	0
48,35	,	56616	,	-33188	,	-30615	,	-15.273638	,	0
48,35	,	56648	,	-33196	,	-30615	,	-14.144925	,	0
48,35	,	56664	,	-33159	,	-30612	,	-13.063783	,	1
48,35	,	56696	,	-33140	,	-30600	,	-11.554914	,	2
48,35	,	56712	,	-33110	,	-30599	,	-8.681152	,	3
48,35	,	56728	,	-33132	,	-30595	,	-3.8962789	,	5
48,35	,	56760	,	-33096	,	-30598	,	2.4639926	,	9
48,35	,	56776	,	-33135	,	-30612	,	9.45837	,	15
48,35	,	56792	,	-33126	,	-30591	,	15.826494	,	21
48,35	,	56824	,	-33116	,	-30600	,	20.426102	,	27
48,35	,	56840	,	-33106	,	-30589	,	22.90277	,	31
48,35	,	56872	,	-33082	,	-30591	,	23.723064	,	32
48,35	,	56888	,	-33093	,	-30602	,	23.653584	,	31
48,35	,	56904	,	-33090	,	-30596	,	23.178307	,	30
48,35	,	56936	,	-33101	,	-30600	,	22.291061	,	28
48,35	,	56952	,	-33075	,	-30595	,	20.887314	,	24
48,35	,	56968	,	-33090	,	-30582	,	19.116123	,	18
48,35	,	57000	,	-33088	,	-30586	,	17.161312	,	12
48,35	,	57016	,	-33067	,	-30607	,	15.122537	,	6
48,35	,	57032	,	-33101	,	-30573	,	13.136971	,	2
48,35	,	57064	,	-33086	,	-30586	,	11.144717	,	0
48,35	,	57080	,	-33074	,	-30585	,	9.043135	,	0
48,36	,	57112	,	-33098	,	-30589	,	6.991119	,	0
48,36	,	57128	,	-33075	,	-30594	,	5.1241255	,	0
48,36	,	57144	,	-33080	,	-30595	,	3.552793	,	0
48,36	,	57176	,	-33103	,	-30596	,	2.3479662	,	0
48,36	,	57192	,	-33091	,	-30597	,	1.2666605	,	0
48,36	,	57208	,	-33098	,	-30598	,	0.056117773	,	0
48,36	,	57240	,	-33120	,	-30601	,	-1.3675392	,	0
48,36	,	57256	,	-33110	,	-30611	,	-3.135788	,	0
48,36	,	57288	,	-33109	,	-30590	,	-5.2048106	,	0
48,36	,	57304	,	-33115	,	-30600	,	-7.2170644	,	0
48,36	,	57320	,	-33118	,	-30606	,	-8.852477	,	0
48,36	,	57352	,	-33134	,	-30608	,	-10.067319	,	0
48,36	,	57368	,	-33132	,	-30597	,	-11.037434	,	0
48,36	,	57384	,	-33142	,	-30612	,	-11.947905	,	0
48,36	,	57416	,	-33135	,	-30607	,	-12.818657	,	0
48,36	,	57432	,	-33155	,	-30610	,	-13.566689	,	0
48,36	,	57448	,	-33189	,	-30618	,	-14.37192	,	0
48,36	,	57480	,	-33145	,	-30611	,	-15.5756	,	0
48,36	,	57496	,	-33147	,	-30630	,	-16.872793	,	0
48,36	,	57528	,	-33158	,	-30601	,	-17.464756	,	0
48,36	,	57544	,	-33165	,	-30631	,	-17.046825	,	0
48,36	,	57560	,	-33179	,	-30632	,	-15.965492	,	0
48,36	,	57592	,	-33179	,	-30622	,	-14.777355	,	1
48,36	,	57608	,	-33186	,	-30626	,	-13.893463	,	2
48,36	,	57624	,	-33206	,	-30630	,	-13.533573	,	2
48,36	,	57656	,	-33210	,	-30626	,	-13.886247	,	2
48,36	,	57672	,	-33206	,	-30621	,	-14.964384	,	2
48,36	,	57704	,	-33193	,	-30624	,	-16.33533	,	2
48,36	,	57720	,	-33172	,	-30631	,	-17.166409	,	2
48,36	,	57736	,	-33179	,	-30632	,	-16.628181	,	2
48,36	,	57768	,	-33152	,	-30609	,	-14.316825	,	2
48,36	,	57784	,	-33130	,	-30624	,	-10.139678	,	3
48,36	,	57800	,	-33132	,	-30610	,	-4.1631966	,	6
48,36	,	57832	,	-33141	,	-30609	,	3.0065522	,	11
48,36	,	57848	,	-33122	,	-30604	,	10.2464695	,	18
48,36	,	57880	,	-33125	,	-30603	,	16.584646	,	25
48,36	,	57896	,	-33110	,	-30601	,	21.520681	,	31
48,36	,	57912	,	-33123	,	-30606	,	24.847033	,	35
48,36	,	57944	,	-33111	,	-30597	,	26.468071	,	38
48,36	,	57960	,	-33124	,	-30603	,	26.398613	,	39
48,36	,	57976	,	-33110	,	-30613	,	24.828665	,	37
48,36	,	58008	,	-33118	,	-30586	,	22.124752	,	33
48,36	,	58024	,	-33098	,	-30600	,	18.799105	,	28
48,36	,	58056	,	-33104	,	-30602	,	15.449213	,	21
48,36	,	58072	,	-33093	,	-30594	,	12.581748	,	14
48,36	,	58088	,	-33092	,	-30596	,	10.475613	,	8
48,37	,	58120	,	-33085	,	-30600	,	9.21826	,	4
48,37	,	58135	,	-33089	,	-30601	,	8.731173	,	1
48,37	,	58152	,	-33102	,	-30602	,	8.6993885	,	0
48,37	,	58184	,	-33108	,	-30598	,	8.575172	,	0
48,37	,	58200	,	-33091	,	-30610	,	7.9187965	,	0
48,37	,	58232	,	-33093	,	-30623	,	6.773273	,	0
48,37	,	58248	,	-33113	,	-30604	,	5.3849196	,	0
48,37	,	58263	,	-33134	,	-30607	,	3.6273026	,	0
48,37	,	58295	,	-33119	,	-30605	,	1.1557448	,	0
48,37	,	58311	,	-33104	,	-30606	,	-1.8590949	,	0
48,37	,	58328	,	-33138	,	-30613	,	-4.783334	,	0
48,37	,	58360	,	-33136	,	-30599	,	-7.3338294	,	0
48,37	,	58375	,	-33155	,	-30617	,	-9.705815	,	0
48,37	,	58392	,	-33139	,	-30617	,	-12.037951	,	0
48,37	,	58423	,	-33121	,	-30614	,	-14.007732	,	0
48,37	,	58440	,	-33142	,	-30630	,	-15.007772	,	0
48,37	,	58472	,	-33145	,	-30608	,	-14.846577	,	0
48,37	,	58488	,	-33151	,	-30621	,	-13.906751	,	0
48,37	,	58504	,	-33149	,	-30621	,	-12.658492	,	0
48,37	,	58535	,	-33161	,	-30615	,	-11.425306	,	1
48,37	,	58551	,	-33161	,	-30621	,	-10.450436	,	2
48,37	,	58568	,	-33174	,	-30620	,	-9.92419	,	2
48,37	,	58600	,	-33173	,	-30633	,	-9.946445	,	2
48,37	,	58616	,	-33190	,	-30617	,	-10.526486	,	2
48,37	,	58647	,	-33187	,	-30633	,	-11.608008	,	2
48,37	,	58663	,	-33189	,	-30624	,	-13.00428	,	2
48,37	,	58679	,	-33206	,	-30648	,	-14.452177	,	2
48,37	,	58711	,	-33196	,	-30610	,	-15.782252	,	2
48,37	,	58728	,	-33213	,	-30640	,	-16.871944	,	1
48,37	,	58744	,	-33235	,	-30642	,	-17.74297	,	0
48,37	,	58776	,	-33228	,	-30629	,	-18.653702	,	0
48,37	,	58792	,	-33184	,	-30640	,	-19.472473	,	0
48,37	,	58808	,	-33186	,	-30630	,	-19.28978	,	0
48,37	,	58839	,	-33185	,	-30626	,	-17.261309	,	0
48,37	,	58855	,	-33158	,	-30628	,	-13.284559	,	2
48,37	,	58887	,	-33182	,	-30625	,	-7.781928	,	5
48,37	,	58903	,	-33158	,	-30621	,	-1.5299854	,	10
48,37	,	58919	,	-33151	,	-30631	,	4.668999	,	16
48,37	,	58951	,	-33156	,	-30627	,	10.311804	,	22
48,37	,	58967	,	-33160	,	-30633	,	14.939466	,	27
48,37	,	58983	,	-33170	,	-30629	,	18.005333	,	31
48,37	,	59015	,	-33151	,	-30613	,	19.199335	,	34
48,37	,	59032	,	-33155	,	-30626	,	18.729607	,	35
48,37	,	59063	,	-33163	,	-30620	,	17.082174	,	33
48,37	,	59079	,	-33181	,	-30615	,	14.530767	,	30
48,37	,	59095	,	-33158	,	-30623	,	11.197125	,	25
48,38	,	59127	,	-33143	,	-30628	,	7.5823936	,	19
48,38	,	59143	,	-33142	,	-30626	,	4.5756707	,	13
48,38	,	59159	,	-33124	,	-30637	,	2.8949146	,	8
48,38	,	59191	,	-33131	,	-30623	,	2.8012743	,	4
48,38	,	59207	,	-33178	,	-30626	,	3.8420055	,	1
48,38	,	59224	,	-33136	,	-30619	,	4.943627	,	1
48,38	,	59255	,	-33134	,	-30627	,	5.4927926	,	2
48,38	,	59271	,	-33173	,	-30627	,	5.544857	,	2
48,38	,	59303	,	-33167	,	-30625	,	4.9057417	,	2
48,38	,	59319	,	-33164	,	-30636	,	3.2807977	,	2
48,38	,	59335	,	-33171	,	-30637	,	0.8652346	,	2
48,38	,	59367	,	-33171	,	-30626	,	-1.8954697	,	2
48,38	,	59383	,	-33180	,	-30634	,	-4.6350965	,	2
48,38	,	59399	,	-33185	,	-30654	,	-7.1392374	,	2
48,38	,	59431	,	-33207	,	-30634	,	-9.417263	,	1
48,38	,	59447	,	-33178	,	-30639	,	-11.531544	,	0
48,38	,	59479	,	-33190	,	-30627	,	-13.227347	,	0
48,38	,	59495	,	-33212	,	-30636	,	-14.216455	,	0
48,38	,	59511	,	-33211	,	-30640	,	-14.699955	,	0
48,38	,	59543	,	-33190	,	-30639	,	-14.93965	,	0
48,38	,	59559	,	-33210	,	-30644	,	-14.794071	,	0
48,38	,	59575	,	-33229	,	-30640	,	-14.238728	,	0
48,38	,	59607	,	-33203	,	-30645	,	-13.588692	,	0
48,38	,	59623	,	-33220	,	-30645	,	-12.948776	,	0
48,38	,	59655	,	-33220	,	-30661	,	-12.214559	,	0
48,38	,	59671	,	-33234	,	-30647	,	-11.476629	,	0
48,38	,	59687	,	-33224	,	-30647	,	-10.9253235	,	0
48,38	,	59719	,	-33269	,	-30652	,	-10.757595	,	0
48,38	,	59735	,	-33262	,	-30655	,	-11.341032	,	0
48,38	,	59751	,	-33255	,	-30647	,	-12.856045	,	0
48,38	,	59783	,	-33251	,	-30652	,	-14.81968	,	0
48,38	,	59799	,	-33230	,	-30648	,	-16.329308	,	0
48,38	,	59815	,	-33221	,	-30644	,	-16.485573	,	0
48,38	,	59847	,	-33199	,	-30638	,	-14.637346	,	0
48,38	,	59863	,	-33182	,	-30635	,	-10.505045	,	1
48,38	,	59895	,	-33185	,	-30633	,	-4.2741604	,	5
48,38	,	59911	,	-33162	,	-30635	,	3.3545036	,	11
48,38	,	59927	,	-33186	,	-30634	,	11.338391	,	18
48,38	,	59959	,	-33176	,	-30627	,	18.468874	,	25
48,38	,	59975	,	-33166	,	-30629	,	23.758373	,	32
48,38	,	59991	,	-33176	,	-30626	,	26.825752	,	37
48,38	,	60023	,	-33152	,	-30624	,	27.782192	,	40
48,38	,	60039	,	-33191	,	-30625	,	26.9319	,	40
48,38	,	60071	,	-33145	,	-30638	,	24.614323	,	39
48,38	,	60087	,	-33183	,	-30635	,	21.301996	,	35
48,38	,	60103	,	-33153	,	-30632	,	17.53043	,	29
48,39	,	60135	,	-33163	,	-30626	,	13.76338	,	22
48,39	,	60151	,	-33152	,	-30626	,	10.44496	,	15
48,39	,	60167	,	-33139	,	-30625	,	7.958503	,	8
48,39	,	60199	,	-33152	,	-30621	,	6.5317903	,	3
48,39	,	60215	,	-33146	,	-30630	,	6.0494413	,	0
48,39	,	60231	,	-33143	,	-30643	,	6.139078	,	0
48,39	,	60263	,	-33144	,	-30624	,	6.490439	,	0
48,39	,	60279	,	-33155	,	-30628	,	6.8260126	,	0
48,39	,	60311	,	-33172	,	-30632	,	6.7242336	,	0
48,39	,	60327	,	-33149	,	-30627	,	5.8185616	,	0
48,39	,	60343	,	-33164	,	-30632	,	4.1872225	,	0
48,39	,	60375	,	-33177	,	-30615	,	2.125506	,	0
48,39	,	60391	,	-33169	,	-30625	,	-0.23780394	,	0
48,39	,	60407	,	-33199	,	-30628	,	-2.8570452	,	0
48,39	,	60439	,	-33187	,	-30624	,	-5.717284	,	0
48,39	,	60455	,	-33157	,	-30626	,	-8.52441	,	0
48,39	,	60487	,	-33198	,	-30627	,	-10.617091	,	0
48,39	,	60503	,	-33169	,	-30627	,	-11.656646	,	0
48,39	,	60519	,	-33195	,	-30633	,	-11.772839	,	0
48,39	,	60551	,	-33203	,	-30623	,	-11.318715	,	0
48,39	,	60567	,	-33196	,	-30630	,	-10.778231	,	0
48,39	,	60583	,	-33177	,	-30635	,	-10.295225	,	0
48,39	,	60615	,	-33205	,	-30620	,	-9.631556	,	0
48,39	,	60631	,	-33207	,	-30636	,	-8.8091755	,	0
48,39	,	60647	,	-33215	,	-30633	,	-8.207516	,	0
48,39	,	60679	,	-33201	,	-30630	,	-8.0449505	,	0
48,39	,	60695	,	-33200	,	-30637	,	-8.117098	,	0
48,39	,	60727	,	-33203	,	-30627	,	-8.040308	,	0
48,39	,	60743	,	-33242	,	-30638	,	-7.789276	,	0
48,39	,	60759	,	-33225	,	-30638	,	-7.84019	,	0
48,39	,	60791	,	-33237	,	-30649	,	-8.550703	,	0
48,39	,	60806	,	-33239	,	-30641	,	-9.810146	,	0
48,39	,	60823	,	-33212	,	-30650	,	-11.193914	,	0
48,39	,	60854	,	-33209	,	-30626	,	-11.985179	,	0
48,39	,	60871	,	-33191	,	-30632	,	-11.42865	,	0
48,39	,	60903	,	-33149	,	-30613	,	-8.955848	,	0
48,39	,	60919	,	-33142	,	-30621	,	-4.125332	,	2
48,39	,	60935	,	-33159	,	-30614	,	2.8989053	,	6
48,39	,	60967	,	-33151	,	-30617	,	10.935736	,	13
48,39	,	60983	,	-33143	,	-30609	,	18.47197	,	21
48,39	,	60999	,	-33102	,	-30599	,	24.66961	,	28
48,39	,	61031	,	-33137	,	-30606	,	29.416721	,	34
48,39	,	61047	,	-33124	,	-30606	,	32.55168	,	38
48,39	,	61063	,	-33127	,	-30623	,	33.722984	,	41
48,39	,	61095	,	-33146	,	-30597	,	32.78216	,	42
48,40	,	61111	,	-33116	,	-30595	,	29.877346	,	40
48,40	,	61143	,	-33111	,	-30599	,	25.670597	,	36
48,40	,	61159	,	-33103	,	-30592	,	21.232822	,	29
48,40	,	61174	,	-33086	,	-30589	,	17.501297	,	21
48,40	,	61206	,	-33076	,	-30598	,	15.1105795	,	14
48,40	,	61222	,	-33086	,	-30591	,	14.277966	,	8
48,40	,	61238	,	-33096	,	-30591	,	14.560486	,	4
48,40	,	61271	,	-33101	,	-30585	,	15.047913	,	1
48,40	,	61287	,	-33060	,	-30586	,	15.11624	,	0
48,40	,	61319	,	-33082	,	-30604	,	14.854473	,	0
48,40	,	61334	,	-33046	,	-30581	,	14.636923	,	0
48,40	,	61350	,	-33059	,	-30588	,	14.74938	,	0
48,40	,	61382	,	-33064	,	-30596	,	15.212837	,	0
48,40	,	61398	,	-33052	,	-30595	,	15.690863	,	0
48,40	,	61415	,	-33056	,	-30596	,	15.861013	,	0
48,40	,	61447	,	-33057	,	-30590	,	15.587507	,	0
48,40	,	61463	,	-33057	,	-30589	,	14.773496	,	0
48,40	,	61478	,	-33060	,	-30600	,	13.387157	,	0
48,40	,	61511	,	-33058	,	-30587	,	11.507404	,	0
48,40	,	61527	,	-33071	,	-30590	,	9.250034	,	0
48,40	,	61558	,	-33056	,	-30601	,	6.7378016	,	0
48,40	,	61574	,	-33060	,	-30575	,	4.2218843	,	0
48,40	,	61591	,	-33078	,	-30589	,	1.9437785	,	0
48,40	,	61622	,	-33096	,	-30593	,	-0.24460936	,	0
48,40	,	61638	,	-33080	,	-30594	,	-2.6834397	,	0
48,40	,	61654	,	-33075	,	-30598	,	-5.275404	,	0
48,40	,	61686	,	-33096	,	-30598	,	-7.568743	,	0
48,40	,	61703	,	-33093	,	-30598	,	-9.369863	,	0
48,40	,	61734	,	-33115	,	-30593	,	-10.837557	,	0
48,40	,	61750	,	-33113	,	-30589	,	-12.227203	,	0
48,40	,	61766	,	-33087	,	-30595	,	-13.532551	,	0
48,40	,	61798	,	-33097	,	-30603	,	-14.278757	,	0
48,40	,	61814	,	-33124	,	-30598	,	-14.14476	,	0
48,40	,	61830	,	-33110	,	-30607	,	-13.452009	,	0
48,40	,	61862	,	-33122	,	-30608	,	-12.645651	,	0
48,40	,	61878	,	-33121	,	-30590	,	-11.914459	,	0
48,40	,	61895	,	-33069	,	-30593	,	-11.067778	,	0
48,40	,	61926	,	-33048	,	-30591	,	-9.2352085	,	0
48,40	,	61943	,	-33041	,	-30595	,	-5.389039	,	1
48,40	,	61974	,	-33029	,	-30590	,	0.68310356	,	4
48,40	,	61990	,	-33019	,	-30573	,	8.329811	,	10
48,40	,	62006	,	-33022	,	-30584	,	16.499317	,	17
48,40	,	62038	,	-33017	,	-30588	,	24.022627	,	25
48,40	,	62054	,	-33017	,	-30554	,	29.89176	,	32
48,40	,	62070	,	-33001	,	-30572	,	33.561832	,	37
48,40	,	62102	,	-33003	,	-30562	,	35.03409	,	40
48,41	,	62118	,	-32996	,	-30571	,	34.63951	,	41
48,41	,	62150	,	-32996	,	-30570	,	32.798897	,	40
48,41	,	62166	,	-32991	,	-30564	,	29.953728	,	37
48,41	,	62182	,	-32983	,	-30566	,	26.56668	,	31
48,41	,	62214	,	-32978	,	-30561	,	23.113985	,	24
48,41	,	62230	,	-32992	,	-30551	,	19.922989	,	16
48,41	,	62246	,	-32978	,	-30551	,	17.04049	,	9
48,41	,	62278	,	-32964	,	-30574	,	14.518848	,	4
48,41	,	62294	,	-32966	,	-30551	,	12.617478	,	1
48,41	,	62310	,	-32970	,	-30559	,	11.466142	,	0
48,41	,	62342	,	-32958	,	-30559	,	10.891903	,	0
48,41	,	62358	,	-32967	,	-30556	,	10.654604	,	0
48,41	,	62390	,	-32975	,	-30566	,	10.465578	,	0
48,41	,	62406	,	-32985	,	-30569	,	9.887927	,	0
48,41	,	62422	,	-32972	,	-30555	,	8.589834	,	0
48,41	,	62454	,	-32971	,	-30563	,	6.6758604	,	0
48,41	,	62470	,	-32982	,	-30561	,	4.530585	,	0
48,41	,	62486	,	-33004	,	-30560	,	2.2951074	,	0
48,41	,	62518	,	-32991	,	-30580	,	-0.19619274	,	0
48,41	,	62534	,	-32983	,	-30551	,	-2.8611066	,	0
48,41	,	62566	,	-33001	,	-30569	,	-5.267684	,	0
48,41	,	62582	,	-33005	,	-30561	,	-7.191845	,	0
48,41	,	62598	,	-33002	,	-30549	,	-8.718266	,	0
48,41	,	62630	,	-32991	,	-30564	,	-9.814669	,	0
48,41	,	62646	,	-33000	,	-30575	,	-10.258965	,	0
48,41	,	62662	,	-33012	,	-30573	,	-10.019276	,	0
48,41	,	62694	,	-33047	,	-30580	,	-9.585435	,	0
48,41	,	62710	,	-33012	,	-30568	,	-9.642202	,	0
48,41	,	62726	,	-33025	,	-30591	,	-10.286988	,	0
48,41	,	62758	,	-33037	,	-30604	,	-11.121647	,	0
48,41	,	62774	,	-33032	,	-30566	,	-11.915695	,	0
48,41	,	62806	,	-33050	,	-30589	,	-12.64414	,	0
48,41	,	62822	,	-33040	,	-30595	,	-13.30772	,	0
48,41	,	62838	,	-33065	,	-30598	,	-13.922251	,	0
48,41	,	62870	,	-33046	,	-30595	,	-14.494526	,	0
48,41	,	62886	,	-33053	,	-30593	,	-14.8892975	,	0
48,41	,	62902	,	-33034	,	-30588	,	-14.769514	,	0
48,41	,	62934	,	-33018	,	-30586	,	-13.682409	,	0
48,41	,	62950	,	-33000	,	-30581	,	-11.145271	,	1
48,41	,	62982	,	-32993	,	-30572	,	-6.8935533	,	3
48,41	,	62998	,	-32989	,	-30601	,	-1.1545029	,	7
48,41	,	63014	,	-33002	,	-30548	,	5.297859	,	12
48,41	,	63046	,	-32980	,	-30565	,	11.432331	,	18
48,41	,	63062	,	-32978	,	-30572	,	16.527874	,	24
48,41	,	63078	,	-32958	,	-30567	,	20.42131	,	29
48,42	,	63110	,	-32977	,	-30564	,	23.185593	,	32
48,42	,	63126	,	-32970	,	-30581	,	24.729315	,	34
48,42	,	63158	,	-32982	,	-30583	,	24.827755	,	34
48,42	,	63174	,	-32996	,	-30570	,	23.311577	,	32
48,42	,	63190	,	-32970	,	-30577	,	20.236748	,	28
48,42	,	63222	,	-32970	,	-30566	,	16.183887	,	23
48,42	,	63238	,	-32975	,	-30601	,	12.026153	,	17
48,42	,	63254	,	-32957	,	-30539	,	8.408134	,	11
48,42	,	63286	,	-32970	,	-30565	,	5.704523	,	6
48,42	,	63302	,	-33002	,	-30566	,	3.8272467	,	3
48,42	,	63318	,	-32960	,	-30576	,	2.2688932	,	1
48,42	,	63350	,	-32974	,	-30563	,	0.8828888	,	0
48,42	,	63366	,	-32974	,	-30565	,	-0.08329642	,	0
48,42	,	63398	,	-32985	,	-30573	,	-0.63720834	,	0
48,42	,	63414	,	-32977	,	-30565	,	-1.0313238	,	0
48,42	,	63430	,	-32991	,	-30575	,	-1.4600965	,	0
48,42	,	63462	,	-32986	,	-30577	,	-2.0302505	,	0
48,42	,	63478	,	-33011	,	-30598	,	-2.864222	,	0
48,42	,	63494	,	-32991	,	-30556	,	-4.082617	,	0
48,42	,	63525	,	-33004	,	-30577	,	-5.583542	,	0
48,42	,	63542	,	-32997	,	-30576	,	-7.044934	,	0
48,42	,	63574	,	-33028	,	-30579	,	-8.296263	,	0
48,42	,	63590	,	-33013	,	-30582	,	-9.471571	,	0
48,42	,	63606	,	-33011	,	-30588	,	-10.616468	,	0
48,42	,	63637	,	-33022	,	-30577	,	-11.496386	,	0
48,42	,	63654	,	-33029	,	-30586	,	-11.995987	,	0
48,42	,	63670	,	-33056	,	-30579	,	-12.383109	,	0
48,42	,	63702	,	-33023	,	-30582	,	-12.983037	,	0
48,42	,	63718	,	-33052	,	-30616	,	-13.730759	,	0
48,42	,	63734	,	-33046	,	-30576	,	-14.383782	,	0
48,42	,	63765	,	-33038	,	-30593	,	-14.799898	,	0
48,42	,	63781	,	-33091	,	-30590	,	-14.989788	,	0
48,42	,	63813	,	-33065	,	-30590	,	-15.319105	,	0
48,42	,	63830	,	-33071	,	-30596	,	-16.035543	,	0
48,42	,	63846	,	-33061	,	-30599	,	-16.787615	,	0
48,42	,	63878	,	-33112	,	-30605	,	-17.261618	,	0
48,42	,	63894	,	-33077	,	-30593	,	-17.641441	,	0
48,42	,	63909	,	-33055	,	-30595	,	-17.85254	,	0
48,42	,	63941	,	-33060	,	-30583	,	-17.159887	,	0
48,42	,	63957	,	-33031	,	-30610	,	-14.900649	,	0
48,42	,	63989	,	-33003	,	-30558	,	-10.735668	,	2
48,42	,	64006	,	-33000	,	-30576	,	-4.5081034	,	6
48,42	,	64022	,	-32997	,	-30575	,	3.3859696	,	12
48,42	,	64053	,	-33003	,	-30577	,	11.850988	,	19
48,42	,	64069	,	-33001	,	-30568	,	19.519844	,	27
48,42	,	64085	,	-32996	,	-30577	,	25.308575	,	34
48,43	,	64118	,	-33007	,	-30581	,	28.665289	,	39
48,43	,	64134	,	-32986	,	-30578	,	29.533226	,	42
48,43	,	64149	,	-32995	,	-30573	,	28.319897	,	42
48,43	,	64182	,	-33019	,	-30579	,	25.53109	,	40
48,43	,	64197	,	-32995	,	-30600	,	21.461548	,	36
48,43	,	64229	,	-33010	,	-30560	,	16.53833	,	30
48,43	,	64245	,	-32995	,	-30565	,	11.435542	,	23
48,43	,	64261	,	-32994	,	-30571	,	6.8247337	,	15
48,43	,	64293	,	-32991	,	-30564	,	3.2446465	,	8
48,43	,	64309	,	-32988	,	-30569	,	0.96518135	,	3
48,43	,	64325	,	-33004	,	-30570	,	-0.11192012	,	0
48,43	,	64357	,	-32993	,	-30580	,	-0.38430786	,	0
48,43	,	64374	,	-33002	,	-30574	,	-0.27806017	,	0
48,43	,	64405	,	-32992	,	-30573	,	-0.050877016	,	0
48,43	,	64421	,	-33008	,	-30576	,	0.14123513	,	0
48,43	,	64437	,	-33007	,	-30603	,	0.11443797	,	0
48,43	,	64469	,	-33014	,	-30565	,	-0.31969422	,	0
48,43	,	64485	,	-33016	,	-30579	,	-1.2315023	,	0
48,43	,	64501	,	-33007	,	-30582	,	-2.499301	,	0
48,43	,	64533	,	-33034	,	-30579	,	-3.9166791	,	0
48,43	,	64549	,	-33030	,	-30591	,	-5.45826	,	0
48,43	,	64565	,	-33026	,	-30588	,	-7.1496973	,	0
48,43	,	64597	,	-33060	,	-30594	,	-8.908927	,	0
48,43	,	64613	,	-33045	,	-30592	,	-10.779249	,	0
48,43	,	64645	,	-33048	,	-30585	,	-12.732451	,	0
48,43	,	64661	,	-33036	,	-30585	,	-14.3664665	,	0
48,43	,	64677	,	-33054	,	-30626	,	-15.235529	,	0
48,43	,	64709	,	-33047	,	-30581	,	-15.235309	,	0
48,43	,	64725	,	-33043	,	-30597	,	-14.482499	,	0
48,43	,	64741	,	-33071	,	-30593	,	-13.187971	,	0
48,43	,	64773	,	-33050	,	-30594	,	-11.734186	,	1
48,43	,	64789	,	-33102	,	-30599	,	-10.600292	,	2
48,43	,	64821	,	-33091	,	-30606	,	-10.344119	,	3
48,43	,	64837	,	-33076	,	-30610	,	-11.210268	,	3
48,43	,	64854	,	-33077	,	-30607	,	-12.641329	,	3
48,43	,	64886	,	-33071	,	-30609	,	-13.751888	,	3
48,43	,	64901	,	-33094	,	-30603	,	-14.061863	,	3
48,43	,	64917	,	-33089	,	-30637	,	-13.669215	,	3
48,43	,	64949	,	-33110	,	-30598	,	-12.995354	,	3
48,43	,	64965	,	-33067	,	-30592	,	-12.298706	,	2
48,43	,	64982	,	-33034	,	-30594	,	-11.109971	,	1
48,43	,	65013	,	-33037	,	-30590	,	-8.434021	,	1
48,43	,	65029	,	-33019	,	-30591	,	-3.7769213	,	3
48,43	,	65061	,	-33019	,	-30582	,	2.4971647	,	7
48,43	,	65078	,	-33014	,	-30582	,	9.539402	,	13
48,43	,	65093	,	-33005	,	-30586	,	16.370255	,	20
48,44	,	65125	,	-33021	,	-30586	,	22.108128	,	26
48,44	,	65141	,	-33014	,	-30586	,	26.014084	,	31
48,44	,	65157	,	-33013	,	-30606	,	27.671162	,	34
48,44	,	65189	,	-33024	,	-30586	,	27.120281	,	35
48,44	,	65205	,	-33034	,	-30591	,	24.589611	,	34
48,44	,	65237	,	-33048	,	-30594	,	20.290627	,	32
48,44	,	65253	,	-33020	,	-30594	,	14.662071	,	28
48,44	,	65269	,	-33014	,	-30594	,	8.691585	,	22
48,44	,	65301	,	-33010	,	-30584	,	3.6017733	,	15
48,44	,	65317	,	-33015	,	-30588	,	0.14849949	,	9
48,44	,	65333	,	-33033	,	-30593	,	-1.6834469	,	4
48,44	,	65365	,	-33025	,	-30587	,	-2.4522376	,	1
48,44	,	65381	,	-33033	,	-30588	,	-2.7442307	,	0
48,44	,	65397	,	-33051	,	-30611	,	-2.9957414	,	0
48,44	,	65429	,	-33042	,	-30587	,	-3.5890334	,	0
48,44	,	65445	,	-33033	,	-30596	,	-4.5854864	,	0
48,44	,	65477	,	-33046	,	-30594	,	-5.6516304	,	0
48,44	,	65493	,	-33063	,	-30598	,	-6.597229	,	0
48,44	,	65509	,	-33075	,	-30606	,	-7.676285	,	0
48,44	,	65541	,	-33069	,	-30613	,	-9.204794	,	0
48,44	,	65557	,	-33068	,	-30604	,	-11.091862	,	0
48,44	,	65573	,	-33065	,	-30592	,	-12.867802	,	0
48,44	,	65605	,	-33113	,	-30607	,	-14.261497	,	0
48,44	,	65621	,	-33059	,	-30623	,	-15.3978	,	0
48,44	,	65653	,	-33060	,	-30632	,	-16.038084	,	0
48,44	,	65669	,	-33070	,	-30610	,	-15.537054	,	0
48,44	,	65685	,	-33108	,	-30629	,	-13.944923	,	0
48,44	,	65717	,	-33071	,	-30618	,	-12.070023	,	1
48,44	,	65733	,	-33090	,	-30623	,	-10.433296	,	2
48,44	,	65749	,	-33107	,	-30626	,	-9.156678	,	3
48,44	,	65781	,	-33100	,	-30635	,	-8.464691	,	4
48,44	,	65797	,	-33132	,	-30628	,	-8.594823	,	4
48,44	,	65813	,	-33124	,	-30630	,	-9.6718	,	4
48,44	,	65845	,	-33153	,	-30628	,	-11.709584	,	4
48,44	,	65861	,	-33109	,	-30640	,	-14.377441	,	4
48,44	,	65893	,	-33156	,	-30664	,	-16.982473	,	4
48,44	,	65909	,	-33129	,	-30632	,	-18.97382	,	3
48,44	,	65925	,	-33148	,	-30632	,	-20.14623	,	2
48,44	,	65957	,	-33155	,	-30636	,	-20.484509	,	1
48,44	,	65973	,	-33117	,	-30629	,	-20.006691	,	0
48,44	,	65989	,	-33124	,	-30618	,	-18.44424	,	0
48,44	,	66021	,	-33123	,	-30612	,	-15.54023	,	1
48,44	,	66037	,	-33104	,	-30628	,	-11.481538	,	3
48,44	,	66069	,	-33080	,	-30630	,	-6.493885	,	7
48,44	,	66084	,	-33097	,	-30627	,	-0.7073078	,	11
48,44	,	66101	,	-33097	,	-30630	,	5.3347425	,	16
48,45	,	66132	,	-33078	,	-30637	,	10.788633	,	22
48,45	,	66149	,	-33108	,	-30622	,	15.02713	,	27
48,45	,	66165	,	-33104	,	-30629	,	17.55245	,	31
48,45	,	66197	,	-33137	,	-30625	,	17.867031	,	33
48,45	,	66213	,	-33118	,	-30631	,	15.752287	,	32
48,45	,	66244	,	-33140	,	-30608	,	11.537779	,	30
48,45	,	66260	,	-33112	,	-30624	,	6.0737696	,	26
48,45	,	66276	,	-33100	,	-30626	,	0.5929284	,	22
48,45	,	66309	,	-33105	,	-30627	,	-3.6309786	,	17
48,45	,	66325	,	-33134	,	-30622	,	-6.062539	,	11
48,45	,	66341	,	-33135	,	-30632	,	-7.1958985	,	6
48,45	,	66373	,	-33133	,	-30643	,	-7.825234	,	2
48,45	,	66389	,	-33106	,	-30630	,	-8.213069	,	0
48,45	,	66405	,	-33107	,	-30643	,	-8.001125	,	0
48,45	,	66437	,	-33120	,	-30637	,	-6.861556	,	0
48,45	,	66453	,	-33154	,	-30648	,	-5.185089	,	1
48,45	,	66485	,	-33144	,	-30644	,	-3.9343584	,	2
48,45	,	66501	,	-33169	,	-30644	,	-3.8753762	,	3
48,45	,	66517	,	-33167	,	-30646	,	-5.2503543	,	3
48,45	,	66548	,	-33155	,	-30641	,	-7.7844715	,	3
48,45	,	66564	,	-33159	,	-30646	,	-10.696654	,	3
48,45	,	66580	,	-33162	,	-30650	,	-13.141637	,	3
48,45	,	66613	,	-33175	,	-30652	,	-14.71936	,	3
48,45	,	66629	,	-33184	,	-30640	,	-15.534401	,	3
48,45	,	66660	,	-33178	,	-30642	,	-15.889595	,	2
48,45	,	66676	,	-33182	,	-30656	,	-15.925033	,	1
48,45	,	66692	,	-33163	,	-30657	,	-15.518886	,	0
48,45	,	66724	,	-33202	,	-30659	,	-14.562315	,	0
48,45	,	66740	,	-33201	,	-30657	,	-13.382685	,	0
48,45	,	66756	,	-33189	,	-30653	,	-12.474422	,	1
48,45	,	66788	,	-33197	,	-30651	,	-11.884682	,	1
48,45	,	66804	,	-33210	,	-30663	,	-11.443254	,	1
48,45	,	66820	,	-33209	,	-30660	,	-11.183584	,	1
48,45	,	66853	,	-33216	,	-30663	,	-11.194144	,	1
48,45	,	66869	,	-33213	,	-30661	,	-11.433972	,	1
48,45	,	66900	,	-33223	,	-30667	,	-11.776257	,	1
48,45	,	66916	,	-33204	,	-30653	,	-12.029444	,	1
48,45	,	66932	,	-33211	,	-30657	,	-11.895762	,	1
48,45	,	66964	,	-33161	,	-30652	,	-10.903958	,	0
48,45	,	66980	,	-33191	,	-30646	,	-8.535467	,	0
48,45	,	66996	,	-33173	,	-30651	,	-4.7708263	,	2
48,45	,	67028	,	-33187	,	-30652	,	-0.2567649	,	5
48,45	,	67044	,	-33145	,	-30651	,	4.3256736	,	9
48,45	,	67076	,	-33177	,	-30648	,	8.641802	,	13
48,45	,	67092	,	-33156	,	-30643	,	12.390263	,	17
48,46	,	67108	,	-33138	,	-30641	,	15.32008	,	20
48,46	,	67140	,	-33170	,	-30648	,	17.41861	,	22
48,46	,	67156	,	-33153	,	-30647	,	18.541584	,	24
48,46	,	67172	,	-33118	,	-30637	,	18.665466	,	25
48,46	,	67204	,	-33148	,	-30642	,	18.290264	,	23
48,46	,	67220	,	-33144	,	-30640	,	17.716923	,	20
48,46	,	67236	,	-33123	,	-30640	,	16.835766	,	16
48,46	,	67268	,	-33149	,	-30634	,	15.658085	,	12
48,46	,	67284	,	-33111	,	-30639	,	14.322149	,	8
48,46	,	67316	,	-33134	,	-30633	,	13.028795	,	5
48,46	,	67332	,	-33146	,	-30631	,	11.82155	,	3
48,46	,	67348	,	-33134	,	-30638	,	10.400256	,	1
48,46	,	67380	,	-33144	,	-30621	,	8.572529	,	0
48,46	,	67396	,	-33142	,	-30631	,	6.428868	,	0
48,46	,	67412	,	-33143	,	-30640	,	4.136246	,	0
48,46	,	67444	,	-33117	,	-30642	,	2.0208192	,	0
48,46	,	67460	,	-33149	,	-30630	,	0.4923818	,	0
48,46	,	67492	,	-33153	,	-30639	,	-0.4716543	,	0
48,46	,	67508	,	-33149	,	-30636	,	-1.312839	,	0
48,46	,	67524	,	-33146	,	-30629	,	-2.2578228	,	0
48,46	,	67556	,	-33135	,	-30637	,	-3.119432	,	0
48,46	,	67572	,	-33180	,	-30637	,	-3.764996	,	0
48,46	,	67588	,	-33160	,	-30629	,	-4.4982862	,	0
48,46	,	67620	,	-33172	,	-30639	,	-5.6323843	,	0
48,46	,	67636	,	-33167	,	-30636	,	-7.0615854	,	0
48,46	,	67652	,	-33137	,	-30645	,	-8.326501	,	0
48,46	,	67684	,	-33183	,	-30641	,	-8.9096365	,	0
48,46	,	67700	,	-33192	,	-30647	,	-8.935947	,	0
48,46	,	67732	,	-33189	,	-30643	,	-9.11959	,	0
48,46	,	67748	,	-33179	,	-30644	,	-9.784775	,	0
48,46	,	67764	,	-33182	,	-30641	,	-10.609077	,	0
48,46	,	67796	,	-33185	,	-30654	,	-11.1524105	,	0
48,46	,	67812	,	-33210	,	-30644	,	-11.334265	,	0
48,46	,	67828	,	-33205	,	-30642	,	-11.475065	,	0
48,46	,	67860	,	-33193	,	-30645	,	-11.788414	,	0
48,46	,	67876	,	-33220	,	-30650	,	-12.14234	,	0
48,46	,	67908	,	-33213	,	-30641	,	-12.472382	,	0
48,46	,	67924	,	-33203	,	-30643	,	-12.772513	,	0
48,46	,	67940	,	-33208	,	-30642	,	-12.7871	,	0
48,46	,	67972	,	-33190	,	-30644	,	-12.174526	,	0
48,46	,	67988	,	-33186	,	-30640	,	-10.667605	,	0
48,46	,	68004	,	-33162	,	-30629	,	-8.04454	,	1
48,46	,	68036	,	-33135	,	-30633	,	-4.062567	,	3
48,46	,	68052	,	-33125	,	-30624	,	1.4913092	,	6
48,46	,	68068	,	-33108	,	-30635	,	8.495029	,	11
48,46	,	68100	,	-33108	,	-30609	,	16.345028	,	18
48,47	,	68116	,	-33090	,	-30625	,	24.160156	,	25
48,47	,	68148	,	-33087	,	-30604	,	31.108183	,	32
48,47	,	68164	,	-33097	,	-30603	,	36.495	,	38
48,47	,	68180	,	-33070	,	-30611	,	39.791985	,	43
48,47	,	68212	,	-33074	,	-30613	,	40.930588	,	45
48,47	,	68228	,	-33114	,	-30610	,	40.036278	,	44
48,47	,	68244	,	-33090	,	-30609	,	36.969326	,	41
48,47	,	68276	,	-33073	,	-30610	,	31.962656	,	36
48,47	,	68292	,	-33076	,	-30604	,	26.058933	,	29
48,47	,	68324	,	-33092	,	-30609	,	20.27583	,	22
48,47	,	68340	,	-33067	,	-30607	,	15.084346	,	15
48,47	,	68356	,	-33075	,	-30614	,	10.7854185	,	9
48,47	,	68388	,	-33068	,	-30612	,	7.6316957	,	4
48,47	,	68404	,	-33060	,	-30607	,	5.6845684	,	1
48,47	,	68420	,	-33074	,	-30601	,	4.8235483	,	0
48,47	,	68452	,	-33060	,	-30607	,	4.7345133	,	0
48,47	,	68468	,	-33064	,	-30598	,	5.063031	,	0
48,47	,	68484	,	-33073	,	-30599	,	5.516395	,	0
48,47	,	68516	,	-33064	,	-30619	,	5.7946053	,	0
48,47	,	68532	,	-33076	,	-30598	,	5.686962	,	0
48,47	,	68563	,	-33067	,	-30596	,	5.1303167	,	0
48,47	,	68579	,	-33077	,	-30597	,	4.168559	,	0
48,47	,	68595	,	-33070	,	-30607	,	2.9268906	,	0
48,47	,	68628	,	-33087	,	-30602	,	1.5184665	,	0
48,47	,	68644	,	-33097	,	-30602	,	-0.10655284	,	0
48,47	,	68660	,	-33120	,	-30611	,	-2.223726	,	0
48,47	,	68692	,	-33083	,	-30604	,	-4.958759	,	0
48,47	,	68708	,	-33084	,	-30608	,	-7.759949	,	0
48,47	,	68739	,	-33078	,	-30614	,	-9.693269	,	0
48,47	,	68755	,	-33102	,	-30627	,	-10.303434	,	0
48,47	,	68772	,	-33102	,	-30612	,	-9.902284	,	0
48,47	,	68803	,	-33078	,	-30613	,	-8.989634	,	0
48,47	,	68819	,	-33087	,	-30613	,	-7.670302	,	0
48,47	,	68835	,	-33132	,	-30617	,	-6.1228924	,	1
48,47	,	68867	,	-33131	,	-30617	,	-5.1683464	,	2
48,47	,	68884	,	-33108	,	-30625	,	-5.47745	,	2
48,47	,	68900	,	-33123	,	-30620	,	-6.769376	,	2
48,47	,	68932	,	-33150	,	-30617	,	-8.500815	,	2
48,47	,	68948	,	-33123	,	-30627	,	-10.489343	,	2
48,47	,	68979	,	-33136	,	-30619	,	-12.457037	,	2
48,47	,	68995	,	-33138	,	-30644	,	-13.950829	,	2
48,47	,	69011	,	-33116	,	-30616	,	-14.651678	,	2
48,47	,	69043	,	-33108	,	-30614	,	-14.207334	,	1
48,47	,	69059	,	-33117	,	-30611	,	-12.342886	,	0
48,47	,	69075	,	-33063	,	-30609	,	-9.044048	,	1
48,48	,	69107	,	-33066	,	-30599	,	-4.221362	,	4
48,48	,	69123	,	-33092	,	-30603	,	1.9363055	,	8
48,48	,	69155	,	-33054	,	-30602	,	8.497153	,	14
48,48	,	69172	,	-33079	,	-30598	,	14.448353	,	20
48,48	,	69187	,	-33090	,	-30598	,	18.99281	,	25
48,48	,	69219	,	-33072	,	-30606	,	21.45385	,	29
48,48	,	69235	,	-33055	,	-30625	,	21.829098	,	31
48,48	,	69251	,	-33063	,	-30584	,	20.83094	,	31
48,48	,	69283	,	-33062	,	-30599	,	19.136208	,	30
48,48	,	69299	,	-33069	,	-30604	,	17.032682	,	27
48,48	,	69331	,	-33061	,	-30599	,	14.62733	,	23
48,48	,	69348	,	-33059	,	-30600	,	12.092135	,	17
48,48	,	69363	,	-33040	,	-30598	,	9.770678	,	11
48,48	,	69395	,	-33048	,	-30599	,	8.078253	,	6
48,48	,	69411	,	-33051	,	-30603	,	7.1649046	,	2
48,48	,	69427	,	-33029	,	-30598	,	6.891617	,	0
48,48	,	69459	,	-33055	,	-30601	,	7.086734	,	0
48,48	,	69475	,	-33041	,	-30611	,	7.4592476	,	0
48,48	,	69491	,	-33033	,	-30580	,	7.713258	,	0
48,48	,	69523	,	-33050	,	-30598	,	7.7820954	,	0
48,48	,	69539	,	-33056	,	-30602	,	7.5226936	,	0
48,48	,	69571	,	-33045	,	-30607	,	6.6898603	,	0
48,48	,	69587	,	-33070	,	-30615	,	5.2307506	,	0
48,48	,	69603	,	-33060	,	-30607	,	3.1892183	,	0
48,48	,	69635	,	-33072	,	-30615	,	0.6588311	,	0
48,48	,	69651	,	-33061	,	-30607	,	-2.0897465	,	0
48,48	,	69667	,	-33062	,	-30609	,	-4.6281986	,	0
48,48	,	69699	,	-33058	,	-30620	,	-6.5116477	,	0
48,48	,	69715	,	-33071	,	-30630	,	-7.520917	,	0
48,48	,	69747	,	-33087	,	-30605	,	-7.868443	,	0
48,48	,	69763	,	-33079	,	-30617	,	-8.040348	,	0
48,48	,	69779	,	-33087	,	-30610	,	-8.3471985	,	0
48,48	,	69811	,	-33082	,	-30612	,	-8.774654	,	0
48,48	,	69827	,	-33093	,	-30624	,	-9.196824	,	0
48,48	,	69843	,	-33093	,	-30618	,	-9.5587635	,	0
48,48	,	69875	,	-33101	,	-30628	,	-9.898443	,	0
48,48	,	69891	,	-33147	,	-30624	,	-10.483847	,	0
48,48	,	69923	,	-33102	,	-30624	,	-11.719745	,	0
48,48	,	69939	,	-33120	,	-30630	,	-13.460709	,	0
48,48	,	69955	,	-33096	,	-30646	,	-14.943266	,	0
48,48	,	69987	,	-33124	,	-30603	,	-15.532208	,	0
48,48	,	70003	,	-33113	,	-30621	,	-15.135519	,	0
48,48	,	70019	,	-33111	,	-30612	,	-13.978089	,	0
48,48	,	70051	,	-33065	,	-30606	,	-12.021704	,	1
48,48	,	70067	,	-33040	,	-30602	,	-8.660282	,	2
48,48	,	70099	,	-33043	,	-30600	,	-3.2670202	,	5
48,49	,	70115	,	-33053	,	-30595	,	3.8718333	,	10
48,49	,	70131	,	-33045	,	-30584	,	11.517296	,	17
48,49	,	70163	,	-33035	,	-30593	,	18.373133	,	24
48,49	,	70179	,	-33020	,	-30588	,	23.751783	,	30
48,49	,	70195	,	-33016	,	-30602	,	27.555069	,	35
48,49	,	70227	,	-32995	,	-30564	,	30.000866	,	38
48,49	,	70243	,	-33016	,	-30543	,	31.33728	,	39
48,49	,	70275	,	-33023	,	-30590	,	31.481226	,	39
48,49	,	70291	,	-33029	,	-30581	,	30.055315	,	36
48,49	,	70307	,	-33006	,	-30588	,	26.990786	,	31
48,49	,	70339	,	-33006	,	-30583	,	22.87647	,	24
48,49	,	70355	,	-33013	,	-30590	,	18.52853	,	17
48,49	,	70371	,	-33018	,	-30578	,	14.403698	,	11
48,49	,	70403	,	-33018	,	-30586	,	10.598702	,	6
48,49	,	70419	,	-33005	,	-30602	,	7.212495	,	3
48,49	,	70435	,	-33006	,	-30569	,	4.5016265	,	1
48,49	,	70467	,	-33029	,	-30579	,	2.5715566	,	0
48,49	,	70483	,	-33013	,	-30579	,	1.1528137	,	0
48,49	,	70515	,	-33021	,	-30581	,	-0.024324417	,	0
48,49	,	70531	,	-33007	,	-30578	,	-0.9470743	,	0
48,49	,	70547	,	-33047	,	-30580	,	-1.6352258	,	0
48,49	,	70579	,	-33013	,	-30580	,	-2.3465714	,	0
48,49	,	70595	,	-33020	,	-30575	,	-3.1371243	,	0
48,49	,	70611	,	-33037	,	-30573	,	-3.795301	,	0
48,49	,	70643	,	-33033	,	-30584	,	-4.343061	,	0
48,49	,	70659	,	-33026	,	-30603	,	-4.899469	,	0
48,49	,	70691	,	-33033	,	-30577	,	-5.3600817	,	0
48,49	,	70707	,	-33032	,	-30577	,	-5.594348	,	0
48,49	,	70723	,	-33039	,	-30577	,	-5.620615	,	0
48,49	,	70755	,	-33041	,	-30583	,	-5.565159	,	0
48,49	,	70771	,	-33033	,	-30587	,	-5.517848	,	0
48,49	,	70787	,	-33048	,	-30591	,	-5.4645987	,	0
48,49	,	70819	,	-33048	,	-30580	,	-5.4494085	,	0
48,49	,	70835	,	-33053	,	-30585	,	-5.605501	,	0
48,49	,	70851	,	-33047	,	-30590	,	-5.9586678	,	0
48,49	,	70883	,	-33060	,	-30601	,	-6.4103537	,	0
48,49	,	70899	,	-33043	,	-30622	,	-6.835988	,	0
48,49	,	70930	,	-33073	,	-30585	,	-7.1569557	,	0
48,49	,	70947	,	-33070	,	-30606	,	-7.5052032	,	0
48,49	,	70963	,	-33101	,	-30596	,	-8.243974	,	0
48,49	,	70995	,	-33090	,	-30597	,	-9.707329	,	0
48,49	,	71011	,	-33100	,	-30607	,	-11.879629	,	0
48,49	,	71027	,	-33077	,	-30607	,	-14.261953	,	0
48,49	,	71059	,	-33072	,	-30596	,	-16.019482	,	0
48,49	,	71075	,	-33057	,	-30586	,	-16.31587	,	0
48,50	,	71107	,	-33019	,	-30579	,	-14.508991	,	0
48,50	,	71123	,	-33005	,	-30575	,	-10.126109	,	1
48,50	,	71139	,	-33014	,	-30576	,	-3.224287	,	5
48,50	,	71171	,	-33001	,	-30570	,	5.240269	,	11
48,50	,	71187	,	-33003	,	-30567	,	13.86811	,	19
48,50	,	71203	,	-33006	,	-30576	,	21.397587	,	27
48,50	,	71235	,	-33003	,	-30563	,	26.882877	,	34
48,50	,	71250	,	-33005	,	-30564	,	29.821173	,	39
48,50	,	71266	,	-33000	,	-30563	,	30.209723	,	41
48,50	,	71299	,	-32996	,	-30569	,	28.468136	,	41
48,50	,	71315	,	-33013	,	-30558	,	25.19925	,	40
48,50	,	71347	,	-32996	,	-30562	,	20.947308	,	36
48,50	,	71363	,	-32972	,	-30566	,	16.416304	,	30
48,50	,	71379	,	-32967	,	-30563	,	12.615182	,	22
48,50	,	71410	,	-32978	,	-30552	,	10.258149	,	14
48,50	,	71426	,	-32970	,	-30549	,	9.29541	,	7
48,50	,	71443	,	-32976	,	-30552	,	9.231079	,	2
48,50	,	71475	,	-32973	,	-30559	,	9.534682	,	0
48,50	,	71491	,	-32981	,	-30554	,	9.751162	,	0
48,50	,	71522	,	-32991	,	-30558	,	9.488386	,	0
48,50	,	71538	,	-32971	,	-30569	,	8.53117	,	0
48,50	,	71554	,	-32975	,	-30562	,	7.063652	,	0
48,50	,	71587	,	-32972	,	-30559	,	5.505487	,	0
48,50	,	71603	,	-32972	,	-30564	,	4.153244	,	0
48,50	,	71619	,	-32996	,	-30560	,	3.011285	,	0
48,50	,	71650	,	-32978	,	-30557	,	1.8401539	,	0
48,50	,	71667	,	-32985	,	-30561	,	0.5342735	,	0
48,50	,	71682	,	-32992	,	-30558	,	-0.7827928	,	0
48,50	,	71714	,	-32998	,	-30559	,	-2.0862157	,	0
48,50	,	71731	,	-33004	,	-30567	,	-3.4891965	,	0
48,50	,	71762	,	-33006	,	-30568	,	-5.059393	,	0
48,50	,	71779	,	-32996	,	-30556	,	-6.676389	,	0
48,50	,	71794	,	-33002	,	-30561	,	-8.023516	,	0
48,50	,	71826	,	-33019	,	-30565	,	-8.907415	,	0
48,50	,	71842	,	-33025	,	-30568	,	-9.525324	,	0
48,50	,	71858	,	-33032	,	-30578	,	-10.242159	,	0
48,50	,	71890	,	-33037	,	-30582	,	-11.260447	,	0
48,50	,	71906	,	-33045	,	-30570	,	-12.577311	,	0
48,50	,	71938	,	-33051	,	-30577	,	-14.0923605	,	0
48,50	,	71955	,	-33044	,	-30579	,	-15.6171	,	0
48,50	,	71971	,	-33052	,	-30577	,	-16.841766	,	0
48,50	,	72002	,	-33073	,	-30591	,	-17.596035	,	0
48,50	,	72018	,	-33071	,	-30596	,	-18.06515	,	0
48,50	,	72034	,	-33062	,	-30586	,	-18.412014	,	0
48,50	,	72066	,	-33087	,	-30587	,	-18.546768	,	0
48,50	,	72082	,	-33060	,	-30598	,	-18.368334	,	0
48,50	,	72098	,	-33047	,	-30574	,	-17.61049	,	0
48,51	,	72130	,	-33016	,	-30575	,	-15.619171	,	0
48,51	,	72146	,	-33019	,	-30572	,	-11.78002	,	1
48,51	,	72178	,	-33009	,	-30583	,	-6.0931025	,	4
48,51	,	72194	,	-32999	,	-30584	,	0.8170786	,	9
48,51	,	72210	,	-32995	,	-30580	,	8.11715	,	15
48,51	,	72242	,	-33010	,	-30571	,	14.911183	,	22
48,51	,	72259	,	-33004	,	-30568	,	20.241028	,	28
48,51	,	72274	,	-33010	,	-30571	,	23.404293	,	33
48,51	,	72306	,	-33013	,	-30580	,	24.188862	,	36
48,51	,	72322	,	-33007	,	-30588	,	22.804031	,	36
48,51	,	72354	,	-33013	,	-30568	,	19.771862	,	35
48,51	,	72370	,	-33010	,	-30577	,	15.748909	,	32
48,51	,	72386	,	-32990	,	-30582	,	11.45595	,	27
48,51	,	72418	,	-32994	,	-30573	,	7.6944103	,	21
48,51	,	72434	,	-33009	,	-30572	,	4.9625764	,	14
48,51	,	72450	,	-33003	,	-30577	,	3.155551	,	8
48,51	,	72482	,	-32997	,	-30578	,	1.9640279	,	3
48,51	,	72498	,	-33016	,	-30571	,	1.1858239	,	0
48,51	,	72530	,	-33009	,	-30577	,	0.5675483	,	0
48,51	,	72546	,	-33014	,	-30573	,	-0.13388646	,	0
48,51	,	72562	,	-33026	,	-30590	,	-1.0345783	,	0
48,51	,	72594	,	-33007	,	-30570	,	-2.1509635	,	0
48,51	,	72610	,	-33015	,	-30584	,	-3.2764485	,	0
48,51	,	72626	,	-33038	,	-30577	,	-4.223277	,	0
48,51	,	72658	,	-33043	,	-30584	,	-5.227737	,	0
48,51	,	72674	,	-33039	,	-30592	,	-6.618827	,	0
48,51	,	72690	,	-33048	,	-30582	,	-8.362285	,	0
48,51	,	72722	,	-33042	,	-30591	,	-10.173616	,	0
48,51	,	72738	,	-33050	,	-30591	,	-11.743034	,	0
48,51	,	72770	,	-33069	,	-30597	,	-12.938717	,	0
48,51	,	72786	,	-33065	,	-30602	,	-13.910746	,	0
48,51	,	72802	,	-33051	,	-30615	,	-14.718069	,	0
48,51	,	72834	,	-33050	,	-30587	,	-15.030295	,	0
48,51	,	72850	,	-33068	,	-30596	,	-14.541454	,	0
48,51	,	72866	,	-33092	,	-30601	,	-13.533388	,	0
48,51	,	72898	,	-33079	,	-30608	,	-12.688653	,	1
48,51	,	72914	,	-33065	,	-30612	,	-12.281958	,	1
48,51	,	72946	,	-33097	,	-30613	,	-12.065567	,	1
48,51	,	72962	,	-33093	,	-30612	,	-11.958197	,	1
48,51	,	72978	,	-33112	,	-30610	,	-12.182615	,	1
48,51	,	73010	,	-33111	,	-30604	,	-12.909031	,	1
48,51	,	73026	,	-33122	,	-30610	,	-14.122688	,	1
48,51	,	73042	,	-33091	,	-30626	,	-15.500859	,	1
48,51	,	73074	,	-33071	,	-30589	,	-16.227991	,	1
48,51	,	73090	,	-33051	,	-30594	,	-15.225149	,	0
48,51	,	73106	,	-33053	,	-30598	,	-11.840414	,	1
48,52	,	73138	,	-33045	,	-30594	,	-6.292432	,	4
48,52	,	73154	,	-33041	,	-30587	,	0.54916525	,	9
48,52	,	73186	,	-33034	,	-30590	,	7.659638	,	15
48,52	,	73202	,	-33021	,	-30586	,	14.21205	,	22
48,52	,	73218	,	-33017	,	-30579	,	19.718119	,	28
48,52	,	73250	,	-33022	,	-30594	,	23.8947	,	33
48,52	,	73266	,	-33040	,	-30590	,	26.37976	,	37
48,52	,	73282	,	-33025	,	-30612	,	26.804644	,	39
48,52	,	73314	,	-33035	,	-30580	,	25.1889	,	38
48,52	,	73330	,	-33031	,	-30589	,	21.970303	,	35
48,52	,	73362	,	-33022	,	-30587	,	17.784908	,	30
48,52	,	73378	,	-33013	,	-30590	,	13.420943	,	24
48,52	,	73394	,	-33015	,	-30588	,	9.640943	,	17
48,52	,	73426	,	-33025	,	-30588	,	6.821213	,	11
48,52	,	73442	,	-33031	,	-30588	,	4.819487	,	6
48,52	,	73458	,	-33028	,	-30588	,	3.2547026	,	2
48,52	,	73490	,	-33021	,	-30587	,	1.9146333	,	0
48,52	,	73506	,	-33014	,	-30597	,	0.8867223	,	0
48,52	,	73522	,	-33052	,	-30611	,	0.20312929	,	0
48,52	,	73554	,	-33040	,	-30573	,	-0.5137551	,	0
48,52	,	73570	,	-33053	,	-30600	,	-1.6984245	,	0
48,52	,	73602	,	-33059	,	-30588	,	-3.45974	,	0
48,52	,	73618	,	-33055	,	-30594	,	-5.672039	,	0
48,52	,	73634	,	-33075	,	-30600	,	-8.097739	,	0
48,52	,	73666	,	-33036	,	-30601	,	-10.37425	,	0
48,52	,	73682	,	-33051	,	-30591	,	-11.905446	,	0
48,52	,	73698	,	-33095	,	-30598	,	-12.409281	,	0
48,52	,	73730	,	-33070	,	-30607	,	-12.431658	,	0
48,52	,	73746	,	-33067	,	-30600	,	-12.471933	,	0
48,52	,	73778	,	-33098	,	-30626	,	-12.499498	,	0
48,52	,	73794	,	-33072	,	-30587	,	-12.513161	,	0
48,52	,	73810	,	-33076	,	-30601	,	-12.452349	,	0
48,52	,	73842	,	-33091	,	-30607	,	-12.091429	,	0
48,52	,	73858	,	-33096	,	-30608	,	-11.50103	,	0
48,52	,	73874	,	-33095	,	-30608	,	-10.982917	,	0
48,52	,	73906	,	-33142	,	-30614	,	-10.882467	,	0
48,52	,	73922	,	-33092	,	-30613	,	-11.516577	,	0
48,52	,	73938	,	-33128	,	-30621	,	-12.720983	,	0
48,52	,	73970	,	-33140	,	-30624	,	-14.114527	,	0
48,52	,	73985	,	-33119	,	-30618	,	-15.580975	,	0
48,52	,	74018	,	-33154	,	-30642	,	-16.96613	,	0
48,52	,	74034	,	-33141	,	-30609	,	-18.120996	,	0
48,52	,	74050	,	-33137	,	-30639	,	-18.94831	,	0
48,52	,	74082	,	-33127	,	-30628	,	-19.106812	,	0
48,52	,	74098	,	-33102	,	-30615	,	-18.082483	,	0
48,53	,	74113	,	-33093	,	-30628	,	-15.381185	,	1
48,53	,	74145	,	-33084	,	-30606	,	-10.799453	,	3
48,53	,	74162	,	-33070	,	-30613	,	-4.6205616	,	7
48,53	,	74194	,	-33063	,	-30609	,	2.557324	,	13
48,53	,	74210	,	-33054	,	-30604	,	10.029905	,	20
48,53	,	74225	,	-33056	,	-30599	,	17.053797	,	27
48,53	,	74257	,	-33061	,	-30620	,	22.856014	,	34
48,53	,	74273	,	-33084	,	-30587	,	26.630129	,	39
48,53	,	74290	,	-33040	,	-30603	,	27.892845	,	42
48,53	,	74322	,	-33057	,	-30601	,	26.9832	,	42
48,53	,	74338	,	-33065	,	-30599	,	24.627895	,	40
48,53	,	74354	,	-33046	,	-30599	,	21.328856	,	36
48,53	,	74386	,	-33035	,	-30590	,	17.673054	,	30
48,53	,	74402	,	-33038	,	-30595	,	14.419177	,	23
48,53	,	74433	,	-33066	,	-30588	,	11.863742	,	16
48,53	,	74449	,	-33040	,	-30610	,	9.708155	,	9
48,53	,	74465	,	-33042	,	-30596	,	7.745642	,	4
48,53	,	74497	,	-33040	,	-30617	,	6.127856	,	1
48,53	,	74514	,	-33057	,	-30584	,	4.901772	,	0
48,53	,	74530	,	-33045	,	-30599	,	3.8511956	,	0
48,53	,	74562	,	-33036	,	-30600	,	2.8786776	,	0
48,53	,	74578	,	-33053	,	-30597	,	2.1079721	,	0
48,53	,	74609	,	-33046	,	-30601	,	1.5335536	,	0
48,53	,	74625	,	-33065	,	-30600	,	0.9339913	,	0
48,53	,	74641	,	-33063	,	-30606	,	0.04660362	,	0
48,53	,	74673	,	-33096	,	-30603	,	-1.4098363	,	0
48,53	,	74689	,	-33044	,	-30603	,	-3.5077388	,	0
48,53	,	74705	,	-33079	,	-30612	,	-5.772202	,	0
48,53	,	74737	,	-33077	,	-30630	,	-7.655765	,	0
48,53	,	74754	,	-33059	,	-30591	,	-8.972616	,	0
48,53	,	74770	,	-33066	,	-30608	,	-9.532219	,	0
48,53	,	74801	,	-33063	,	-30615	,	-9.164736	,	0
48,53	,	74817	,	-33101	,	-30616	,	-8.158157	,	0
48,53	,	74849	,	-33085	,	-30616	,	-7.224465	,	1
48,53	,	74865	,	-33082	,	-30613	,	-6.8478265	,	1
48,53	,	74881	,	-33080	,	-30618	,	-6.8793087	,	1
48,53	,	74914	,	-33128	,	-30632	,	-7.151326	,	1
48,53	,	74930	,	-33100	,	-30622	,	-7.940017	,	1
48,53	,	74945	,	-33111	,	-30626	,	-9.356724	,	1
48,53	,	74977	,	-33113	,	-30644	,	-11.0306835	,	1
48,53	,	74993	,	-33113	,	-30608	,	-12.5528	,	1
48,53	,	75025	,	-33118	,	-30626	,	-13.663317	,	1
48,53	,	75041	,	-33139	,	-30632	,	-14.325458	,	0
48,53	,	75057	,	-33124	,	-30627	,	-14.734037	,	0
48,53	,	75089	,	-33132	,	-30634	,	-14.967854	,	0
48,53	,	75105	,	-33161	,	-30643	,	-15.049713	,	0
48,54	,	75121	,	-33156	,	-30642	,	-15.28017	,	0
48,54	,	75153	,	-33133	,	-30650	,	-15.787538	,	0
48,54	,	75169	,	-33101	,	-30631	,	-15.904827	,	0
48,54	,	75185	,	-33118	,	-30634	,	-14.623224	,	0
48,54	,	75217	,	-33090	,	-30647	,	-11.502381	,	1
48,54	,	75233	,	-33098	,	-30609	,	-6.776207	,	4
48,54	,	75265	,	-33096	,	-30634	,	-1.0718169	,	8
48,54	,	75281	,	-33088	,	-30624	,	4.762969	,	13
48,54	,	75297	,	-33091	,	-30617	,	9.975397	,	18
48,54	,	75329	,	-33102	,	-30624	,	13.993031	,	23
48,54	,	75345	,	-33080	,	-30632	,	16.434927	,	27
48,54	,	75361	,	-33086	,	-30628	,	17.351349	,	29
48,54	,	75393	,	-33079	,	-30628	,	17.124798	,	29
48,54	,	75409	,	-33080	,	-30632	,	16.144773	,	28
48,54	,	75441	,	-33083	,	-30621	,	14.689896	,	25
48,54	,	75457	,	-33093	,	-30648	,	12.864496	,	21
48,54	,	75473	,	-33100	,	-30612	,	10.595867	,	16
48,54	,	75505	,	-33082	,	-30627	,	7.8878345	,	11
48,54	,	75521	,	-33103	,	-30641	,	4.9994783	,	6
48,54	,	75537	,	-33096	,	-30641	,	2.199378	,	2
48,54	,	75569	,	-33081	,	-30633	,	-0.285491	,	0
48,54	,	75585	,	-33100	,	-30634	,	-2.1506152	,	0
48,54	,	75601	,	-33101	,	-30632	,	-3.331894	,	0
48,54	,	75633	,	-33098	,	-30639	,	-4.062849	,	0
48,54	,	75649	,	-33108	,	-30641	,	-4.540611	,	0
48,54	,	75681	,	-33115	,	-30643	,	-4.937466	,	0
48,54	,	75697	,	-33136	,	-30656	,	-5.5674953	,	0
48,54	,	75713	,	-33115	,	-30621	,	-6.697023	,	0
48,54	,	75745	,	-33109	,	-30648	,	-8.108038	,	0
48,54	,	75761	,	-33143	,	-30648	,	-9.3241005	,	0
48,54	,	75777	,	-33128	,	-30645	,	-10.266516	,	0
48,54	,	75809	,	-33137	,	-30649	,	-11.074029	,	0
48,54	,	75825	,	-33144	,	-30638	,	-11.744539	,	0
48,54	,	75857	,	-33147	,	-30648	,	-12.294472	,	0
48,54	,	75873	,	-33133	,	-30648	,	-12.698648	,	0
48,54	,	75889	,	-33132	,	-30655	,	-12.698885	,	0
48,54	,	75921	,	-33148	,	-30655	,	-12.071156	,	0
48,54	,	75937	,	-33156	,	-30684	,	-11.013962	,	0
48,54	,	75953	,	-33142	,	-30637	,	-9.937424	,	1
48,54	,	75985	,	-33176	,	-30650	,	-9.112993	,	2
48,54	,	76001	,	-33169	,	-30666	,	-8.805796	,	2
48,54	,	76017	,	-33183	,	-30669	,	-9.248854	,	2
48,54	,	76049	,	-33161	,	-30668	,	-10.318359	,	2
48,54	,	76065	,	-33167	,	-30666	,	-11.478308	,	2
48,54	,	76097	,	-33184	,	-30675	,	-12.21801	,	2
48,55	,	76113	,	-33198	,	-30671	,	-12.574032	,	2
48,55	,	76129	,	-33186	,	-30680	,	-12.909407	,	2
48,55	,	76161	,	-33218	,	-30680	,	-13.43432	,	1
48,55	,	76177	,	-33212	,	-30693	,	-14.2786	,	0
48,55	,	76193	,	-33181	,	-30646	,	-15.31621	,	0
48,55	,	76225	,	-33163	,	-30659	,	-15.73756	,	0
48,55	,	76241	,	-33139	,	-30662	,	-14.41856	,	0
48,55	,	76273	,	-33143	,	-30650	,	-10.719229	,	1
48,55	,	76289	,	-33167	,	-30651	,	-5.0291767	,	4
48,55	,	76305	,	-33141	,	-30661	,	1.404592	,	9
48,55	,	76337	,	-33148	,	-30664	,	7.399304	,	15
48,55	,	76353	,	-33142	,	-30659	,	12.294384	,	20
48,55	,	76369	,	-33139	,	-30644	,	15.769625	,	24
48,55	,	76401	,	-33135	,	-30655	,	17.779367	,	27
48,55	,	76417	,	-33101	,	-30673	,	18.653143	,	29
48,55	,	76449	,	-33125	,	-30632	,	18.977669	,	29
48,55	,	76465	,	-33128	,	-30646	,	18.99985	,	28
48,55	,	76481	,	-33106	,	-30649	,	18.547451	,	25
48,55	,	76513	,	-33107	,	-30643	,	17.669624	,	20
48,55	,	76529	,	-33098	,	-30639	,	16.690105	,	14
48,55	,	76545	,	-33119	,	-30634	,	15.749149	,	9
48,55	,	76577	,	-33095	,	-30642	,	14.722544	,	5
48,55	,	76593	,	-33105	,	-30630	,	13.544266	,	2
48,55	,	76609	,	-33105	,	-30628	,	12.268902	,	0
48,55	,	76641	,	-33104	,	-30628	,	10.879173	,	0
48,55	,	76657	,	-33098	,	-30664	,	9.378107	,	0
48,55	,	76689	,	-33099	,	-30623	,	7.896524	,	0
48,55	,	76705	,	-33131	,	-30621	,	6.423477	,	0
48,55	,	76721	,	-33116	,	-30630	,	4.6421785	,	0
48,55	,	76752	,	-33134	,	-30627	,	2.307613	,	0
48,55	,	76768	,	-33138	,	-30626	,	-0.5504489	,	0
48,55	,	76784	,	-33125	,	-30635	,	-3.713724	,	0
48,55	,	76817	,	-33125	,	-30634	,	-6.681287	,	0
48,55	,	76833	,	-33129	,	-30628	,	-8.878953	,	0
48,55	,	76865	,	-33131	,	-30634	,	-10.059056	,	0
48,55	,	76881	,	-33133	,	-30630	,	-10.306133	,	0
48,55	,	76897	,	-33127	,	-30651	,	-9.818417	,	0
48,55	,	76929	,	-33157	,	-30610	,	-8.897883	,	0
48,55	,	76944	,	-33125	,	-30639	,	-7.94062	,	0
48,55	,	76960	,	-33137	,	-30634	,	-7.0705104	,	0
48,55	,	76993	,	-33146	,	-30634	,	-6.187829	,	0
48,55	,	77008	,	-33156	,	-30635	,	-5.452182	,	0
48,55	,	77024	,	-33191	,	-30635	,	-5.365472	,	0
48,55	,	77056	,	-33183	,	-30642	,	-6.4966955	,	0
48,55	,	77072	,	-33173	,	-30628	,	-8.897156	,	0
48,55	,	77104	,	-33174	,	-30632	,	-11.8333435	,	0
48,56	,	77121	,	-33171	,	-30646	,	-14.352343	,	0
48,56	,	77137	,	-33187	,	-30673	,	-15.89196	,	0
48,56	,	77168	,	-33189	,	-30643	,	-16.440199	,	0
48,56	,	77185	,	-33205	,	-30653	,	-16.354452	,	0
48,56	,	77201	,	-33228	,	-30645	,	-16.187593	,	0
48,56	,	77232	,	-33204	,	-30650	,	-16.423086	,	0
48,56	,	77248	,	-33221	,	-30650	,	-17.039986	,	0
48,56	,	77280	,	-33207	,	-30646	,	-17.616814	,	0
48,56	,	77296	,	-33225	,	-30644	,	-17.793093	,	0
48,56	,	77312	,	-33200	,	-30645	,	-17.36969	,	0
48,56	,	77344	,	-33175	,	-30638	,	-16.009104	,	0
48,56	,	77360	,	-33155	,	-30638	,	-13.082965	,	1
48,56	,	77377	,	-33148	,	-30665	,	-8.131815	,	3
48,56	,	77408	,	-33139	,	-30616	,	-1.3451395	,	7
48,56	,	77424	,	-33120	,	-30617	,	6.5716686	,	13
48,56	,	77440	,	-33116	,	-30614	,	14.797584	,	20
48,56	,	77472	,	-33124	,	-30615	,	22.469534	,	28
48,56	,	77488	,	-33102	,	-30609	,	28.725534	,	35
48,56	,	77520	,	-33099	,	-30612	,	33.08824	,	41
48,56	,	77536	,	-33117	,	-30609	,	35.441307	,	45
48,56	,	77552	,	-33112	,	-30609	,	35.63666	,	46
48,56	,	77584	,	-33095	,	-30613	,	33.72446	,	44
48,56	,	77600	,	-33102	,	-30612	,	30.279438	,	40
48,56	,	77616	,	-33102	,	-30621	,	26.020863	,	34
48,56	,	77648	,	-33078	,	-30598	,	21.557104	,	27
48,56	,	77664	,	-33084	,	-30601	,	17.536058	,	19
48,56	,	77696	,	-33081	,	-30602	,	14.434155	,	12
48,56	,	77712	,	-33071	,	-30604	,	12.346651	,	6
48,56	,	77728	,	-33060	,	-30603	,	11.247785	,	2
48,56	,	77760	,	-33080	,	-30606	,	11.0262985	,	0
48,56	,	77776	,	-33068	,	-30605	,	11.2665	,	0
48,56	,	77792	,	-33072	,	-30602	,	11.462099	,	0
48,56	,	77824	,	-33098	,	-30600	,	11.193705	,	0
48,56	,	77840	,	-33071	,	-30600	,	10.107626	,	0
48,56	,	77856	,	-33102	,	-30615	,	8.149244	,	0
48,56	,	77888	,	-33071	,	-30590	,	5.591692	,	0
48,56	,	77904	,	-33085	,	-30595	,	2.9068336	,	0
48,56	,	77936	,	-33080	,	-30601	,	0.59220934	,	0
48,56	,	77952	,	-33079	,	-30605	,	-1.0919433	,	0
48,56	,	77968	,	-33085	,	-30602	,	-2.1122677	,	0
48,56	,	78000	,	-33087	,	-30605	,	-2.5957925	,	0
48,56	,	78016	,	-33086	,	-30596	,	-2.7565627	,	0
48,56	,	78032	,	-33091	,	-30597	,	-2.7662666	,	0
48,56	,	78064	,	-33115	,	-30601	,	-2.8663592	,	0
48,56	,	78080	,	-33079	,	-30604	,	-3.305622	,	0
48,57	,	78112	,	-33093	,	-30608	,	-3.9232492	,	0
48,57	,	78128	,	-33136	,	-30604	,	-4.5285244	,	0
48,57	,	78144	,	-33110	,	-30599	,	-5.47096	,	0
48,57	,	78176	,	-33107	,	-30599	,	-6.9181633	,	0
48,57	,	78192	,	-33132	,	-30611	,	-8.485573	,	0
48,57	,	78208	,	-33101	,	-30607	,	-9.823474	,	0
48,57	,	78240	,	-33131	,	-30616	,	-10.707112	,	0
48,57	,	78256	,	-33105	,	-30602	,	-10.979215	,	0
48,57	,	78272	,	-33140	,	-30612	,	-10.694592	,	0
48,57	,	78304	,	-33147	,	-30619	,	-10.238951	,	0
48,57	,	78320	,	-33165	,	-30617	,	-10.259847	,	0
48,57	,	78352	,	-33155	,	-30635	,	-11.184166	,	0
48,57	,	78368	,	-33154	,	-30619	,	-12.832497	,	0
48,57	,	78384	,	-33161	,	-30619	,	-14.613616	,	0
48,57	,	78416	,	-33132	,	-30605	,	-15.876041	,	0
48,57	,	78432	,	-33130	,	-30608	,	-15.950182	,	0
48,57	,	78448	,	-33102	,	-30605	,	-14.242179	,	0
48,57	,	78480	,	-33100	,	-30606	,	-10.477876	,	1
48,57	,	78496	,	-33090	,	-30593	,	-4.8566737	,	4
48,57	,	78528	,	-33085	,	-30602	,	1.9566274	,	9
48,57	,	78544	,	-33069	,	-30597	,	9.12928	,	15
48,57	,	78560	,	-33075	,	-30601	,	15.91919	,	22
48,57	,	78592	,	-33082	,	-30610	,	21.593786	,	28
48,57	,	78608	,	-33069	,	-30584	,	25.471853	,	33
48,57	,	78624	,	-33107	,	-30598	,	27.103745	,	36
48,57	,	78656	,	-33083	,	-30586	,	26.26474	,	37
48,57	,	78672	,	-33096	,	-30588	,	23.155045	,	36
48,57	,	78688	,	-33100	,	-30587	,	18.432457	,	33
48,57	,	78720	,	-33061	,	-30584	,	13.006226	,	28
48,57	,	78735	,	-33075	,	-30580	,	8.029547	,	22
48,57	,	78768	,	-33076	,	-30586	,	4.3839664	,	15
48,57	,	78784	,	-33062	,	-30590	,	2.2540827	,	9
48,57	,	78800	,	-33054	,	-30580	,	1.5668492	,	4
48,57	,	78832	,	-33060	,	-30584	,	2.2062085	,	1
48,57	,	78848	,	-33072	,	-30584	,	3.7209625	,	0
48,57	,	78864	,	-33075	,	-30572	,	5.322308	,	1
48,57	,	78896	,	-33069	,	-30588	,	6.325894	,	2
48,57	,	78912	,	-33104	,	-30583	,	6.336219	,	3
48,57	,	78943	,	-33060	,	-30582	,	5.2101617	,	3
48,57	,	78960	,	-33091	,	-30574	,	3.2607656	,	3
48,57	,	78975	,	-33093	,	-30582	,	0.9561715	,	3
48,57	,	79008	,	-33112	,	-30576	,	-1.6080086	,	3
48,57	,	79024	,	-33086	,	-30604	,	-4.414483	,	3
48,57	,	79040	,	-33108	,	-30606	,	-7.133847	,	3
48,57	,	79072	,	-33096	,	-30612	,	-9.357301	,	2
48,57	,	79088	,	-33117	,	-30608	,	-10.912175	,	1
48,57	,	79104	,	-33110	,	-30607	,	-11.874601	,	0
48,58	,	79136	,	-33117	,	-30599	,	-12.392921	,	0
48,58	,	79152	,	-33114	,	-30599	,	-12.535433	,	0
48,58	,	79183	,	-33101	,	-30596	,	-12.238225	,	0
48,58	,	79199	,	-33115	,	-30606	,	-11.3719	,	0
48,58	,	79216	,	-33131	,	-30612	,	-10.073535	,	0
48,58	,	79248	,	-33171	,	-30614	,	-9.0452175	,	1
48,58	,	79264	,	-33151	,	-30615	,	-9.177444	,	2
48,58	,	79280	,	-33159	,	-30622	,	-10.7069845	,	2
48,58	,	79311	,	-33113	,	-30621	,	-12.8622	,	2
48,58	,	79328	,	-33166	,	-30618	,	-14.511184	,	2
48,58	,	79360	,	-33182	,	-30618	,	-15.348126	,	2
48,58	,	79376	,	-33189	,	-30610	,	-16.052742	,	2
