Data recorded on Mon Jul 24 13-18-46 CAT 2017
Time: 13:18:54
Time		Millis		IR PPG		Red PPG		Filtered		SSF
19,3	,	27819	,	-23776	,	-21549	,	-11.603098	,	0
19,3	,	27851	,	-23785	,	-21558	,	-12.51526	,	0
19,3	,	27867	,	-23797	,	-21554	,	-13.84256	,	0
19,3	,	27883	,	-23801	,	-21562	,	-15.635073	,	0
19,3	,	27915	,	-23800	,	-21559	,	-17.7164	,	0
19,3	,	27931	,	-23798	,	-21560	,	-19.6582	,	0
19,3	,	27963	,	-23779	,	-21558	,	-20.857634	,	0
19,3	,	27979	,	-23762	,	-21552	,	-20.614588	,	0
19,3	,	27995	,	-23762	,	-21540	,	-18.38897	,	0
19,3	,	28027	,	-23746	,	-21534	,	-14.1445875	,	2
19,3	,	28043	,	-23748	,	-21537	,	-8.33706	,	6
19,3	,	28059	,	-23726	,	-21525	,	-1.6389198	,	11
19,3	,	28091	,	-23740	,	-21534	,	5.2432685	,	17
19,3	,	28107	,	-23747	,	-21545	,	11.483032	,	23
19,3	,	28139	,	-23742	,	-21535	,	16.191387	,	29
19,3	,	28155	,	-23761	,	-21538	,	18.766365	,	33
19,3	,	28171	,	-23767	,	-21543	,	18.945349	,	35
19,3	,	28203	,	-23772	,	-21541	,	16.754013	,	35
19,3	,	28219	,	-23765	,	-21543	,	12.66208	,	33
19,3	,	28235	,	-23763	,	-21538	,	7.5687037	,	29
19,3	,	28267	,	-23774	,	-21540	,	2.4354677	,	24
19,3	,	28283	,	-23778	,	-21538	,	-2.1323729	,	18
19,3	,	28299	,	-23776	,	-21546	,	-5.8937836	,	12
19,3	,	28331	,	-23781	,	-21546	,	-8.729173	,	6
19,3	,	28347	,	-23781	,	-21555	,	-10.589159	,	2
19,3	,	28379	,	-23783	,	-21540	,	-11.526907	,	0
19,3	,	28395	,	-23788	,	-21558	,	-11.6837635	,	0
19,3	,	28411	,	-23806	,	-21559	,	-11.361178	,	0
19,3	,	28443	,	-23815	,	-21561	,	-11.065973	,	0
19,3	,	28459	,	-23823	,	-21563	,	-11.299278	,	0
19,3	,	28475	,	-23825	,	-21565	,	-12.26347	,	0
19,3	,	28507	,	-23829	,	-21567	,	-13.799175	,	0
19,3	,	28523	,	-23833	,	-21569	,	-15.546417	,	0
19,3	,	28554	,	-23856	,	-21571	,	-17.232502	,	0
19,3	,	28570	,	-23859	,	-21570	,	-18.86228	,	0
19,3	,	28587	,	-23843	,	-21589	,	-20.418736	,	0
19,3	,	28619	,	-23831	,	-21564	,	-21.433468	,	0
19,3	,	28635	,	-23829	,	-21539	,	-21.202583	,	0
19,3	,	28651	,	-23790	,	-21530	,	-19.179583	,	0
19,3	,	28683	,	-23786	,	-21526	,	-14.9839525	,	2
19,3	,	28699	,	-23807	,	-21529	,	-8.760739	,	6
19,3	,	28714	,	-23786	,	-21531	,	-1.5067225	,	12
19,3	,	28747	,	-23783	,	-21529	,	5.6111007	,	19
19,3	,	28763	,	-23798	,	-21530	,	11.7794895	,	26
19,3	,	28795	,	-23797	,	-21534	,	16.311892	,	32
19,3	,	28811	,	-23809	,	-21537	,	18.665668	,	36
19,3	,	28827	,	-23826	,	-21561	,	18.583647	,	38
19,4	,	28858	,	-23815	,	-21539	,	16.125946	,	38
19,4	,	28874	,	-23823	,	-21547	,	11.832106	,	36
19,4	,	28890	,	-23821	,	-21548	,	6.596328	,	32
19,4	,	28923	,	-23816	,	-21550	,	1.3260679	,	26
19,4	,	28939	,	-23824	,	-21553	,	-3.238029	,	19
19,4	,	28971	,	-23833	,	-21549	,	-6.722034	,	12
19,4	,	28987	,	-23825	,	-21559	,	-9.126877	,	6
19,4	,	29003	,	-23844	,	-21557	,	-10.604573	,	2
19,4	,	29034	,	-23846	,	-21554	,	-11.437429	,	0
19,4	,	29050	,	-23847	,	-21561	,	-11.965605	,	0
19,4	,	29067	,	-23857	,	-21577	,	-12.384026	,	0
19,4	,	29099	,	-23854	,	-21554	,	-12.758856	,	0
19,4	,	29115	,	-23882	,	-21578	,	-13.18689	,	0
19,4	,	29131	,	-23878	,	-21587	,	-13.887504	,	0
19,4	,	29163	,	-23881	,	-21586	,	-14.97789	,	0
19,4	,	29179	,	-23891	,	-21590	,	-16.287857	,	0
19,4	,	29210	,	-23879	,	-21590	,	-17.51376	,	0
19,4	,	29226	,	-23873	,	-21578	,	-18.238564	,	0
19,4	,	29242	,	-23851	,	-21572	,	-17.895424	,	0
19,4	,	29275	,	-23837	,	-21561	,	-15.91347	,	0
19,4	,	29291	,	-23823	,	-21552	,	-11.947595	,	1
19,4	,	29306	,	-23816	,	-21571	,	-6.10069	,	4
19,4	,	29338	,	-23815	,	-21545	,	1.0226154	,	9
19,4	,	29354	,	-23809	,	-21559	,	8.481279	,	16
19,4	,	29386	,	-23811	,	-21562	,	15.290152	,	23
19,4	,	29402	,	-23830	,	-21561	,	20.554441	,	29
19,4	,	29418	,	-23834	,	-21564	,	23.480507	,	34
19,4	,	29450	,	-23839	,	-21570	,	23.625141	,	36
19,4	,	29466	,	-23847	,	-21565	,	21.10881	,	36
19,4	,	29482	,	-23847	,	-21564	,	16.496456	,	35
19,4	,	29514	,	-23847	,	-21566	,	10.624712	,	32
19,4	,	29530	,	-23844	,	-21561	,	4.459444	,	27
19,4	,	29546	,	-23832	,	-21582	,	-1.0495582	,	20
19,4	,	29578	,	-23842	,	-21547	,	-5.1522255	,	13
19,4	,	29594	,	-23852	,	-21570	,	-7.6140203	,	7
19,4	,	29626	,	-23869	,	-21566	,	-8.846646	,	2
19,4	,	29642	,	-23872	,	-21572	,	-9.580061	,	0
19,4	,	29658	,	-23873	,	-21566	,	-10.356592	,	0
19,4	,	29690	,	-23881	,	-21581	,	-11.326733	,	0
19,4	,	29706	,	-23879	,	-21575	,	-12.403006	,	0
19,4	,	29722	,	-23874	,	-21579	,	-13.36002	,	0
19,4	,	29754	,	-23899	,	-21584	,	-13.982947	,	0
19,4	,	29771	,	-23892	,	-21590	,	-14.3261175	,	0
19,4	,	29802	,	-23905	,	-21600	,	-14.585845	,	0
19,4	,	29818	,	-23915	,	-21570	,	-14.907827	,	0
19,4	,	29834	,	-23880	,	-21582	,	-15.2491455	,	0
19,5	,	29866	,	-23856	,	-21572	,	-14.986641	,	0
19,5	,	29882	,	-23840	,	-21561	,	-13.079675	,	0
19,5	,	29898	,	-23831	,	-21557	,	-8.888913	,	1
19,5	,	29930	,	-23827	,	-21552	,	-2.6138463	,	5
19,5	,	29946	,	-23811	,	-21550	,	4.93836	,	11
19,5	,	29962	,	-23807	,	-21548	,	12.819786	,	18
19,5	,	29994	,	-23815	,	-21549	,	20.1125	,	25
19,5	,	30010	,	-23808	,	-21546	,	25.920393	,	32
19,5	,	30042	,	-23817	,	-21566	,	29.569687	,	37
19,5	,	30058	,	-23818	,	-21542	,	30.74666	,	40
19,5	,	30074	,	-23822	,	-21547	,	29.476383	,	41
19,5	,	30106	,	-23815	,	-21553	,	26.154758	,	40
19,5	,	30122	,	-23816	,	-21548	,	21.50106	,	36
19,5	,	30138	,	-23817	,	-21550	,	16.31651	,	30
19,5	,	30170	,	-23825	,	-21548	,	11.211786	,	23
19,5	,	30186	,	-23824	,	-21549	,	6.5285683	,	16
19,5	,	30218	,	-23833	,	-21551	,	2.4236717	,	9
19,5	,	30234	,	-23832	,	-21554	,	-1.0587935	,	4
19,5	,	30250	,	-23831	,	-21550	,	-3.8920999	,	1
19,5	,	30282	,	-23841	,	-21570	,	-6.035443	,	0
19,5	,	30298	,	-23835	,	-21544	,	-7.5168977	,	0
19,5	,	30314	,	-23861	,	-21553	,	-8.503889	,	0
19,5	,	30346	,	-23854	,	-21559	,	-9.316819	,	0
19,5	,	30362	,	-23851	,	-21559	,	-10.158106	,	0
19,5	,	30378	,	-23877	,	-21565	,	-10.996562	,	0
19,5	,	30410	,	-23883	,	-21573	,	-11.952432	,	0
19,5	,	30426	,	-23874	,	-21561	,	-13.219144	,	0
19,5	,	30458	,	-23864	,	-21559	,	-14.545233	,	0
19,5	,	30474	,	-23827	,	-21556	,	-15.135645	,	0
19,5	,	30490	,	-23818	,	-21541	,	-13.9697895	,	0
19,5	,	30522	,	-23793	,	-21543	,	-10.333809	,	1
19,5	,	30538	,	-23784	,	-21519	,	-4.175385	,	4
19,5	,	30554	,	-23775	,	-21512	,	3.922215	,	10
19,5	,	30586	,	-23765	,	-21518	,	12.943298	,	18
19,5	,	30602	,	-23757	,	-21517	,	21.769201	,	27
19,5	,	30634	,	-23751	,	-21516	,	29.451641	,	35
19,5	,	30650	,	-23760	,	-21519	,	35.250256	,	42
19,5	,	30666	,	-23766	,	-21521	,	38.55565	,	47
19,5	,	30698	,	-23768	,	-21522	,	38.976913	,	50
19,5	,	30714	,	-23773	,	-21522	,	36.55271	,	49
19,5	,	30730	,	-23763	,	-21519	,	31.810715	,	46
19,5	,	30762	,	-23767	,	-21520	,	25.643293	,	40
19,5	,	30778	,	-23765	,	-21517	,	19.016668	,	32
19,5	,	30794	,	-23761	,	-21523	,	12.727883	,	23
19,5	,	30826	,	-23751	,	-21521	,	7.4093895	,	15
19,6	,	30842	,	-23762	,	-21527	,	3.4843197	,	8
19,6	,	30874	,	-23770	,	-21520	,	0.9438839	,	3
19,6	,	30890	,	-23773	,	-21526	,	-0.6357088	,	0
19,6	,	30906	,	-23761	,	-21524	,	-1.680439	,	0
19,6	,	30938	,	-23787	,	-21537	,	-2.4237757	,	0
19,6	,	30954	,	-23786	,	-21533	,	-3.1534166	,	0
19,6	,	30970	,	-23785	,	-21537	,	-4.1593323	,	0
19,6	,	31002	,	-23782	,	-21542	,	-5.4042068	,	0
19,6	,	31018	,	-23790	,	-21539	,	-6.6180987	,	0
19,6	,	31050	,	-23799	,	-21540	,	-7.653149	,	0
19,6	,	31066	,	-23797	,	-21542	,	-8.556512	,	0
19,6	,	31082	,	-23779	,	-21532	,	-9.26297	,	0
19,6	,	31114	,	-23751	,	-21521	,	-9.273321	,	0
19,6	,	31130	,	-23742	,	-21516	,	-7.811332	,	0
19,6	,	31146	,	-23718	,	-21513	,	-4.3470674	,	1
19,6	,	31178	,	-23725	,	-21502	,	1.0516915	,	4
19,6	,	31194	,	-23700	,	-21505	,	7.7570534	,	9
19,6	,	31225	,	-23702	,	-21511	,	14.917923	,	15
19,6	,	31242	,	-23697	,	-21500	,	21.690136	,	22
19,6	,	31258	,	-23717	,	-21502	,	27.17616	,	28
19,6	,	31290	,	-23728	,	-21502	,	30.429987	,	33
19,6	,	31306	,	-23715	,	-21507	,	30.82999	,	36
19,6	,	31322	,	-23713	,	-21507	,	28.545132	,	36
19,6	,	31354	,	-23715	,	-21506	,	24.391567	,	35
19,6	,	31370	,	-23720	,	-21500	,	19.25598	,	32
19,6	,	31386	,	-23708	,	-21495	,	13.873716	,	27
19,6	,	31418	,	-23708	,	-21501	,	8.9237175	,	21
19,6	,	31434	,	-23710	,	-21495	,	4.933936	,	14
19,6	,	31466	,	-23717	,	-21506	,	2.0588942	,	8
19,6	,	31482	,	-23726	,	-21502	,	0.074029446	,	3
19,6	,	31498	,	-23724	,	-21504	,	-1.4014056	,	0
19,6	,	31530	,	-23739	,	-21516	,	-2.6917477	,	0
19,6	,	31546	,	-23740	,	-21506	,	-4.0429044	,	0
19,6	,	31562	,	-23740	,	-21518	,	-5.574132	,	0
19,6	,	31594	,	-23738	,	-21526	,	-7.1603413	,	0
19,6	,	31609	,	-23756	,	-21514	,	-8.596869	,	0
19,6	,	31641	,	-23765	,	-21531	,	-9.912757	,	0
19,6	,	31658	,	-23770	,	-21530	,	-11.326639	,	0
19,6	,	31674	,	-23772	,	-21530	,	-12.927117	,	0
19,6	,	31706	,	-23785	,	-21549	,	-14.61394	,	0
19,6	,	31722	,	-23766	,	-21532	,	-16.1785	,	0
19,6	,	31738	,	-23768	,	-21527	,	-17.218685	,	0
19,6	,	31769	,	-23739	,	-21516	,	-17.157154	,	0
19,6	,	31786	,	-23723	,	-21508	,	-15.379906	,	0
19,6	,	31802	,	-23707	,	-21503	,	-11.44211	,	1
19,6	,	31834	,	-23712	,	-21502	,	-5.4357214	,	4
19,7	,	31850	,	-23706	,	-21502	,	1.8523955	,	10
19,7	,	31881	,	-23687	,	-21502	,	9.360536	,	17
19,7	,	31897	,	-23709	,	-21506	,	16.183842	,	24
19,7	,	31913	,	-23697	,	-21508	,	21.524693	,	30
19,7	,	31945	,	-23712	,	-21514	,	24.744648	,	35
19,7	,	31961	,	-23703	,	-21487	,	25.598852	,	38
19,7	,	31977	,	-23711	,	-21506	,	24.261692	,	38
19,7	,	32010	,	-23716	,	-21504	,	21.16923	,	37
19,7	,	32026	,	-23698	,	-21503	,	16.917587	,	34
19,7	,	32057	,	-23695	,	-21506	,	12.33718	,	28
19,7	,	32073	,	-23708	,	-21509	,	8.230687	,	21
19,7	,	32089	,	-23702	,	-21502	,	4.940651	,	14
19,7	,	32121	,	-23713	,	-21507	,	2.4190812	,	8
19,7	,	32137	,	-23737	,	-21506	,	0.35654616	,	3
19,7	,	32153	,	-23736	,	-21504	,	-1.7770028	,	0
19,7	,	32186	,	-23724	,	-21520	,	-4.259616	,	0
19,7	,	32201	,	-23739	,	-21501	,	-6.8318634	,	0
19,7	,	32218	,	-23749	,	-21523	,	-9.177156	,	0
19,7	,	32250	,	-23756	,	-21524	,	-11.289112	,	0
19,7	,	32265	,	-23754	,	-21521	,	-13.236336	,	0
19,7	,	32297	,	-23752	,	-21531	,	-14.887444	,	0
19,7	,	32313	,	-23775	,	-21530	,	-16.062626	,	0
19,7	,	32329	,	-23770	,	-21530	,	-16.822884	,	0
19,7	,	32361	,	-23770	,	-21541	,	-17.294764	,	0
19,7	,	32377	,	-23794	,	-21542	,	-17.515762	,	0
19,7	,	32393	,	-23780	,	-21544	,	-17.60095	,	0
19,7	,	32425	,	-23774	,	-21545	,	-17.52975	,	0
19,7	,	32441	,	-23757	,	-21514	,	-16.899315	,	0
19,7	,	32473	,	-23729	,	-21509	,	-15.076918	,	0
19,7	,	32489	,	-23713	,	-21512	,	-11.425499	,	1
19,7	,	32505	,	-23703	,	-21517	,	-5.6665645	,	4
19,7	,	32537	,	-23708	,	-21509	,	1.7604909	,	9
19,7	,	32553	,	-23711	,	-21511	,	9.737973	,	16
19,7	,	32569	,	-23723	,	-21515	,	16.862835	,	23
19,7	,	32601	,	-23740	,	-21516	,	21.845024	,	30
19,7	,	32617	,	-23722	,	-21524	,	23.891499	,	34
19,7	,	32633	,	-23717	,	-21523	,	23.115128	,	36
19,7	,	32665	,	-23723	,	-21539	,	20.363544	,	36
19,7	,	32681	,	-23736	,	-21514	,	16.48019	,	35
19,7	,	32713	,	-23735	,	-21524	,	11.954457	,	32
19,7	,	32729	,	-23720	,	-21521	,	7.232066	,	27
19,7	,	32745	,	-23712	,	-21528	,	3.0128355	,	20
19,7	,	32777	,	-23726	,	-21531	,	-0.048847675	,	13
19,7	,	32793	,	-23747	,	-21532	,	-1.9247797	,	6
19,7	,	32809	,	-23744	,	-21535	,	-3.2012396	,	2
19,8	,	32841	,	-23756	,	-21539	,	-4.4753013	,	0
19,8	,	32857	,	-23766	,	-21536	,	-6.065192	,	0
19,8	,	32889	,	-23768	,	-21543	,	-8.09741	,	0
19,8	,	32905	,	-23762	,	-21559	,	-10.426462	,	0
19,8	,	32921	,	-23777	,	-21524	,	-12.66642	,	0
19,8	,	32953	,	-23789	,	-21557	,	-14.581789	,	0
19,8	,	32969	,	-23796	,	-21550	,	-16.257298	,	0
19,8	,	32985	,	-23798	,	-21558	,	-17.817274	,	0
19,8	,	33017	,	-23798	,	-21576	,	-19.181377	,	0
19,8	,	33033	,	-23813	,	-21570	,	-20.171846	,	0
19,8	,	33049	,	-23814	,	-21566	,	-20.749027	,	0
19,8	,	33081	,	-23805	,	-21566	,	-20.917591	,	0
19,8	,	33097	,	-23791	,	-21567	,	-20.432255	,	0
19,8	,	33129	,	-23777	,	-21553	,	-18.822926	,	0
19,8	,	33145	,	-23763	,	-21562	,	-15.679559	,	1
19,8	,	33161	,	-23751	,	-21536	,	-10.867017	,	4
19,8	,	33193	,	-23740	,	-21538	,	-4.5955725	,	8
19,8	,	33209	,	-23729	,	-21539	,	2.6354938	,	14
19,8	,	33225	,	-23726	,	-21538	,	10.154064	,	21
19,8	,	33257	,	-23732	,	-21534	,	17.15967	,	28
19,8	,	33273	,	-23737	,	-21540	,	22.76497	,	35
19,8	,	33305	,	-23743	,	-21539	,	26.19766	,	40
19,8	,	33321	,	-23739	,	-21545	,	27.080334	,	43
19,8	,	33337	,	-23761	,	-21546	,	25.475323	,	42
19,8	,	33369	,	-23738	,	-21550	,	21.77879	,	39
19,8	,	33385	,	-23742	,	-21563	,	16.779316	,	35
19,8	,	33401	,	-23750	,	-21538	,	11.436865	,	29
19,8	,	33433	,	-23750	,	-21550	,	6.409607	,	22
19,8	,	33449	,	-23741	,	-21545	,	2.0781002	,	15
19,8	,	33481	,	-23751	,	-21549	,	-1.2645164	,	8
19,8	,	33497	,	-23771	,	-21549	,	-3.6280444	,	3
19,8	,	33513	,	-23783	,	-21553	,	-5.4943914	,	0
19,8	,	33545	,	-23776	,	-21555	,	-7.412805	,	0
19,8	,	33561	,	-23783	,	-21559	,	-9.5065155	,	0
19,8	,	33577	,	-23783	,	-21566	,	-11.545683	,	0
19,8	,	33609	,	-23794	,	-21573	,	-13.288012	,	0
19,8	,	33625	,	-23792	,	-21574	,	-14.616717	,	0
19,8	,	33641	,	-23805	,	-21559	,	-15.520351	,	0
19,8	,	33673	,	-23828	,	-21586	,	-16.179613	,	0
19,8	,	33689	,	-23823	,	-21581	,	-16.95951	,	0
19,8	,	33721	,	-23835	,	-21587	,	-18.061106	,	0
19,8	,	33737	,	-23855	,	-21579	,	-19.46062	,	0
19,8	,	33753	,	-23859	,	-21584	,	-21.172752	,	0
19,8	,	33785	,	-23855	,	-21588	,	-23.11129	,	0
19,8	,	33801	,	-23845	,	-21591	,	-24.8067	,	0
19,8	,	33833	,	-23824	,	-21586	,	-25.469383	,	0
19,9	,	33849	,	-23813	,	-21570	,	-24.284485	,	0
19,9	,	33865	,	-23793	,	-21564	,	-20.742168	,	1
19,9	,	33897	,	-23788	,	-21546	,	-14.838495	,	4
19,9	,	33913	,	-23756	,	-21540	,	-7.001274	,	9
19,9	,	33929	,	-23779	,	-21546	,	2.026908	,	16
19,9	,	33961	,	-23761	,	-21533	,	11.145416	,	25
19,9	,	33977	,	-23766	,	-21541	,	19.161743	,	34
19,9	,	33993	,	-23763	,	-21542	,	25.21943	,	42
19,9	,	34024	,	-23753	,	-21544	,	28.92165	,	48
19,9	,	34040	,	-23781	,	-21543	,	30.212242	,	51
19,9	,	34072	,	-23775	,	-21540	,	29.107536	,	51
19,9	,	34089	,	-23765	,	-21542	,	25.841496	,	48
19,9	,	34105	,	-23757	,	-21545	,	21.203161	,	43
19,9	,	34137	,	-23759	,	-21544	,	16.238386	,	36
19,9	,	34153	,	-23787	,	-21552	,	11.59323	,	27
19,9	,	34169	,	-23766	,	-21553	,	7.342265	,	18
19,9	,	34201	,	-23770	,	-21554	,	3.524818	,	10
19,9	,	34216	,	-23770	,	-21561	,	0.41114855	,	4
19,9	,	34248	,	-23779	,	-21556	,	-1.8514817	,	1
19,9	,	34264	,	-23785	,	-21561	,	-3.4237876	,	0
19,9	,	34281	,	-23795	,	-21569	,	-4.6460805	,	0
19,9	,	34313	,	-23795	,	-21566	,	-5.842254	,	0
19,9	,	34329	,	-23809	,	-21589	,	-7.19994	,	0
19,9	,	34345	,	-23807	,	-21572	,	-8.783408	,	0
19,9	,	34376	,	-23817	,	-21590	,	-10.536198	,	0
19,9	,	34393	,	-23822	,	-21585	,	-12.320749	,	0
19,9	,	34408	,	-23840	,	-21596	,	-14.07551	,	0
19,9	,	34440	,	-23840	,	-21594	,	-15.857941	,	0
19,9	,	34456	,	-23843	,	-21598	,	-17.645931	,	0
19,9	,	34488	,	-23852	,	-21599	,	-19.251083	,	0
19,9	,	34505	,	-23857	,	-21601	,	-20.504322	,	0
19,9	,	34521	,	-23873	,	-21601	,	-21.404459	,	0
19,9	,	34552	,	-23879	,	-21610	,	-22.109062	,	0
19,9	,	34568	,	-23872	,	-21611	,	-22.72368	,	0
19,9	,	34584	,	-23865	,	-21605	,	-23.028404	,	0
19,9	,	34616	,	-23824	,	-21596	,	-22.381514	,	0
19,9	,	34632	,	-23820	,	-21589	,	-19.901348	,	0
19,9	,	34665	,	-23805	,	-21582	,	-15.050933	,	2
19,9	,	34681	,	-23786	,	-21587	,	-7.997941	,	6
19,9	,	34697	,	-23785	,	-21573	,	0.59929085	,	13
19,9	,	34728	,	-23779	,	-21570	,	9.760795	,	21
19,9	,	34744	,	-23778	,	-21576	,	18.33953	,	30
19,9	,	34760	,	-23778	,	-21578	,	25.324066	,	38
19,9	,	34792	,	-23780	,	-21578	,	30.014408	,	44
19,9	,	34808	,	-23781	,	-21578	,	32.079227	,	48
19,9	,	34824	,	-23790	,	-21574	,	31.53822	,	50
19,10	,	34856	,	-23786	,	-21574	,	28.700035	,	48
19,10	,	34872	,	-23791	,	-21573	,	24.135418	,	44
19,10	,	34904	,	-23788	,	-21576	,	18.58651	,	37
19,10	,	34920	,	-23798	,	-21569	,	12.765079	,	29
19,10	,	34936	,	-23798	,	-21577	,	7.1841736	,	20
19,10	,	34968	,	-23801	,	-21575	,	2.1670866	,	12
19,10	,	34984	,	-23808	,	-21583	,	-2.084334	,	6
19,10	,	35000	,	-23818	,	-21584	,	-5.537882	,	2
19,10	,	35032	,	-23825	,	-21591	,	-8.348417	,	0
19,10	,	35048	,	-23822	,	-21584	,	-10.687929	,	0
19,10	,	35080	,	-23832	,	-21593	,	-12.590438	,	0
19,10	,	35096	,	-23853	,	-21597	,	-14.121829	,	0
19,10	,	35112	,	-23862	,	-21606	,	-15.588238	,	0
19,10	,	35144	,	-23858	,	-21606	,	-17.265114	,	0
19,10	,	35160	,	-23881	,	-21607	,	-19.128504	,	0
19,10	,	35176	,	-23878	,	-21604	,	-21.047972	,	0
19,10	,	35208	,	-23880	,	-21615	,	-22.845385	,	0
19,10	,	35224	,	-23902	,	-21613	,	-24.287315	,	0
19,10	,	35240	,	-23887	,	-21619	,	-25.258121	,	0
19,10	,	35272	,	-23913	,	-21621	,	-25.723652	,	0
19,10	,	35288	,	-23927	,	-21619	,	-25.813469	,	0
19,10	,	35320	,	-23927	,	-21617	,	-25.865839	,	0
19,10	,	35336	,	-23944	,	-21632	,	-26.097431	,	0
19,10	,	35352	,	-23941	,	-21633	,	-26.496815	,	0
19,10	,	35384	,	-23952	,	-21636	,	-26.927223	,	0
19,10	,	35400	,	-23946	,	-21640	,	-27.164265	,	0
19,10	,	35416	,	-23931	,	-21631	,	-26.851192	,	0
19,10	,	35448	,	-23918	,	-21621	,	-25.445572	,	0
19,10	,	35464	,	-23895	,	-21612	,	-22.375368	,	1
19,10	,	35496	,	-23883	,	-21603	,	-17.28342	,	4
19,10	,	35512	,	-23873	,	-21615	,	-10.24059	,	9
19,10	,	35528	,	-23868	,	-21588	,	-1.8416357	,	16
19,10	,	35560	,	-23875	,	-21591	,	6.8992825	,	24
19,10	,	35576	,	-23867	,	-21593	,	14.813256	,	32
19,10	,	35592	,	-23866	,	-21598	,	20.981567	,	39
19,10	,	35624	,	-23872	,	-21590	,	24.92935	,	45
19,10	,	35640	,	-23876	,	-21604	,	26.484152	,	48
19,10	,	35656	,	-23880	,	-21611	,	25.698746	,	48
19,10	,	35688	,	-23878	,	-21602	,	22.906197	,	45
19,10	,	35704	,	-23873	,	-21609	,	18.730284	,	40
19,10	,	35736	,	-23873	,	-21597	,	13.961485	,	33
19,10	,	35752	,	-23861	,	-21611	,	9.37294	,	25
19,10	,	35768	,	-23871	,	-21585	,	5.5683928	,	17
19,10	,	35800	,	-23889	,	-21603	,	2.7140727	,	10
19,10	,	35816	,	-23880	,	-21609	,	0.50655746	,	4
19,10	,	35832	,	-23892	,	-21622	,	-1.3870142	,	1
19,11	,	35864	,	-23903	,	-21620	,	-3.1699376	,	0
19,11	,	35880	,	-23899	,	-21613	,	-5.0222034	,	0
19,11	,	35912	,	-23905	,	-21614	,	-6.95522	,	0
19,11	,	35928	,	-23912	,	-21623	,	-8.819924	,	0
19,11	,	35944	,	-23923	,	-21621	,	-10.549761	,	0
19,11	,	35976	,	-23920	,	-21625	,	-12.167232	,	0
19,11	,	35992	,	-23924	,	-21638	,	-13.598858	,	0
19,11	,	36008	,	-23931	,	-21621	,	-14.694317	,	0
19,11	,	36040	,	-23954	,	-21641	,	-15.497763	,	0
19,11	,	36056	,	-23968	,	-21640	,	-16.38096	,	0
19,11	,	36072	,	-23954	,	-21643	,	-17.669579	,	0
19,11	,	36104	,	-23957	,	-21643	,	-19.161098	,	0
19,11	,	36120	,	-23979	,	-21650	,	-20.401245	,	0
19,11	,	36152	,	-23970	,	-21650	,	-21.22645	,	0
19,11	,	36168	,	-23984	,	-21650	,	-21.661024	,	0
19,11	,	36184	,	-23997	,	-21663	,	-21.775835	,	0
19,11	,	36216	,	-23984	,	-21656	,	-21.698925	,	0
19,11	,	36232	,	-23980	,	-21669	,	-21.33243	,	0
19,11	,	36248	,	-23962	,	-21624	,	-20.25293	,	0
19,11	,	36280	,	-23921	,	-21633	,	-17.814838	,	1
19,11	,	36296	,	-23920	,	-21630	,	-13.324297	,	3
19,11	,	36328	,	-23906	,	-21630	,	-6.600565	,	7
19,11	,	36344	,	-23896	,	-21620	,	1.760376	,	13
19,11	,	36360	,	-23904	,	-21614	,	10.698685	,	21
19,11	,	36392	,	-23900	,	-21630	,	18.964539	,	29
19,11	,	36407	,	-23909	,	-21631	,	25.402622	,	37
19,11	,	36424	,	-23916	,	-21626	,	29.212515	,	43
19,11	,	36456	,	-23908	,	-21631	,	30.08151	,	46
19,11	,	36472	,	-23904	,	-21634	,	28.321587	,	45
19,11	,	36504	,	-23912	,	-21605	,	24.699959	,	43
19,11	,	36520	,	-23906	,	-21625	,	20.02561	,	39
19,11	,	36536	,	-23914	,	-21623	,	14.963515	,	33
19,11	,	36568	,	-23908	,	-21635	,	10.034814	,	25
19,11	,	36583	,	-23915	,	-21631	,	5.6229105	,	17
19,11	,	36600	,	-23922	,	-21633	,	1.9194779	,	9
19,11	,	36632	,	-23926	,	-21629	,	-1.115459	,	3
19,11	,	36648	,	-23925	,	-21632	,	-3.6059563	,	0
19,11	,	36664	,	-23916	,	-21638	,	-5.5418777	,	0
19,11	,	36696	,	-23936	,	-21646	,	-6.835947	,	0
19,11	,	36712	,	-23936	,	-21657	,	-7.613579	,	0
19,11	,	36744	,	-23945	,	-21629	,	-8.197018	,	0
19,11	,	36760	,	-23947	,	-21648	,	-8.836392	,	0
19,11	,	36776	,	-23966	,	-21648	,	-9.686262	,	0
19,11	,	36807	,	-23972	,	-21651	,	-10.920481	,	0
19,11	,	36824	,	-23972	,	-21650	,	-12.623104	,	0
19,12	,	36840	,	-23984	,	-21654	,	-14.637389	,	0
19,12	,	36872	,	-23975	,	-21659	,	-16.642231	,	0
19,12	,	36888	,	-23981	,	-21669	,	-18.245773	,	0
19,12	,	36919	,	-23987	,	-21658	,	-19.13319	,	0
19,12	,	36936	,	-23988	,	-21660	,	-19.246971	,	0
19,12	,	36951	,	-24006	,	-21674	,	-18.77687	,	0
19,12	,	36983	,	-24010	,	-21649	,	-18.092127	,	0
19,12	,	37000	,	-24037	,	-21666	,	-17.669252	,	0
19,12	,	37016	,	-24034	,	-21671	,	-17.93378	,	0
19,12	,	37048	,	-24022	,	-21669	,	-18.897867	,	0
19,12	,	37064	,	-23990	,	-21664	,	-19.827309	,	0
19,12	,	37080	,	-23981	,	-21657	,	-19.509703	,	0
19,12	,	37112	,	-23969	,	-21649	,	-17.017467	,	0
19,12	,	37127	,	-23957	,	-21642	,	-12.172786	,	2
19,12	,	37159	,	-23938	,	-21636	,	-5.371399	,	6
19,12	,	37176	,	-23936	,	-21635	,	2.714017	,	12
19,12	,	37192	,	-23940	,	-21650	,	11.148418	,	20
19,12	,	37224	,	-23925	,	-21619	,	18.848928	,	28
19,12	,	37239	,	-23922	,	-21623	,	25.004562	,	35
19,12	,	37255	,	-23932	,	-21620	,	29.18841	,	41
19,12	,	37287	,	-23923	,	-21622	,	31.163876	,	45
19,12	,	37303	,	-23917	,	-21620	,	30.999947	,	46
19,12	,	37335	,	-23917	,	-21624	,	29.158077	,	44
19,12	,	37351	,	-23914	,	-21613	,	26.222229	,	40
19,12	,	37368	,	-23926	,	-21620	,	22.645466	,	34
19,12	,	37399	,	-23927	,	-21613	,	18.667164	,	26
19,12	,	37415	,	-23914	,	-21611	,	14.485158	,	18
19,12	,	37431	,	-23918	,	-21616	,	10.472818	,	11
19,12	,	37463	,	-23917	,	-21617	,	7.0174904	,	5
19,12	,	37479	,	-23924	,	-21623	,	4.274495	,	1
19,12	,	37495	,	-23918	,	-21625	,	2.2018414	,	0
19,12	,	37527	,	-23926	,	-21621	,	0.6899302	,	0
19,12	,	37543	,	-23923	,	-21622	,	-0.394356	,	0
19,12	,	37575	,	-23944	,	-21613	,	-1.2593116	,	0
19,12	,	37591	,	-23942	,	-21628	,	-2.2236357	,	0
19,12	,	37607	,	-23960	,	-21623	,	-3.5968246	,	0
19,12	,	37639	,	-23960	,	-21634	,	-5.5413566	,	0
19,12	,	37655	,	-23957	,	-21636	,	-7.9606714	,	0
19,12	,	37671	,	-23968	,	-21638	,	-10.494559	,	0
19,12	,	37703	,	-23982	,	-21640	,	-12.8431015	,	0
19,12	,	37719	,	-23980	,	-21645	,	-14.9476	,	0
19,12	,	37751	,	-23994	,	-21648	,	-16.797573	,	0
19,12	,	37767	,	-23989	,	-21655	,	-18.330177	,	0
19,12	,	37783	,	-23995	,	-21656	,	-19.433636	,	0
19,12	,	37815	,	-24004	,	-21655	,	-20.010405	,	0
19,12	,	37831	,	-24003	,	-21653	,	-20.082397	,	0
19,13	,	37847	,	-24013	,	-21656	,	-19.743599	,	0
19,13	,	37879	,	-24011	,	-21654	,	-19.096222	,	0
19,13	,	37895	,	-23998	,	-21658	,	-18.143635	,	0
19,13	,	37911	,	-23977	,	-21635	,	-16.587313	,	0
19,13	,	37943	,	-23949	,	-21635	,	-13.820495	,	1
19,13	,	37959	,	-23918	,	-21615	,	-9.151903	,	3
19,13	,	37991	,	-23911	,	-21615	,	-2.2009196	,	7
19,13	,	38007	,	-23899	,	-21613	,	6.693175	,	13
19,13	,	38023	,	-23885	,	-21608	,	16.550472	,	21
19,13	,	38055	,	-23890	,	-21612	,	26.172234	,	30
19,13	,	38071	,	-23881	,	-21606	,	34.387802	,	39
19,13	,	38087	,	-23886	,	-21606	,	40.256065	,	47
19,13	,	38119	,	-23889	,	-21608	,	43.22079	,	52
19,13	,	38135	,	-23883	,	-21588	,	43.150955	,	53
19,13	,	38167	,	-23881	,	-21593	,	40.40548	,	51
19,13	,	38183	,	-23880	,	-21604	,	35.71953	,	47
19,13	,	38199	,	-23871	,	-21599	,	29.960712	,	41
19,13	,	38231	,	-23877	,	-21605	,	23.961407	,	33
19,13	,	38247	,	-23881	,	-21618	,	18.306221	,	24
19,13	,	38263	,	-23879	,	-21607	,	13.250512	,	15
19,13	,	38295	,	-23875	,	-21606	,	8.921458	,	7
19,13	,	38311	,	-23879	,	-21602	,	5.4404774	,	2
19,13	,	38327	,	-23882	,	-21612	,	2.8247828	,	0
19,13	,	38359	,	-23894	,	-21605	,	0.88740826	,	0
19,13	,	38375	,	-23896	,	-21613	,	-0.7176156	,	0
19,13	,	38407	,	-23899	,	-21598	,	-2.2895045	,	0
19,13	,	38423	,	-23913	,	-21624	,	-3.9773204	,	0
19,13	,	38439	,	-23909	,	-21611	,	-5.8464427	,	0
19,13	,	38471	,	-23927	,	-21615	,	-7.8861895	,	0
19,13	,	38487	,	-23923	,	-21622	,	-10.026201	,	0
19,13	,	38503	,	-23931	,	-21623	,	-12.13864	,	0
19,13	,	38535	,	-23927	,	-21631	,	-13.997937	,	0
19,13	,	38551	,	-23941	,	-21625	,	-15.387619	,	0
19,13	,	38583	,	-23953	,	-21626	,	-16.309929	,	0
19,13	,	38599	,	-23945	,	-21632	,	-16.942991	,	0
19,13	,	38615	,	-23951	,	-21648	,	-17.336786	,	0
19,13	,	38647	,	-23963	,	-21614	,	-17.438475	,	0
19,13	,	38663	,	-23983	,	-21637	,	-17.419783	,	0
19,13	,	38679	,	-23975	,	-21632	,	-17.611832	,	0
19,13	,	38711	,	-23965	,	-21628	,	-18.01931	,	0
19,13	,	38727	,	-23948	,	-21635	,	-18.103811	,	0
19,13	,	38759	,	-23922	,	-21619	,	-17.032887	,	0
19,13	,	38775	,	-23905	,	-21607	,	-14.021403	,	1
19,13	,	38791	,	-23883	,	-21601	,	-8.6454115	,	4
19,13	,	38823	,	-23875	,	-21597	,	-1.0550475	,	9
19,14	,	38839	,	-23865	,	-21591	,	8.020616	,	16
19,14	,	38855	,	-23867	,	-21608	,	17.441525	,	25
19,14	,	38887	,	-23851	,	-21573	,	25.996181	,	34
19,14	,	38903	,	-23852	,	-21587	,	32.780968	,	42
19,14	,	38919	,	-23854	,	-21591	,	37.275726	,	48
19,14	,	38951	,	-23852	,	-21575	,	39.221527	,	52
19,14	,	38967	,	-23849	,	-21584	,	38.667603	,	52
19,14	,	38999	,	-23841	,	-21584	,	36.046402	,	49
19,14	,	39015	,	-23841	,	-21579	,	32.05616	,	44
19,14	,	39031	,	-23848	,	-21578	,	27.364603	,	37
19,14	,	39063	,	-23849	,	-21578	,	22.384281	,	28
19,14	,	39079	,	-23843	,	-21572	,	17.392382	,	19
19,14	,	39095	,	-23843	,	-21587	,	12.72439	,	11
19,14	,	39127	,	-23848	,	-21549	,	8.68483	,	5
19,14	,	39143	,	-23846	,	-21565	,	5.390069	,	1
19,14	,	39175	,	-23853	,	-21572	,	2.7947907	,	0
19,14	,	39191	,	-23866	,	-21570	,	0.7115469	,	0
19,14	,	39207	,	-23865	,	-21573	,	-1.1652496	,	0
19,14	,	39239	,	-23871	,	-21576	,	-3.0544882	,	0
19,14	,	39255	,	-23876	,	-21573	,	-4.9850416	,	0
19,14	,	39270	,	-23877	,	-21575	,	-6.889325	,	0
19,14	,	39303	,	-23891	,	-21578	,	-8.69706	,	0
19,14	,	39319	,	-23877	,	-21582	,	-10.332939	,	0
19,14	,	39335	,	-23892	,	-21604	,	-11.640301	,	0
19,14	,	39367	,	-23890	,	-21570	,	-12.488698	,	0
19,14	,	39383	,	-23892	,	-21590	,	-12.881109	,	0
19,14	,	39414	,	-23906	,	-21585	,	-12.906086	,	0
19,14	,	39430	,	-23906	,	-21598	,	-12.755758	,	0
19,14	,	39446	,	-23924	,	-21608	,	-12.691306	,	0
19,14	,	39479	,	-23936	,	-21602	,	-13.008415	,	0
19,14	,	39495	,	-23942	,	-21599	,	-13.978945	,	0
19,14	,	39511	,	-23935	,	-21600	,	-15.580278	,	0
19,14	,	39543	,	-23933	,	-21604	,	-17.346004	,	0
19,14	,	39559	,	-23913	,	-21600	,	-18.531185	,	0
19,14	,	39591	,	-23909	,	-21600	,	-18.38844	,	0
19,14	,	39607	,	-23866	,	-21583	,	-16.310486	,	0
19,14	,	39623	,	-23835	,	-21577	,	-11.724422	,	2
19,14	,	39655	,	-23822	,	-21567	,	-4.2591906	,	6
19,14	,	39671	,	-23829	,	-21564	,	5.6237707	,	13
19,14	,	39687	,	-23817	,	-21557	,	16.50204	,	22
19,14	,	39718	,	-23815	,	-21559	,	26.69197	,	32
19,14	,	39734	,	-23805	,	-21558	,	34.91713	,	42
19,14	,	39750	,	-23822	,	-21562	,	40.401157	,	50
19,14	,	39783	,	-23823	,	-21562	,	42.670048	,	55
19,14	,	39799	,	-23820	,	-21560	,	41.61857	,	57
19,14	,	39831	,	-23806	,	-21568	,	37.78282	,	55
19,15	,	39847	,	-23809	,	-21551	,	32.22785	,	51
19,15	,	39863	,	-23810	,	-21560	,	26.030512	,	44
19,15	,	39895	,	-23813	,	-21553	,	19.922646	,	35
19,15	,	39911	,	-23797	,	-21562	,	14.386954	,	25
19,15	,	39926	,	-23808	,	-21562	,	9.822841	,	15
19,15	,	39959	,	-23816	,	-21556	,	6.358101	,	7
19,15	,	39975	,	-23819	,	-21564	,	3.7292352	,	2
19,15	,	40006	,	-23816	,	-21559	,	1.59972	,	0
19,15	,	40022	,	-23824	,	-21567	,	-0.19760036	,	0
19,15	,	40038	,	-23814	,	-21571	,	-1.703568	,	0
19,15	,	40070	,	-23839	,	-21570	,	-2.952284	,	0
19,15	,	40086	,	-23853	,	-21573	,	-4.207024	,	0
19,15	,	40102	,	-23861	,	-21568	,	-5.9470134	,	0
19,15	,	40135	,	-23863	,	-21581	,	-8.429612	,	0
19,15	,	40151	,	-23865	,	-21575	,	-11.4471855	,	0
19,15	,	40182	,	-23882	,	-21586	,	-14.572626	,	0
19,15	,	40198	,	-23874	,	-21594	,	-17.452614	,	0
19,15	,	40214	,	-23882	,	-21584	,	-19.780186	,	0
19,15	,	40246	,	-23888	,	-21587	,	-21.299183	,	0
19,15	,	40262	,	-23889	,	-21594	,	-21.948332	,	0
19,15	,	40278	,	-23897	,	-21596	,	-21.826515	,	0
19,15	,	40311	,	-23891	,	-21574	,	-21.075596	,	0
19,15	,	40326	,	-23884	,	-21589	,	-19.746208	,	0
19,15	,	40342	,	-23843	,	-21563	,	-17.57232	,	1
19,15	,	40374	,	-23829	,	-21559	,	-13.91534	,	3
19,15	,	40390	,	-23801	,	-21556	,	-8.17623	,	6
19,15	,	40422	,	-23809	,	-21558	,	-0.36694908	,	11
19,15	,	40438	,	-23795	,	-21551	,	8.708605	,	18
19,15	,	40454	,	-23789	,	-21548	,	17.843811	,	27
19,15	,	40487	,	-23780	,	-21542	,	25.97662	,	36
19,15	,	40502	,	-23783	,	-21545	,	32.35706	,	44
19,15	,	40518	,	-23782	,	-21557	,	36.47334	,	50
19,15	,	40551	,	-23787	,	-21535	,	38.04627	,	53
19,15	,	40566	,	-23789	,	-21545	,	37.066635	,	52
19,15	,	40598	,	-23792	,	-21547	,	33.80784	,	49
19,15	,	40614	,	-23792	,	-21548	,	28.80345	,	44
19,15	,	40630	,	-23790	,	-21539	,	22.769857	,	37
19,15	,	40662	,	-23795	,	-21534	,	16.45229	,	28
19,15	,	40678	,	-23793	,	-21546	,	10.467275	,	19
19,15	,	40694	,	-23789	,	-21545	,	5.280737	,	11
19,15	,	40726	,	-23782	,	-21540	,	1.2689719	,	5
19,15	,	40742	,	-23788	,	-21553	,	-1.3463478	,	1
19,15	,	40758	,	-23801	,	-21556	,	-2.6997697	,	0
19,15	,	40790	,	-23803	,	-21529	,	-3.2921667	,	0
19,15	,	40806	,	-23818	,	-21549	,	-3.7165227	,	0
19,16	,	40838	,	-23818	,	-21544	,	-4.431688	,	0
19,16	,	40854	,	-23827	,	-21548	,	-5.6588616	,	0
19,16	,	40870	,	-23831	,	-21550	,	-7.382135	,	0
19,16	,	40902	,	-23840	,	-21549	,	-9.462875	,	0
19,16	,	40918	,	-23845	,	-21558	,	-11.726179	,	0
19,16	,	40934	,	-23842	,	-21558	,	-13.947035	,	0
19,16	,	40966	,	-23848	,	-21564	,	-15.824326	,	0
19,16	,	40983	,	-23859	,	-21569	,	-17.136307	,	0
19,16	,	41014	,	-23863	,	-21581	,	-17.907053	,	0
19,16	,	41030	,	-23879	,	-21555	,	-18.345182	,	0
19,16	,	41046	,	-23883	,	-21578	,	-18.720476	,	0
19,16	,	41078	,	-23866	,	-21561	,	-19.117336	,	0
19,16	,	41094	,	-23850	,	-21558	,	-19.127117	,	0
19,16	,	41110	,	-23816	,	-21561	,	-17.897434	,	0
19,16	,	41142	,	-23806	,	-21543	,	-14.559697	,	1
19,16	,	41158	,	-23801	,	-21530	,	-8.81315	,	4
19,16	,	41174	,	-23784	,	-21535	,	-1.1586857	,	9
19,16	,	41206	,	-23769	,	-21529	,	7.515352	,	16
19,16	,	41222	,	-23760	,	-21532	,	16.355509	,	24
19,16	,	41254	,	-23752	,	-21537	,	24.591555	,	32
19,16	,	41270	,	-23759	,	-21504	,	31.472277	,	40
19,16	,	41286	,	-23749	,	-21531	,	36.318844	,	46
19,16	,	41318	,	-23749	,	-21530	,	38.757042	,	50
19,16	,	41334	,	-23733	,	-21518	,	38.89557	,	51
19,16	,	41350	,	-23740	,	-21529	,	37.213165	,	48
19,16	,	41382	,	-23743	,	-21529	,	34.206482	,	43
19,16	,	41398	,	-23741	,	-21512	,	30.203993	,	36
19,16	,	41430	,	-23743	,	-21526	,	25.514057	,	28
19,16	,	41446	,	-23752	,	-21522	,	20.468279	,	20
19,16	,	41462	,	-23739	,	-21531	,	15.373412	,	12
19,16	,	41494	,	-23741	,	-21542	,	10.61346	,	6
19,16	,	41510	,	-23749	,	-21517	,	6.5501776	,	2
19,16	,	41526	,	-23751	,	-21533	,	3.2774434	,	0
19,16	,	41558	,	-23757	,	-21532	,	0.66352654	,	0
19,16	,	41574	,	-23759	,	-21535	,	-1.4777527	,	0
19,16	,	41606	,	-23767	,	-21535	,	-3.3185825	,	0
19,16	,	41622	,	-23768	,	-21532	,	-4.9905877	,	0
19,16	,	41638	,	-23780	,	-21542	,	-6.5844936	,	0
19,16	,	41670	,	-23781	,	-21546	,	-8.167792	,	0
19,16	,	41686	,	-23792	,	-21548	,	-9.775937	,	0
19,16	,	41702	,	-23804	,	-21562	,	-11.450943	,	0
19,16	,	41734	,	-23796	,	-21566	,	-13.207587	,	0
19,16	,	41750	,	-23815	,	-21555	,	-14.924427	,	0
19,16	,	41766	,	-23820	,	-21566	,	-16.496122	,	0
19,16	,	41797	,	-23837	,	-21570	,	-17.996876	,	0
19,16	,	41814	,	-23841	,	-21576	,	-19.565289	,	0
19,17	,	41846	,	-23845	,	-21577	,	-21.218075	,	0
19,17	,	41862	,	-23830	,	-21572	,	-22.684452	,	0
19,17	,	41878	,	-23812	,	-21560	,	-23.328484	,	0
19,17	,	41910	,	-23782	,	-21547	,	-22.269669	,	0
19,17	,	41926	,	-23765	,	-21538	,	-18.71256	,	1
19,17	,	41942	,	-23752	,	-21536	,	-12.373715	,	4
19,17	,	41974	,	-23747	,	-21533	,	-3.7333412	,	10
19,17	,	41990	,	-23730	,	-21522	,	6.1504116	,	18
19,17	,	42022	,	-23726	,	-21529	,	16.09147	,	27
19,17	,	42038	,	-23739	,	-21527	,	24.949812	,	36
19,17	,	42054	,	-23729	,	-21528	,	31.654848	,	44
19,17	,	42086	,	-23715	,	-21531	,	35.609653	,	50
19,17	,	42102	,	-23746	,	-21524	,	36.815998	,	53
19,17	,	42118	,	-23742	,	-21524	,	35.38145	,	53
19,17	,	42149	,	-23745	,	-21525	,	31.491385	,	50
19,17	,	42165	,	-23734	,	-21532	,	25.78392	,	44
19,17	,	42181	,	-23731	,	-21535	,	19.288464	,	36
19,17	,	42214	,	-23739	,	-21536	,	13.009008	,	27
19,17	,	42230	,	-23721	,	-21530	,	7.6450205	,	18
19,17	,	42262	,	-23743	,	-21528	,	3.5716267	,	10
19,17	,	42278	,	-23746	,	-21540	,	0.7291217	,	4
19,17	,	42294	,	-23742	,	-21540	,	-1.2760451	,	1
19,17	,	42326	,	-23766	,	-21537	,	-2.8379653	,	0
19,17	,	42342	,	-23748	,	-21543	,	-4.265712	,	0
19,17	,	42358	,	-23775	,	-21554	,	-5.7270484	,	0
19,17	,	42390	,	-23780	,	-21558	,	-7.349253	,	0
19,17	,	42406	,	-23784	,	-21551	,	-9.3005	,	0
19,17	,	42437	,	-23792	,	-21563	,	-11.565203	,	0
19,17	,	42454	,	-23792	,	-21550	,	-13.916919	,	0
19,17	,	42469	,	-23802	,	-21560	,	-16.082659	,	0
19,17	,	42501	,	-23825	,	-21560	,	-17.957897	,	0
19,17	,	42518	,	-23822	,	-21572	,	-19.688574	,	0
19,17	,	42534	,	-23827	,	-21575	,	-21.351118	,	0
19,17	,	42566	,	-23838	,	-21570	,	-22.797619	,	0
19,17	,	42582	,	-23848	,	-21573	,	-23.918577	,	0
19,17	,	42597	,	-23853	,	-21571	,	-24.75008	,	0
19,17	,	42629	,	-23861	,	-21579	,	-25.339287	,	0
19,17	,	42645	,	-23868	,	-21584	,	-25.696255	,	0
19,17	,	42677	,	-23864	,	-21595	,	-25.781979	,	0
19,17	,	42693	,	-23854	,	-21563	,	-25.394617	,	0
19,17	,	42709	,	-23821	,	-21561	,	-24.033218	,	0
19,17	,	42741	,	-23791	,	-21558	,	-20.883839	,	1
19,17	,	42757	,	-23798	,	-21551	,	-15.297279	,	4
19,17	,	42773	,	-23771	,	-21540	,	-7.4190903	,	9
19,17	,	42805	,	-23764	,	-21545	,	1.9563446	,	16
19,17	,	42821	,	-23772	,	-21545	,	11.767545	,	25
19,18	,	42853	,	-23764	,	-21543	,	20.76167	,	34
19,18	,	42870	,	-23755	,	-21547	,	27.871267	,	42
19,18	,	42885	,	-23771	,	-21542	,	32.51668	,	49
19,18	,	42917	,	-23772	,	-21551	,	34.39847	,	53
19,18	,	42933	,	-23769	,	-21531	,	33.478912	,	53
19,18	,	42949	,	-23769	,	-21552	,	30.183979	,	50
19,18	,	42981	,	-23771	,	-21547	,	25.280611	,	45
19,18	,	42997	,	-23766	,	-21539	,	19.604334	,	38
19,18	,	43013	,	-23762	,	-21543	,	13.9444	,	29
19,18	,	43045	,	-23771	,	-21549	,	8.925052	,	20
19,18	,	43061	,	-23763	,	-21554	,	4.8714256	,	12
19,18	,	43093	,	-23768	,	-21540	,	1.872796	,	5
19,18	,	43109	,	-23769	,	-21553	,	-0.124592304	,	1
19,18	,	43125	,	-23788	,	-21549	,	-1.3890355	,	0
19,18	,	43158	,	-23782	,	-21565	,	-2.373104	,	0
19,18	,	43173	,	-23782	,	-21545	,	-3.387566	,	0
19,18	,	43189	,	-23821	,	-21571	,	-4.593028	,	0
19,18	,	43221	,	-23793	,	-21574	,	-6.2305756	,	0
19,18	,	43237	,	-23810	,	-21572	,	-8.2925205	,	0
19,18	,	43269	,	-23816	,	-21565	,	-10.445333	,	0
19,18	,	43285	,	-23828	,	-21580	,	-12.500237	,	0
19,18	,	43301	,	-23838	,	-21580	,	-14.494889	,	0
19,18	,	43333	,	-23834	,	-21590	,	-16.453081	,	0
19,18	,	43349	,	-23848	,	-21579	,	-18.251913	,	0
19,18	,	43365	,	-23865	,	-21584	,	-19.80889	,	0
19,18	,	43397	,	-23862	,	-21605	,	-21.2215	,	0
19,18	,	43413	,	-23862	,	-21582	,	-22.474434	,	0
19,18	,	43445	,	-23872	,	-21600	,	-23.332485	,	0
19,18	,	43461	,	-23883	,	-21611	,	-23.67136	,	0
19,18	,	43477	,	-23880	,	-21602	,	-23.584423	,	0
19,18	,	43509	,	-23856	,	-21588	,	-23.008833	,	0
19,18	,	43525	,	-23840	,	-21590	,	-21.448092	,	0
19,18	,	43541	,	-23829	,	-21588	,	-18.281624	,	1
19,18	,	43573	,	-23806	,	-21575	,	-13.212388	,	4
19,18	,	43589	,	-23813	,	-21580	,	-6.4177895	,	9
19,18	,	43605	,	-23806	,	-21570	,	1.3928852	,	15
19,18	,	43637	,	-23806	,	-21586	,	9.159974	,	22
19,18	,	43653	,	-23803	,	-21553	,	15.894241	,	29
19,18	,	43685	,	-23807	,	-21574	,	20.895538	,	35
19,18	,	43701	,	-23810	,	-21575	,	23.757618	,	40
19,18	,	43717	,	-23817	,	-21572	,	24.337862	,	42
19,18	,	43749	,	-23813	,	-21577	,	22.77742	,	41
19,18	,	43765	,	-23804	,	-21585	,	19.587542	,	38
19,18	,	43781	,	-23813	,	-21576	,	15.541086	,	33
19,18	,	43813	,	-23820	,	-21560	,	11.279509	,	27
19,18	,	43829	,	-23822	,	-21569	,	7.1135044	,	20
19,19	,	43861	,	-23820	,	-21573	,	3.2198577	,	13
19,19	,	43878	,	-23827	,	-21592	,	-0.20586348	,	7
19,19	,	43893	,	-23824	,	-21562	,	-3.011717	,	2
19,19	,	43925	,	-23838	,	-21579	,	-5.170027	,	0
19,19	,	43941	,	-23843	,	-21571	,	-6.831403	,	0
19,19	,	43957	,	-23851	,	-21576	,	-8.264291	,	0
19,19	,	43989	,	-23847	,	-21584	,	-9.638429	,	0
19,19	,	44005	,	-23855	,	-21584	,	-10.915573	,	0
19,19	,	44021	,	-23879	,	-21596	,	-12.085662	,	0
19,19	,	44053	,	-23870	,	-21597	,	-13.337109	,	0
19,19	,	44069	,	-23881	,	-21602	,	-14.763033	,	0
19,19	,	44101	,	-23887	,	-21600	,	-16.23152	,	0
19,19	,	44117	,	-23891	,	-21626	,	-17.597517	,	0
19,19	,	44133	,	-23907	,	-21592	,	-18.798359	,	0
19,19	,	44165	,	-23904	,	-21612	,	-19.845629	,	0
19,19	,	44181	,	-23916	,	-21618	,	-20.73753	,	0
19,19	,	44197	,	-23922	,	-21622	,	-21.439026	,	0
19,19	,	44229	,	-23927	,	-21620	,	-21.950459	,	0
19,19	,	44245	,	-23924	,	-21617	,	-22.229506	,	0
19,19	,	44277	,	-23915	,	-21612	,	-22.067923	,	0
19,19	,	44293	,	-23894	,	-21605	,	-21.047825	,	0
19,19	,	44309	,	-23892	,	-21596	,	-18.680586	,	1
19,19	,	44341	,	-23868	,	-21590	,	-14.687795	,	3
19,19	,	44357	,	-23868	,	-21597	,	-9.130718	,	6
19,19	,	44373	,	-23855	,	-21568	,	-2.4119062	,	11
19,19	,	44404	,	-23853	,	-21580	,	4.7967687	,	17
19,19	,	44421	,	-23849	,	-21573	,	11.727467	,	24
19,19	,	44437	,	-23840	,	-21581	,	17.702734	,	30
19,19	,	44468	,	-23871	,	-21582	,	22.139225	,	35
19,19	,	44485	,	-23852	,	-21585	,	24.477459	,	39
19,19	,	44516	,	-23852	,	-21584	,	24.534985	,	40
19,19	,	44532	,	-23850	,	-21582	,	22.743555	,	38
19,19	,	44548	,	-23861	,	-21577	,	19.726017	,	35
19,19	,	44581	,	-23861	,	-21579	,	15.938064	,	30
19,19	,	44597	,	-23859	,	-21602	,	11.74727	,	24
19,19	,	44613	,	-23860	,	-21573	,	7.5715084	,	17
19,19	,	44645	,	-23870	,	-21598	,	3.766942	,	11
19,19	,	44661	,	-23865	,	-21591	,	0.49264526	,	6
19,19	,	44692	,	-23873	,	-21601	,	-2.2007182	,	2
19,19	,	44708	,	-23876	,	-21596	,	-4.3254585	,	0
19,19	,	44724	,	-23887	,	-21596	,	-6.0186667	,	0
19,19	,	44757	,	-23894	,	-21603	,	-7.515563	,	0
19,19	,	44773	,	-23894	,	-21605	,	-9.004694	,	0
19,19	,	44789	,	-23894	,	-21603	,	-10.466868	,	0
19,19	,	44821	,	-23890	,	-21609	,	-11.670593	,	0
19,20	,	44837	,	-23910	,	-21617	,	-12.413389	,	0
19,20	,	44853	,	-23921	,	-21610	,	-12.831671	,	0
19,20	,	44885	,	-23934	,	-21621	,	-13.365503	,	0
19,20	,	44901	,	-23944	,	-21631	,	-14.418861	,	0
19,20	,	44932	,	-23937	,	-21623	,	-16.075478	,	0
19,20	,	44948	,	-23948	,	-21635	,	-18.026905	,	0
19,20	,	44964	,	-23953	,	-21635	,	-19.844122	,	0
19,20	,	44997	,	-23958	,	-21635	,	-21.266447	,	0
19,20	,	45013	,	-23961	,	-21638	,	-22.174715	,	0
19,20	,	45029	,	-23943	,	-21626	,	-22.40364	,	0
19,20	,	45060	,	-23920	,	-21630	,	-21.526438	,	0
19,20	,	45076	,	-23907	,	-21616	,	-18.9226	,	0
19,20	,	45108	,	-23875	,	-21604	,	-14.12863	,	2
19,20	,	45124	,	-23866	,	-21602	,	-7.051008	,	6
19,20	,	45140	,	-23852	,	-21594	,	1.9120979	,	13
19,20	,	45173	,	-23858	,	-21597	,	11.798565	,	21
19,20	,	45189	,	-23855	,	-21596	,	21.257854	,	30
19,20	,	45205	,	-23859	,	-21595	,	28.95523	,	39
19,20	,	45236	,	-23862	,	-21598	,	33.941734	,	46
19,20	,	45252	,	-23855	,	-21596	,	35.83367	,	50
19,20	,	45268	,	-23860	,	-21595	,	34.83642	,	51
19,20	,	45300	,	-23856	,	-21605	,	31.556875	,	49
19,20	,	45316	,	-23855	,	-21598	,	26.767641	,	45
19,20	,	45348	,	-23844	,	-21595	,	21.322767	,	38
19,20	,	45364	,	-23854	,	-21589	,	16.023155	,	30
19,20	,	45380	,	-23858	,	-21591	,	11.342679	,	21
19,20	,	45412	,	-23860	,	-21588	,	7.369644	,	12
19,20	,	45428	,	-23868	,	-21595	,	4.0108976	,	5
19,20	,	45444	,	-23880	,	-21598	,	1.0725541	,	1
19,20	,	45476	,	-23888	,	-21604	,	-1.729182	,	0
19,20	,	45492	,	-23873	,	-21603	,	-4.5211625	,	0
19,20	,	45524	,	-23896	,	-21608	,	-7.1355543	,	0
19,20	,	45540	,	-23886	,	-21621	,	-9.383017	,	0
19,20	,	45556	,	-23897	,	-21606	,	-11.183798	,	0
19,20	,	45588	,	-23905	,	-21616	,	-12.523015	,	0
19,20	,	45604	,	-23915	,	-21617	,	-13.539979	,	0
19,20	,	45620	,	-23921	,	-21621	,	-14.472155	,	0
19,20	,	45652	,	-23916	,	-21618	,	-15.424604	,	0
19,20	,	45668	,	-23935	,	-21625	,	-16.32158	,	0
19,20	,	45685	,	-23938	,	-21636	,	-17.131924	,	0
19,20	,	45716	,	-23949	,	-21634	,	-17.949554	,	0
19,20	,	45732	,	-23942	,	-21635	,	-18.790876	,	0
19,20	,	45764	,	-23947	,	-21640	,	-19.465132	,	0
19,20	,	45780	,	-23951	,	-21644	,	-19.716076	,	0
19,20	,	45796	,	-23917	,	-21615	,	-19.269451	,	0
19,20	,	45828	,	-23910	,	-21611	,	-17.629494	,	0
19,21	,	45844	,	-23873	,	-21606	,	-14.173095	,	1
19,21	,	45860	,	-23868	,	-21599	,	-8.51812	,	4
19,21	,	45892	,	-23865	,	-21590	,	-0.88248825	,	9
19,21	,	45908	,	-23846	,	-21593	,	7.871578	,	16
19,21	,	45940	,	-23844	,	-21591	,	16.695705	,	24
19,21	,	45956	,	-23856	,	-21591	,	24.578398	,	32
19,21	,	45972	,	-23847	,	-21585	,	30.530476	,	39
19,21	,	46004	,	-23845	,	-21590	,	33.92872	,	44
19,21	,	46020	,	-23851	,	-21604	,	34.706444	,	47
19,21	,	46036	,	-23854	,	-21579	,	33.103592	,	46
19,21	,	46068	,	-23849	,	-21587	,	29.54131	,	43
19,21	,	46084	,	-23833	,	-21574	,	24.743576	,	38
19,21	,	46116	,	-23847	,	-21575	,	19.620474	,	31
19,21	,	46132	,	-23843	,	-21573	,	14.827905	,	23
19,21	,	46148	,	-23849	,	-21584	,	10.609984	,	15
19,21	,	46180	,	-23851	,	-21586	,	6.998863	,	8
19,21	,	46196	,	-23856	,	-21590	,	3.9325738	,	3
19,21	,	46212	,	-23858	,	-21589	,	1.3049378	,	0
19,21	,	46244	,	-23867	,	-21596	,	-0.9942646	,	0
19,21	,	46260	,	-23856	,	-21615	,	-3.0262632	,	0
19,21	,	46276	,	-23882	,	-21595	,	-4.8057656	,	0
19,21	,	46308	,	-23876	,	-21598	,	-6.4412384	,	0
19,21	,	46324	,	-23876	,	-21608	,	-8.022983	,	0
19,21	,	46356	,	-23886	,	-21604	,	-9.4533615	,	0
19,21	,	46372	,	-23897	,	-21608	,	-10.683174	,	0
19,21	,	46388	,	-23908	,	-21618	,	-11.88379	,	0
19,21	,	46420	,	-23906	,	-21617	,	-13.237997	,	0
19,21	,	46436	,	-23916	,	-21618	,	-14.724057	,	0
19,21	,	46452	,	-23916	,	-21621	,	-16.17046	,	0
19,21	,	46484	,	-23927	,	-21625	,	-17.415573	,	0
19,21	,	46500	,	-23930	,	-21635	,	-18.38226	,	0
19,21	,	46532	,	-23924	,	-21616	,	-19.004333	,	0
19,21	,	46548	,	-23913	,	-21623	,	-19.04596	,	0
19,21	,	46564	,	-23891	,	-21615	,	-18.046116	,	0
19,21	,	46596	,	-23870	,	-21611	,	-15.436969	,	0
19,21	,	46612	,	-23839	,	-21591	,	-10.721049	,	2
19,21	,	46628	,	-23846	,	-21597	,	-3.7858372	,	6
19,21	,	46660	,	-23834	,	-21586	,	4.753606	,	12
19,21	,	46676	,	-23835	,	-21586	,	13.705164	,	20
19,21	,	46708	,	-23827	,	-21591	,	21.837948	,	28
19,21	,	46724	,	-23825	,	-21588	,	28.237528	,	36
19,21	,	46740	,	-23824	,	-21595	,	32.396515	,	42
19,21	,	46772	,	-23831	,	-21580	,	34.127213	,	46
19,21	,	46788	,	-23834	,	-21579	,	33.446327	,	47
19,21	,	46804	,	-23825	,	-21578	,	30.636326	,	45
19,22	,	46836	,	-23826	,	-21581	,	26.319439	,	41
19,22	,	46852	,	-23825	,	-21583	,	21.265438	,	35
19,22	,	46868	,	-23815	,	-21584	,	16.18409	,	27
19,22	,	46900	,	-23817	,	-21576	,	11.686493	,	19
19,22	,	46916	,	-23819	,	-21590	,	8.148245	,	11
19,22	,	46947	,	-23826	,	-21587	,	5.573419	,	5
19,22	,	46964	,	-23836	,	-21588	,	3.6588573	,	1
19,22	,	46980	,	-23827	,	-21586	,	2.030765	,	0
19,22	,	47012	,	-23828	,	-21586	,	0.5431397	,	0
19,22	,	47028	,	-23844	,	-21590	,	-0.7847742	,	0
19,22	,	47044	,	-23845	,	-21588	,	-2.0694833	,	0
19,22	,	47076	,	-23854	,	-21591	,	-3.5106146	,	0
19,22	,	47092	,	-23845	,	-21599	,	-5.1378036	,	0
19,22	,	47123	,	-23870	,	-21602	,	-6.8368673	,	0
19,22	,	47139	,	-23872	,	-21592	,	-8.615017	,	0
19,22	,	47155	,	-23872	,	-21599	,	-10.550408	,	0
19,22	,	47188	,	-23883	,	-21604	,	-12.540663	,	0
19,22	,	47204	,	-23887	,	-21606	,	-14.409121	,	0
19,22	,	47220	,	-23891	,	-21599	,	-16.042795	,	0
19,22	,	47252	,	-23893	,	-21603	,	-17.331005	,	0
19,22	,	47268	,	-23909	,	-21618	,	-18.216421	,	0
19,22	,	47283	,	-23894	,	-21613	,	-18.71513	,	0
19,22	,	47316	,	-23877	,	-21595	,	-18.6321	,	0
19,22	,	47332	,	-23861	,	-21594	,	-17.421478	,	0
19,22	,	47364	,	-23841	,	-21586	,	-14.498941	,	1
19,22	,	47380	,	-23831	,	-21585	,	-9.595192	,	3
19,22	,	47396	,	-23817	,	-21578	,	-2.9124804	,	7
19,22	,	47427	,	-23810	,	-21576	,	4.9278684	,	13
19,22	,	47443	,	-23808	,	-21582	,	13.051748	,	20
19,22	,	47459	,	-23807	,	-21561	,	20.484915	,	28
19,22	,	47491	,	-23817	,	-21576	,	26.297832	,	35
19,22	,	47508	,	-23814	,	-21574	,	29.768578	,	40
19,22	,	47540	,	-23815	,	-21568	,	30.601051	,	43
19,22	,	47556	,	-23812	,	-21563	,	29.023664	,	42
19,22	,	47572	,	-23805	,	-21566	,	25.67118	,	40
19,22	,	47603	,	-23810	,	-21571	,	21.34973	,	36
19,22	,	47619	,	-23814	,	-21563	,	16.727943	,	30
19,22	,	47636	,	-23805	,	-21556	,	12.244295	,	23
19,22	,	47668	,	-23829	,	-21568	,	8.162705	,	15
19,22	,	47684	,	-23825	,	-21574	,	4.484619	,	8
19,22	,	47699	,	-23820	,	-21552	,	1.130569	,	3
19,22	,	47731	,	-23835	,	-21562	,	-1.8164964	,	0
19,22	,	47747	,	-23833	,	-21572	,	-4.3023825	,	0
19,22	,	47779	,	-23837	,	-21577	,	-6.37115	,	0
19,22	,	47795	,	-23842	,	-21582	,	-8.035785	,	0
19,22	,	47811	,	-23844	,	-21574	,	-9.311636	,	0
19,23	,	47844	,	-23850	,	-21588	,	-10.246668	,	0
19,23	,	47859	,	-23844	,	-21581	,	-10.865127	,	0
19,23	,	47875	,	-23855	,	-21586	,	-11.150211	,	0
19,23	,	47907	,	-23855	,	-21589	,	-11.138496	,	0
19,23	,	47923	,	-23876	,	-21604	,	-11.025236	,	0
19,23	,	47955	,	-23875	,	-21587	,	-11.129469	,	0
19,23	,	47971	,	-23890	,	-21596	,	-11.71015	,	0
19,23	,	47988	,	-23887	,	-21598	,	-12.814226	,	0
19,23	,	48020	,	-23889	,	-21601	,	-14.241212	,	0
19,23	,	48036	,	-23876	,	-21601	,	-15.551008	,	0
19,23	,	48051	,	-23854	,	-21592	,	-16.083559	,	0
19,23	,	48083	,	-23843	,	-21586	,	-15.086883	,	0
19,23	,	48099	,	-23809	,	-21574	,	-11.967968	,	0
19,23	,	48115	,	-23799	,	-21576	,	-6.463354	,	3
19,23	,	48147	,	-23795	,	-21566	,	1.1541576	,	8
19,23	,	48164	,	-23786	,	-21570	,	9.968206	,	15
19,23	,	48195	,	-23777	,	-21550	,	18.789108	,	23
19,23	,	48212	,	-23782	,	-21556	,	26.546104	,	31
19,23	,	48227	,	-23792	,	-21560	,	32.305206	,	38
19,23	,	48259	,	-23784	,	-21562	,	35.355705	,	43
19,23	,	48275	,	-23789	,	-21574	,	35.51215	,	46
19,23	,	48291	,	-23777	,	-21573	,	33.179253	,	46
19,23	,	48323	,	-23784	,	-21567	,	29.112272	,	43
19,23	,	48339	,	-23777	,	-21564	,	24.122322	,	38
19,23	,	48371	,	-23782	,	-21562	,	18.892887	,	31
19,23	,	48387	,	-23778	,	-21563	,	13.933216	,	23
19,23	,	48403	,	-23780	,	-21582	,	9.578844	,	15
19,23	,	48435	,	-23793	,	-21548	,	5.9472933	,	8
19,23	,	48451	,	-23805	,	-21576	,	2.848547	,	3
19,23	,	48467	,	-23795	,	-21583	,	-0.022537708	,	0
19,23	,	48499	,	-23824	,	-21576	,	-2.823182	,	0
19,23	,	48515	,	-23811	,	-21579	,	-5.632882	,	0
19,23	,	48531	,	-23824	,	-21581	,	-8.423164	,	0
19,23	,	48563	,	-23833	,	-21581	,	-11.041062	,	0
19,23	,	48579	,	-23829	,	-21579	,	-13.369226	,	0
19,23	,	48611	,	-23836	,	-21597	,	-15.26924	,	0
19,23	,	48627	,	-23851	,	-21594	,	-16.643538	,	0
19,23	,	48643	,	-23846	,	-21603	,	-17.578737	,	0
19,23	,	48675	,	-23857	,	-21578	,	-18.183187	,	0
19,23	,	48691	,	-23877	,	-21603	,	-18.587965	,	0
19,23	,	48707	,	-23873	,	-21602	,	-19.045753	,	0
19,23	,	48739	,	-23867	,	-21602	,	-19.60963	,	0
19,23	,	48755	,	-23881	,	-21608	,	-20.002611	,	0
19,23	,	48787	,	-23888	,	-21604	,	-20.043642	,	0
19,23	,	48803	,	-23908	,	-21609	,	-19.9053	,	0
19,23	,	48819	,	-23870	,	-21601	,	-19.752483	,	0
19,24	,	48851	,	-23842	,	-21596	,	-19.088528	,	0
19,24	,	48867	,	-23827	,	-21586	,	-16.830887	,	0
19,24	,	48883	,	-23811	,	-21589	,	-12.205178	,	2
19,24	,	48915	,	-23813	,	-21560	,	-5.3079567	,	6
19,24	,	48931	,	-23771	,	-21564	,	3.1501389	,	12
19,24	,	48947	,	-23767	,	-21557	,	12.433437	,	20
19,24	,	48979	,	-23763	,	-21550	,	21.833357	,	29
19,24	,	48995	,	-23776	,	-21552	,	30.325556	,	38
19,24	,	49027	,	-23762	,	-21553	,	36.761	,	46
19,24	,	49043	,	-23760	,	-21547	,	40.455482	,	52
19,24	,	49059	,	-23767	,	-21544	,	41.33601	,	55
19,24	,	49091	,	-23755	,	-21551	,	39.685425	,	53
19,24	,	49107	,	-23755	,	-21550	,	36.078407	,	49
19,24	,	49123	,	-23761	,	-21563	,	31.249104	,	43
19,24	,	49155	,	-23759	,	-21532	,	25.792978	,	35
19,24	,	49171	,	-23757	,	-21538	,	20.175571	,	26
19,24	,	49203	,	-23761	,	-21543	,	14.833121	,	17
19,24	,	49219	,	-23774	,	-21541	,	10.027681	,	9
19,24	,	49235	,	-23768	,	-21550	,	5.7775087	,	3
19,24	,	49267	,	-23767	,	-21555	,	2.1001034	,	0
19,24	,	49283	,	-23769	,	-21552	,	-0.8602104	,	0
19,24	,	49299	,	-23798	,	-21558	,	-3.1389732	,	0
19,24	,	49331	,	-23787	,	-21554	,	-5.1076517	,	0
19,24	,	49347	,	-23797	,	-21562	,	-7.0645695	,	0
19,24	,	49379	,	-23796	,	-21581	,	-8.98259	,	0
19,24	,	49395	,	-23807	,	-21558	,	-10.7302265	,	0
19,24	,	49411	,	-23820	,	-21567	,	-12.296498	,	0
19,24	,	49443	,	-23819	,	-21576	,	-13.791927	,	0
19,24	,	49459	,	-23827	,	-21586	,	-15.25791	,	0
19,24	,	49475	,	-23833	,	-21585	,	-16.616032	,	0
19,24	,	49507	,	-23844	,	-21589	,	-17.821098	,	0
19,24	,	49523	,	-23838	,	-21589	,	-18.852432	,	0
19,24	,	49539	,	-23841	,	-21595	,	-19.563768	,	0
19,24	,	49571	,	-23860	,	-21596	,	-19.813038	,	0
19,24	,	49587	,	-23860	,	-21596	,	-19.716408	,	0
19,24	,	49619	,	-23870	,	-21619	,	-19.518383	,	0
19,24	,	49635	,	-23870	,	-21589	,	-19.35476	,	0
19,24	,	49651	,	-23830	,	-21593	,	-19.010946	,	0
19,24	,	49683	,	-23805	,	-21578	,	-17.64509	,	0
19,24	,	49699	,	-23789	,	-21577	,	-14.183524	,	1
19,24	,	49715	,	-23784	,	-21566	,	-8.192936	,	4
19,24	,	49747	,	-23771	,	-21562	,	-0.16747952	,	9
19,24	,	49762	,	-23766	,	-21561	,	8.851383	,	17
19,24	,	49795	,	-23754	,	-21568	,	17.739605	,	26
19,24	,	49811	,	-23750	,	-21565	,	25.570583	,	34
19,24	,	49827	,	-23743	,	-21561	,	31.702925	,	41
19,25	,	49859	,	-23757	,	-21567	,	35.68943	,	47
19,25	,	49875	,	-23757	,	-21556	,	37.17427	,	50
19,25	,	49891	,	-23761	,	-21555	,	36.02749	,	50
19,25	,	49922	,	-23758	,	-21562	,	32.538517	,	47
19,25	,	49938	,	-23756	,	-21559	,	27.373747	,	42
19,25	,	49955	,	-23751	,	-21568	,	21.400688	,	34
19,25	,	49987	,	-23762	,	-21564	,	15.436023	,	25
19,25	,	50003	,	-23770	,	-21568	,	9.948952	,	17
19,25	,	50035	,	-23779	,	-21568	,	5.005148	,	10
19,25	,	50051	,	-23764	,	-21573	,	0.58733416	,	4
19,25	,	50067	,	-23770	,	-21575	,	-3.1016865	,	1
19,25	,	50098	,	-23770	,	-21569	,	-5.7865868	,	0
19,25	,	50114	,	-23766	,	-21570	,	-7.364147	,	0
19,25	,	50130	,	-23795	,	-21577	,	-8.007825	,	0
19,25	,	50163	,	-23793	,	-21572	,	-8.242577	,	0
19,25	,	50179	,	-23800	,	-21580	,	-8.6411085	,	0
19,25	,	50211	,	-23813	,	-21579	,	-9.48536	,	0
19,25	,	50227	,	-23823	,	-21586	,	-10.885264	,	0
19,25	,	50242	,	-23823	,	-21584	,	-12.834076	,	0
19,25	,	50274	,	-23830	,	-21587	,	-15.093969	,	0
19,25	,	50290	,	-23835	,	-21586	,	-17.302036	,	0
19,25	,	50306	,	-23839	,	-21597	,	-19.16096	,	0
19,25	,	50339	,	-23840	,	-21600	,	-20.46648	,	0
19,25	,	50355	,	-23856	,	-21607	,	-21.14006	,	0
19,25	,	50371	,	-23863	,	-21615	,	-21.3332	,	0
19,25	,	50402	,	-23877	,	-21619	,	-21.367783	,	0
19,25	,	50419	,	-23880	,	-21619	,	-21.531609	,	0
19,25	,	50450	,	-23893	,	-21619	,	-21.953934	,	0
19,25	,	50466	,	-23906	,	-21622	,	-22.671164	,	0
19,25	,	50482	,	-23913	,	-21624	,	-23.714943	,	0
19,25	,	50515	,	-23885	,	-21623	,	-24.867092	,	0
19,25	,	50531	,	-23863	,	-21609	,	-25.31332	,	0
19,25	,	50546	,	-23846	,	-21613	,	-23.909851	,	0
19,25	,	50578	,	-23830	,	-21583	,	-19.891396	,	1
19,25	,	50594	,	-23837	,	-21589	,	-13.318492	,	5
19,25	,	50626	,	-23809	,	-21588	,	-4.9809723	,	11
19,25	,	50642	,	-23812	,	-21581	,	4.106573	,	19
19,25	,	50658	,	-23803	,	-21581	,	12.987929	,	28
19,25	,	50690	,	-23801	,	-21582	,	20.772463	,	36
19,25	,	50706	,	-23812	,	-21573	,	26.700726	,	43
19,25	,	50722	,	-23807	,	-21584	,	30.202297	,	48
19,25	,	50754	,	-23812	,	-21579	,	31.046875	,	51
19,25	,	50770	,	-23807	,	-21579	,	29.458513	,	50
19,25	,	50786	,	-23817	,	-21590	,	25.973906	,	46
19,25	,	50818	,	-23814	,	-21564	,	21.223103	,	40
19,25	,	50834	,	-23815	,	-21573	,	15.848058	,	32
19,26	,	50866	,	-23812	,	-21585	,	10.494436	,	23
19,26	,	50882	,	-23817	,	-21581	,	5.6975794	,	15
19,26	,	50899	,	-23818	,	-21582	,	1.7615399	,	8
19,26	,	50931	,	-23828	,	-21586	,	-1.2676425	,	3
19,26	,	50946	,	-23833	,	-21589	,	-3.5694144	,	0
19,26	,	50962	,	-23842	,	-21587	,	-5.438422	,	0
19,26	,	50994	,	-23847	,	-21590	,	-7.1486106	,	0
19,26	,	51010	,	-23847	,	-21597	,	-8.8394	,	0
19,26	,	51042	,	-23851	,	-21606	,	-10.453527	,	0
19,26	,	51058	,	-23857	,	-21590	,	-11.845253	,	0
19,26	,	51074	,	-23876	,	-21607	,	-13.014817	,	0
19,26	,	51106	,	-23877	,	-21615	,	-14.162624	,	0
19,26	,	51122	,	-23880	,	-21612	,	-15.428627	,	0
19,26	,	51138	,	-23896	,	-21614	,	-16.76686	,	0
19,26	,	51170	,	-23893	,	-21624	,	-18.100822	,	0
19,26	,	51186	,	-23904	,	-21622	,	-19.340076	,	0
19,26	,	51202	,	-23921	,	-21624	,	-20.427238	,	0
19,26	,	51234	,	-23924	,	-21628	,	-21.463932	,	0
19,26	,	51250	,	-23929	,	-21632	,	-22.534245	,	0
19,26	,	51282	,	-23926	,	-21639	,	-23.492628	,	0
19,26	,	51298	,	-23939	,	-21627	,	-24.078373	,	0
19,26	,	51314	,	-23939	,	-21640	,	-24.151981	,	0
19,26	,	51346	,	-23939	,	-21631	,	-23.694218	,	0
19,26	,	51362	,	-23920	,	-21639	,	-22.58002	,	0
19,26	,	51378	,	-23911	,	-21627	,	-20.482054	,	1
19,26	,	51410	,	-23898	,	-21617	,	-17.069818	,	3
19,26	,	51426	,	-23879	,	-21618	,	-12.210745	,	6
19,26	,	51458	,	-23883	,	-21619	,	-6.0501127	,	10
19,26	,	51474	,	-23882	,	-21617	,	0.84689903	,	16
19,26	,	51490	,	-23871	,	-21613	,	7.6212335	,	22
19,26	,	51522	,	-23873	,	-21625	,	13.534375	,	28
19,26	,	51538	,	-23876	,	-21596	,	18.070463	,	33
19,26	,	51554	,	-23877	,	-21618	,	20.849295	,	37
19,26	,	51586	,	-23879	,	-21620	,	21.703281	,	38
19,26	,	51602	,	-23889	,	-21617	,	20.70575	,	36
19,26	,	51618	,	-23878	,	-21619	,	18.138985	,	33
19,26	,	51650	,	-23885	,	-21621	,	14.519901	,	29
19,26	,	51667	,	-23886	,	-21617	,	10.450819	,	23
19,26	,	51698	,	-23887	,	-21613	,	6.4118185	,	17
19,26	,	51714	,	-23885	,	-21612	,	2.7660847	,	11
19,26	,	51730	,	-23888	,	-21612	,	-0.21533251	,	6
19,26	,	51762	,	-23889	,	-21626	,	-2.411916	,	2
19,26	,	51778	,	-23895	,	-21604	,	-3.8776844	,	0
19,26	,	51794	,	-23911	,	-21622	,	-4.8622274	,	0
19,26	,	51826	,	-23907	,	-21635	,	-5.741133	,	0
19,27	,	51842	,	-23921	,	-21624	,	-6.790827	,	0
19,27	,	51874	,	-23932	,	-21625	,	-8.156494	,	0
19,27	,	51890	,	-23928	,	-21626	,	-9.906192	,	0
19,27	,	51906	,	-23938	,	-21639	,	-11.9128	,	0
19,27	,	51938	,	-23932	,	-21638	,	-13.874842	,	0
19,27	,	51954	,	-23945	,	-21646	,	-15.489209	,	0
19,27	,	51970	,	-23951	,	-21644	,	-16.620262	,	0
19,27	,	52002	,	-23953	,	-21657	,	-17.329094	,	0
19,27	,	52018	,	-23966	,	-21634	,	-17.73696	,	0
19,27	,	52050	,	-23984	,	-21650	,	-18.054176	,	0
19,27	,	52066	,	-23979	,	-21646	,	-18.564016	,	0
19,27	,	52082	,	-23980	,	-21650	,	-19.302258	,	0
19,27	,	52114	,	-24002	,	-21650	,	-20.06964	,	0
19,27	,	52130	,	-24001	,	-21658	,	-20.799536	,	0
19,27	,	52146	,	-23991	,	-21649	,	-21.439066	,	0
19,27	,	52178	,	-23957	,	-21644	,	-21.487751	,	0
19,27	,	52194	,	-23944	,	-21641	,	-20.014536	,	0
19,27	,	52210	,	-23947	,	-21625	,	-16.341536	,	1
19,27	,	52242	,	-23936	,	-21640	,	-10.628774	,	4
19,27	,	52258	,	-23937	,	-21614	,	-3.6837378	,	9
19,27	,	52290	,	-23929	,	-21626	,	3.5194597	,	15
19,27	,	52306	,	-23932	,	-21629	,	10.094599	,	22
19,27	,	52322	,	-23936	,	-21628	,	15.317882	,	28
19,27	,	52354	,	-23936	,	-21627	,	18.671473	,	33
19,27	,	52370	,	-23950	,	-21615	,	19.897554	,	36
19,27	,	52386	,	-23939	,	-21616	,	19.031275	,	37
19,27	,	52418	,	-23930	,	-21622	,	16.532658	,	36
19,27	,	52434	,	-23952	,	-21621	,	13.138421	,	33
19,27	,	52466	,	-23942	,	-21618	,	9.389545	,	28
19,27	,	52482	,	-23947	,	-21643	,	5.617135	,	22
19,27	,	52498	,	-23939	,	-21619	,	2.1805396	,	15
19,27	,	52529	,	-23955	,	-21633	,	-0.6342797	,	9
19,27	,	52546	,	-23957	,	-21634	,	-2.8177884	,	4
19,27	,	52562	,	-23948	,	-21639	,	-4.51001	,	1
19,27	,	52594	,	-23966	,	-21647	,	-5.778042	,	0
19,27	,	52610	,	-23963	,	-21647	,	-6.7193604	,	0
19,27	,	52626	,	-23971	,	-21644	,	-7.502617	,	0
19,27	,	52658	,	-23975	,	-21644	,	-8.24901	,	0
19,27	,	52674	,	-23974	,	-21648	,	-9.007376	,	0
19,27	,	52705	,	-23982	,	-21649	,	-9.741409	,	0
19,27	,	52722	,	-23991	,	-21663	,	-10.429801	,	0
19,27	,	52738	,	-23997	,	-21652	,	-11.163636	,	0
19,27	,	52770	,	-24011	,	-21659	,	-12.088197	,	0
19,27	,	52786	,	-24011	,	-21662	,	-13.311514	,	0
19,27	,	52802	,	-24018	,	-21664	,	-14.793458	,	0
19,27	,	52833	,	-24020	,	-21664	,	-16.331417	,	0
19,28	,	52849	,	-24020	,	-21665	,	-17.65667	,	0
19,28	,	52881	,	-24019	,	-21670	,	-18.483444	,	0
19,28	,	52897	,	-24011	,	-21667	,	-18.530924	,	0
19,28	,	52914	,	-24003	,	-21664	,	-17.548428	,	0
19,28	,	52946	,	-23978	,	-21658	,	-15.283097	,	0
19,28	,	52962	,	-23980	,	-21658	,	-11.533472	,	2
19,28	,	52978	,	-23961	,	-21643	,	-6.3761606	,	5
19,28	,	53009	,	-23950	,	-21639	,	-0.17198133	,	10
19,28	,	53025	,	-23943	,	-21641	,	6.613888	,	16
19,28	,	53041	,	-23951	,	-21634	,	13.34832	,	22
19,28	,	53073	,	-23942	,	-21626	,	19.21668	,	28
19,28	,	53089	,	-23954	,	-21639	,	23.48865	,	33
19,28	,	53122	,	-23956	,	-21636	,	25.679947	,	37
19,28	,	53138	,	-23951	,	-21634	,	25.631752	,	39
19,28	,	53154	,	-23952	,	-21637	,	23.62198	,	37
19,28	,	53185	,	-23950	,	-21642	,	20.239231	,	34
19,28	,	53201	,	-23955	,	-21640	,	16.120792	,	29
19,28	,	53217	,	-23946	,	-21638	,	11.840082	,	23
19,28	,	53249	,	-23949	,	-21638	,	7.8955393	,	17
19,28	,	53265	,	-23942	,	-21637	,	4.6624007	,	11
19,28	,	53298	,	-23948	,	-21639	,	2.330153	,	6
19,28	,	53314	,	-23966	,	-21640	,	0.784318	,	2
19,28	,	53329	,	-23968	,	-21641	,	-0.43068433	,	0
19,28	,	53361	,	-23979	,	-21644	,	-1.8138481	,	0
19,28	,	53377	,	-23977	,	-21641	,	-3.6020894	,	0
19,28	,	53393	,	-23992	,	-21639	,	-5.7752075	,	0
19,28	,	53426	,	-23992	,	-21646	,	-8.209909	,	0
19,28	,	53442	,	-23993	,	-21645	,	-10.7036	,	0
19,28	,	53458	,	-24006	,	-21651	,	-12.985214	,	0
19,28	,	53489	,	-24012	,	-21656	,	-14.912427	,	0
19,28	,	53505	,	-24004	,	-21660	,	-16.446716	,	0
19,28	,	53537	,	-24017	,	-21659	,	-17.464046	,	0
19,28	,	53553	,	-24021	,	-21658	,	-17.898827	,	0
19,28	,	53569	,	-24030	,	-21664	,	-17.898993	,	0
19,28	,	53601	,	-24041	,	-21672	,	-17.731836	,	0
19,28	,	53618	,	-24057	,	-21674	,	-17.721334	,	0
19,28	,	53634	,	-24041	,	-21668	,	-18.07167	,	0
19,28	,	53666	,	-24024	,	-21678	,	-18.48033	,	0
19,28	,	53682	,	-24023	,	-21649	,	-18.198406	,	0
19,28	,	53713	,	-23987	,	-21654	,	-16.498344	,	0
19,28	,	53729	,	-23968	,	-21642	,	-12.801083	,	1
19,28	,	53745	,	-23947	,	-21632	,	-6.754137	,	4
19,28	,	53777	,	-23940	,	-21631	,	1.450664	,	10
19,28	,	53793	,	-23944	,	-21619	,	10.922358	,	18
19,28	,	53809	,	-23944	,	-21624	,	20.250286	,	27
19,29	,	53841	,	-23923	,	-21621	,	28.097483	,	36
19,29	,	53857	,	-23938	,	-21620	,	33.700176	,	43
19,29	,	53889	,	-23943	,	-21621	,	36.672455	,	48
19,29	,	53905	,	-23939	,	-21628	,	36.813946	,	50
19,29	,	53921	,	-23935	,	-21610	,	34.367943	,	49
19,29	,	53953	,	-23933	,	-21627	,	30.055006	,	46
19,29	,	53969	,	-23937	,	-21625	,	24.731876	,	40
19,29	,	53985	,	-23923	,	-21623	,	19.170286	,	32
19,29	,	54017	,	-23934	,	-21625	,	14.018851	,	23
19,29	,	54033	,	-23937	,	-21627	,	9.645664	,	14
19,29	,	54049	,	-23940	,	-21629	,	6.0587425	,	7
19,29	,	54081	,	-23938	,	-21631	,	3.13696	,	2
19,29	,	54097	,	-23944	,	-21631	,	0.80016327	,	0
19,29	,	54129	,	-23942	,	-21628	,	-1.0248001	,	0
19,29	,	54145	,	-23950	,	-21637	,	-2.4380708	,	0
19,29	,	54161	,	-23948	,	-21612	,	-3.5547278	,	0
19,29	,	54193	,	-23965	,	-21635	,	-4.521079	,	0
19,29	,	54209	,	-23971	,	-21649	,	-5.5726037	,	0
19,29	,	54225	,	-23978	,	-21638	,	-6.959571	,	0
19,29	,	54257	,	-23974	,	-21646	,	-8.71953	,	0
19,29	,	54273	,	-23991	,	-21650	,	-10.660175	,	0
19,29	,	54305	,	-23986	,	-21645	,	-12.575245	,	0
19,29	,	54321	,	-23990	,	-21648	,	-14.275781	,	0
19,29	,	54337	,	-23993	,	-21648	,	-15.538134	,	0
19,29	,	54369	,	-24002	,	-21657	,	-16.24546	,	0
19,29	,	54385	,	-24002	,	-21672	,	-16.463678	,	0
19,29	,	54401	,	-24003	,	-21649	,	-16.298603	,	0
19,29	,	54433	,	-23967	,	-21642	,	-15.607128	,	0
19,29	,	54449	,	-23951	,	-21636	,	-13.799472	,	0
19,29	,	54465	,	-23933	,	-21630	,	-10.177766	,	1
19,29	,	54497	,	-23921	,	-21613	,	-4.5019145	,	4
19,29	,	54513	,	-23909	,	-21622	,	2.869279	,	9
19,29	,	54545	,	-23903	,	-21619	,	11.15838	,	16
19,29	,	54561	,	-23910	,	-21614	,	19.329624	,	24
19,29	,	54577	,	-23912	,	-21614	,	26.227089	,	32
19,29	,	54609	,	-23907	,	-21611	,	30.900187	,	38
19,29	,	54625	,	-23909	,	-21635	,	32.94031	,	42
19,29	,	54641	,	-23915	,	-21604	,	32.428646	,	44
19,29	,	54673	,	-23917	,	-21628	,	29.701385	,	43
19,29	,	54689	,	-23912	,	-21623	,	25.29486	,	40
19,29	,	54721	,	-23909	,	-21618	,	19.953983	,	35
19,29	,	54737	,	-23904	,	-21616	,	14.50862	,	28
19,29	,	54753	,	-23898	,	-21613	,	9.69255	,	20
19,29	,	54785	,	-23909	,	-21621	,	5.9568167	,	12
19,29	,	54801	,	-23906	,	-21622	,	3.345725	,	6
19,29	,	54817	,	-23916	,	-21620	,	1.5999832	,	2
19,30	,	54849	,	-23919	,	-21620	,	0.34606767	,	0
19,30	,	54865	,	-23936	,	-21637	,	-0.8277205	,	0
19,30	,	54881	,	-23926	,	-21608	,	-2.250615	,	0
19,30	,	54913	,	-23934	,	-21624	,	-3.9637365	,	0
19,30	,	54929	,	-23946	,	-21627	,	-5.817245	,	0
19,30	,	54961	,	-23953	,	-21638	,	-7.7686386	,	0
19,30	,	54977	,	-23961	,	-21640	,	-9.873322	,	0
19,30	,	54993	,	-23956	,	-21638	,	-12.073339	,	0
19,30	,	55025	,	-23959	,	-21636	,	-14.097773	,	0
19,30	,	55041	,	-23965	,	-21640	,	-15.612558	,	0
19,30	,	55057	,	-23970	,	-21640	,	-16.471329	,	0
19,30	,	55089	,	-23974	,	-21645	,	-16.743523	,	0
19,30	,	55105	,	-23979	,	-21664	,	-16.585716	,	0
19,30	,	55136	,	-23988	,	-21632	,	-16.18352	,	0
19,30	,	55153	,	-23983	,	-21648	,	-15.701876	,	0
19,30	,	55169	,	-23979	,	-21644	,	-15.136044	,	0
19,30	,	55201	,	-23943	,	-21637	,	-14.128578	,	0
19,30	,	55217	,	-23930	,	-21622	,	-11.962153	,	1
19,30	,	55233	,	-23911	,	-21623	,	-7.967114	,	3
19,30	,	55265	,	-23901	,	-21613	,	-2.0002885	,	6
19,30	,	55281	,	-23901	,	-21612	,	5.4373136	,	11
19,30	,	55297	,	-23894	,	-21614	,	13.363406	,	18
19,30	,	55329	,	-23892	,	-21601	,	20.680567	,	25
19,30	,	55345	,	-23901	,	-21619	,	26.457748	,	32
19,30	,	55377	,	-23896	,	-21593	,	30.011913	,	37
19,30	,	55393	,	-23906	,	-21608	,	31.030718	,	40
19,30	,	55409	,	-23891	,	-21603	,	29.666847	,	40
19,30	,	55440	,	-23903	,	-21600	,	26.4631	,	38
19,30	,	55456	,	-23889	,	-21607	,	22.136555	,	35
19,30	,	55473	,	-23884	,	-21596	,	17.457058	,	30
19,30	,	55505	,	-23885	,	-21598	,	13.1593485	,	23
19,30	,	55521	,	-23894	,	-21600	,	9.653519	,	16
19,30	,	55553	,	-23894	,	-21601	,	6.9077435	,	9
19,30	,	55569	,	-23896	,	-21605	,	4.702696	,	4
19,30	,	55585	,	-23898	,	-21609	,	2.8644176	,	1
19,30	,	55616	,	-23895	,	-21604	,	1.3106067	,	0
19,30	,	55632	,	-23910	,	-21610	,	-0.023394585	,	0
19,30	,	55648	,	-23908	,	-21616	,	-1.2852831	,	0
19,30	,	55681	,	-23910	,	-21618	,	-2.604468	,	0
19,30	,	55697	,	-23926	,	-21618	,	-4.015398	,	0
19,30	,	55729	,	-23917	,	-21621	,	-5.5443573	,	0
19,30	,	55745	,	-23928	,	-21619	,	-7.1388855	,	0
19,30	,	55761	,	-23929	,	-21621	,	-8.659408	,	0
19,30	,	55792	,	-23935	,	-21632	,	-10.0100155	,	0
19,30	,	55808	,	-23934	,	-21631	,	-11.125191	,	0
19,30	,	55825	,	-23946	,	-21625	,	-11.960201	,	0
19,31	,	55857	,	-23928	,	-21628	,	-12.474054	,	0
19,31	,	55872	,	-23903	,	-21613	,	-12.360798	,	0
19,31	,	55888	,	-23879	,	-21608	,	-10.907863	,	0
19,31	,	55921	,	-23867	,	-21592	,	-7.4196773	,	1
19,31	,	55937	,	-23853	,	-21594	,	-1.7544069	,	4
19,31	,	55968	,	-23845	,	-21596	,	5.5852776	,	9
19,31	,	55985	,	-23844	,	-21586	,	13.668538	,	16
19,31	,	56000	,	-23861	,	-21590	,	21.283808	,	24
19,31	,	56032	,	-23847	,	-21592	,	27.182259	,	31
19,31	,	56048	,	-23854	,	-21594	,	30.577593	,	36
19,31	,	56064	,	-23862	,	-21592	,	31.284225	,	39
19,31	,	56097	,	-23855	,	-21595	,	29.4877	,	39
19,31	,	56113	,	-23856	,	-21587	,	25.717548	,	38
19,31	,	56144	,	-23854	,	-21594	,	20.768063	,	35
19,31	,	56160	,	-23860	,	-21589	,	15.411903	,	30
19,31	,	56176	,	-23845	,	-21592	,	10.292926	,	23
19,31	,	56208	,	-23847	,	-21588	,	5.983428	,	15
19,31	,	56224	,	-23845	,	-21594	,	2.8740106	,	8
19,31	,	56240	,	-23849	,	-21587	,	1.0068955	,	3
19,31	,	56272	,	-23853	,	-21587	,	0.119942665	,	0
19,31	,	56288	,	-23859	,	-21604	,	-0.20522916	,	0
19,31	,	56304	,	-23868	,	-21585	,	-0.42542422	,	0
19,31	,	56336	,	-23873	,	-21591	,	-0.9416134	,	0
19,31	,	56352	,	-23878	,	-21605	,	-1.9927179	,	0
19,31	,	56384	,	-23888	,	-21601	,	-3.626191	,	0
19,31	,	56400	,	-23894	,	-21607	,	-5.7830405	,	0
19,31	,	56416	,	-23894	,	-21608	,	-8.302067	,	0
19,31	,	56448	,	-23903	,	-21608	,	-10.899491	,	0
19,31	,	56464	,	-23913	,	-21611	,	-13.329693	,	0
19,31	,	56480	,	-23916	,	-21614	,	-15.496134	,	0
19,31	,	56512	,	-23902	,	-21610	,	-17.251606	,	0
19,31	,	56528	,	-23887	,	-21609	,	-18.152824	,	0
19,31	,	56560	,	-23868	,	-21585	,	-17.539288	,	0
19,31	,	56576	,	-23837	,	-21579	,	-14.786454	,	0
19,31	,	56592	,	-23814	,	-21573	,	-9.4667635	,	2
19,31	,	56624	,	-23822	,	-21575	,	-1.6732836	,	7
19,31	,	56640	,	-23814	,	-21578	,	7.647073	,	14
19,31	,	56656	,	-23807	,	-21567	,	17.04995	,	23
19,31	,	56688	,	-23809	,	-21568	,	25.251972	,	32
19,31	,	56704	,	-23811	,	-21565	,	31.322956	,	40
19,31	,	56720	,	-23811	,	-21572	,	34.68491	,	46
19,31	,	56752	,	-23806	,	-21570	,	35.231873	,	49
19,31	,	56768	,	-23802	,	-21570	,	33.3671	,	49
19,31	,	56800	,	-23805	,	-21554	,	29.794096	,	47
19,31	,	56816	,	-23802	,	-21556	,	25.224108	,	42
19,31	,	56832	,	-23802	,	-21561	,	20.267227	,	35
19,32	,	56864	,	-23806	,	-21551	,	15.41444	,	26
19,32	,	56880	,	-23813	,	-21563	,	10.951519	,	17
19,32	,	56896	,	-23801	,	-21561	,	7.0071325	,	9
19,32	,	56928	,	-23812	,	-21551	,	3.7069821	,	3
19,32	,	56944	,	-23820	,	-21561	,	1.0711489	,	0
19,32	,	56976	,	-23813	,	-21561	,	-1.052711	,	0
19,32	,	56992	,	-23818	,	-21566	,	-2.757591	,	0
19,32	,	57008	,	-23831	,	-21575	,	-4.093555	,	0
19,32	,	57040	,	-23821	,	-21549	,	-5.2037597	,	0
19,32	,	57056	,	-23836	,	-21575	,	-6.187739	,	0
19,32	,	57072	,	-23850	,	-21577	,	-7.159159	,	0
19,32	,	57104	,	-23856	,	-21580	,	-8.3839	,	0
19,32	,	57120	,	-23855	,	-21581	,	-10.023183	,	0
19,32	,	57136	,	-23855	,	-21588	,	-11.896517	,	0
19,32	,	57168	,	-23858	,	-21590	,	-13.62001	,	0
19,32	,	57184	,	-23832	,	-21583	,	-14.731098	,	0
19,32	,	57216	,	-23814	,	-21570	,	-14.589794	,	0
19,32	,	57232	,	-23793	,	-21552	,	-12.493045	,	0
19,32	,	57248	,	-23769	,	-21558	,	-8.013258	,	2
19,32	,	57280	,	-23771	,	-21528	,	-1.2497478	,	6
19,32	,	57296	,	-23735	,	-21535	,	7.1647353	,	12
19,32	,	57312	,	-23725	,	-21532	,	16.440619	,	20
19,32	,	57344	,	-23735	,	-21535	,	25.732336	,	29
19,32	,	57360	,	-23718	,	-21534	,	33.955467	,	38
19,32	,	57392	,	-23737	,	-21533	,	40.056763	,	46
19,32	,	57408	,	-23716	,	-21536	,	43.373886	,	52
19,32	,	57424	,	-23727	,	-21530	,	43.78132	,	55
19,32	,	57456	,	-23732	,	-21540	,	41.561134	,	53
19,32	,	57472	,	-23726	,	-21534	,	37.16098	,	49
19,32	,	57488	,	-23719	,	-21548	,	31.273834	,	43
19,32	,	57520	,	-23721	,	-21520	,	24.81558	,	35
19,32	,	57536	,	-23725	,	-21534	,	18.56346	,	26
19,32	,	57568	,	-23726	,	-21537	,	12.953387	,	17
19,32	,	57584	,	-23731	,	-21538	,	8.162694	,	9
19,32	,	57600	,	-23745	,	-21543	,	4.155715	,	3
19,32	,	57632	,	-23745	,	-21543	,	0.7076893	,	0
19,32	,	57648	,	-23743	,	-21544	,	-2.3516362	,	0
19,32	,	57664	,	-23749	,	-21545	,	-4.975281	,	0
19,32	,	57696	,	-23755	,	-21549	,	-7.081854	,	0
19,32	,	57712	,	-23756	,	-21550	,	-8.703267	,	0
19,32	,	57728	,	-23763	,	-21569	,	-9.918674	,	0
19,32	,	57760	,	-23766	,	-21547	,	-10.816023	,	0
19,32	,	57776	,	-23788	,	-21571	,	-11.574612	,	0
19,32	,	57808	,	-23797	,	-21574	,	-12.532086	,	0
19,32	,	57824	,	-23794	,	-21571	,	-13.955044	,	0
19,33	,	57840	,	-23801	,	-21570	,	-15.735676	,	0
19,33	,	57872	,	-23780	,	-21568	,	-17.404478	,	0
19,33	,	57888	,	-23762	,	-21553	,	-18.211222	,	0
19,33	,	57904	,	-23741	,	-21546	,	-17.275763	,	0
19,33	,	57936	,	-23736	,	-21535	,	-14.01522	,	0
19,33	,	57952	,	-23724	,	-21524	,	-8.498712	,	3
19,33	,	57983	,	-23689	,	-21541	,	-1.2399588	,	8
19,33	,	57999	,	-23688	,	-21517	,	7.2158785	,	15
19,33	,	58016	,	-23703	,	-21518	,	16.075666	,	23
19,33	,	58048	,	-23685	,	-21514	,	24.116512	,	31
19,33	,	58064	,	-23680	,	-21516	,	30.321058	,	39
19,33	,	58080	,	-23677	,	-21523	,	34.302204	,	45
19,33	,	58112	,	-23692	,	-21511	,	35.984848	,	48
19,33	,	58128	,	-23688	,	-21510	,	35.33607	,	49
19,33	,	58159	,	-23683	,	-21516	,	32.54213	,	46
19,33	,	58175	,	-23684	,	-21528	,	28.172678	,	41
19,33	,	58192	,	-23669	,	-21519	,	23.035522	,	34
19,33	,	58224	,	-23689	,	-21510	,	17.889515	,	26
19,33	,	58240	,	-23699	,	-21525	,	13.07707	,	18
19,33	,	58256	,	-23697	,	-21530	,	8.519706	,	10
19,33	,	58287	,	-23705	,	-21527	,	4.149581	,	4
19,33	,	58303	,	-23705	,	-21529	,	0.06715202	,	1
19,33	,	58319	,	-23714	,	-21533	,	-3.586747	,	0
19,33	,	58351	,	-23719	,	-21534	,	-6.732435	,	0
19,33	,	58367	,	-23721	,	-21525	,	-9.366342	,	0
19,33	,	58400	,	-23726	,	-21530	,	-11.483929	,	0
19,33	,	58416	,	-23731	,	-21530	,	-13.076645	,	0
19,33	,	58432	,	-23738	,	-21551	,	-14.198344	,	0
19,33	,	58463	,	-23742	,	-21535	,	-14.959398	,	0
19,33	,	58479	,	-23766	,	-21555	,	-15.557861	,	0
19,33	,	58495	,	-23760	,	-21557	,	-16.278439	,	0
19,33	,	58527	,	-23771	,	-21560	,	-17.257675	,	0
19,33	,	58543	,	-23779	,	-21565	,	-18.409592	,	0
19,33	,	58576	,	-23796	,	-21566	,	-19.671234	,	0
19,33	,	58592	,	-23806	,	-21576	,	-21.117205	,	0
19,33	,	58608	,	-23798	,	-21576	,	-22.746075	,	0
19,33	,	58639	,	-23793	,	-21572	,	-24.19542	,	0
19,33	,	58655	,	-23782	,	-21572	,	-24.814793	,	0
19,33	,	58671	,	-23743	,	-21567	,	-23.856516	,	0
19,33	,	58703	,	-23736	,	-21535	,	-20.576057	,	0
19,33	,	58719	,	-23704	,	-21543	,	-14.566168	,	3
19,33	,	58735	,	-23714	,	-21537	,	-6.098654	,	9
19,33	,	58768	,	-23711	,	-21531	,	3.7768688	,	17
19,33	,	58784	,	-23693	,	-21531	,	13.607271	,	26
19,33	,	58815	,	-23679	,	-21527	,	22.298128	,	35
19,33	,	58832	,	-23687	,	-21537	,	29.292213	,	43
19,34	,	58847	,	-23704	,	-21536	,	34.086956	,	49
19,34	,	58879	,	-23703	,	-21534	,	36.09883	,	53
19,34	,	58895	,	-23695	,	-21536	,	35.135986	,	55
19,34	,	58911	,	-23685	,	-21551	,	31.74271	,	52
19,34	,	58944	,	-23690	,	-21518	,	26.921707	,	46
19,34	,	58960	,	-23694	,	-21538	,	21.578318	,	38
19,34	,	58991	,	-23707	,	-21538	,	16.2095	,	29
19,34	,	59007	,	-23707	,	-21545	,	10.975169	,	20
19,34	,	59023	,	-23718	,	-21541	,	5.9337893	,	12
19,34	,	59055	,	-23710	,	-21556	,	1.2123413	,	6
19,34	,	59071	,	-23734	,	-21552	,	-3.0228467	,	2
19,34	,	59087	,	-23712	,	-21547	,	-6.64847	,	0
19,34	,	59119	,	-23719	,	-21550	,	-9.449954	,	0
19,34	,	59135	,	-23731	,	-21560	,	-11.212666	,	0
19,34	,	59151	,	-23734	,	-21581	,	-12.0648985	,	0
19,34	,	59183	,	-23755	,	-21551	,	-12.442314	,	0
19,34	,	59199	,	-23747	,	-21569	,	-12.805853	,	0
19,34	,	59231	,	-23770	,	-21572	,	-13.44166	,	0
19,34	,	59247	,	-23773	,	-21578	,	-14.487114	,	0
19,34	,	59263	,	-23772	,	-21576	,	-15.939804	,	0
19,34	,	59295	,	-23783	,	-21577	,	-17.561213	,	0
19,34	,	59311	,	-23787	,	-21582	,	-19.061527	,	0
19,34	,	59327	,	-23796	,	-21579	,	-20.298237	,	0
19,34	,	59359	,	-23812	,	-21592	,	-21.291409	,	0
19,34	,	59375	,	-23814	,	-21584	,	-22.180187	,	0
19,34	,	59407	,	-23823	,	-21611	,	-23.053074	,	0
19,34	,	59423	,	-23824	,	-21596	,	-23.845009	,	0
19,34	,	59439	,	-23832	,	-21603	,	-24.409718	,	0
19,34	,	59471	,	-23826	,	-21600	,	-24.578682	,	0
19,34	,	59487	,	-23798	,	-21589	,	-24.01728	,	0
19,34	,	59503	,	-23782	,	-21586	,	-22.082752	,	0
19,34	,	59535	,	-23767	,	-21576	,	-18.141445	,	1
19,34	,	59551	,	-23761	,	-21570	,	-12.073514	,	4
19,34	,	59567	,	-23754	,	-21582	,	-4.3982325	,	10
19,34	,	59599	,	-23758	,	-21568	,	3.9214182	,	17
19,34	,	59615	,	-23736	,	-21565	,	11.845311	,	25
19,34	,	59647	,	-23741	,	-21583	,	18.632162	,	32
19,34	,	59663	,	-23751	,	-21563	,	23.771221	,	38
19,34	,	59679	,	-23754	,	-21575	,	26.753653	,	43
19,34	,	59711	,	-23760	,	-21583	,	27.258259	,	45
19,34	,	59727	,	-23756	,	-21568	,	25.399553	,	44
19,34	,	59743	,	-23747	,	-21571	,	21.756462	,	41
19,34	,	59775	,	-23760	,	-21577	,	17.15948	,	35
19,34	,	59791	,	-23757	,	-21573	,	12.301601	,	28
19,34	,	59823	,	-23753	,	-21570	,	7.6630754	,	20
19,35	,	59839	,	-23757	,	-21576	,	3.6430368	,	13
19,35	,	59855	,	-23777	,	-21578	,	0.39301062	,	7
19,35	,	59887	,	-23776	,	-21587	,	-2.3121982	,	2
19,35	,	59903	,	-23782	,	-21569	,	-4.7690263	,	0
19,35	,	59919	,	-23807	,	-21585	,	-7.173894	,	0
19,35	,	59951	,	-23804	,	-21592	,	-9.750562	,	0
19,35	,	59967	,	-23794	,	-21586	,	-12.498245	,	0
19,35	,	59999	,	-23823	,	-21596	,	-15.068449	,	0
19,35	,	60015	,	-23825	,	-21591	,	-17.274485	,	0
19,35	,	60031	,	-23835	,	-21593	,	-19.224722	,	0
19,35	,	60063	,	-23837	,	-21600	,	-20.971197	,	0
19,35	,	60079	,	-23826	,	-21603	,	-22.331432	,	0
19,35	,	60096	,	-23853	,	-21609	,	-23.029083	,	0
19,35	,	60127	,	-23853	,	-21612	,	-23.070023	,	0
19,35	,	60143	,	-23862	,	-21614	,	-22.744884	,	0
19,35	,	60159	,	-23870	,	-21620	,	-22.311893	,	0
19,35	,	60191	,	-23874	,	-21621	,	-21.927467	,	0
19,35	,	60207	,	-23882	,	-21621	,	-21.661314	,	0
19,35	,	60239	,	-23886	,	-21627	,	-21.496675	,	0
19,35	,	60255	,	-23897	,	-21638	,	-21.394667	,	0
19,35	,	60271	,	-23896	,	-21633	,	-21.324669	,	0
19,35	,	60302	,	-23883	,	-21629	,	-21.13034	,	0
19,35	,	60319	,	-23859	,	-21620	,	-20.319553	,	0
19,35	,	60335	,	-23853	,	-21624	,	-18.188637	,	0
19,35	,	60367	,	-23840	,	-21611	,	-14.3019285	,	2
19,35	,	60383	,	-23824	,	-21604	,	-8.713492	,	5
19,35	,	60414	,	-23822	,	-21609	,	-1.8345594	,	10
19,35	,	60431	,	-23825	,	-21607	,	5.5957417	,	16
19,35	,	60447	,	-23828	,	-21606	,	12.558769	,	23
19,35	,	60478	,	-23832	,	-21617	,	18.048603	,	29
19,35	,	60495	,	-23839	,	-21606	,	21.354923	,	34
19,35	,	60511	,	-23848	,	-21620	,	22.155014	,	37
19,35	,	60543	,	-23837	,	-21622	,	20.561867	,	37
19,35	,	60559	,	-23846	,	-21615	,	17.138798	,	35
19,35	,	60575	,	-23845	,	-21624	,	12.661735	,	32
19,35	,	60607	,	-23844	,	-21611	,	7.8546057	,	27
19,35	,	60622	,	-23855	,	-21619	,	3.2836752	,	21
19,35	,	60655	,	-23864	,	-21614	,	-0.7787423	,	14
19,35	,	60670	,	-23859	,	-21617	,	-4.299283	,	8
19,35	,	60687	,	-23866	,	-21619	,	-7.226689	,	3
19,35	,	60719	,	-23885	,	-21634	,	-9.557098	,	0
19,35	,	60735	,	-23884	,	-21624	,	-11.502525	,	0
19,35	,	60751	,	-23885	,	-21630	,	-13.243502	,	0
19,35	,	60783	,	-23893	,	-21633	,	-14.726255	,	0
19,35	,	60798	,	-23888	,	-21634	,	-15.810295	,	0
19,35	,	60830	,	-23904	,	-21647	,	-16.417885	,	0
19,36	,	60846	,	-23899	,	-21638	,	-16.594183	,	0
19,36	,	60863	,	-23906	,	-21642	,	-16.43116	,	0
19,36	,	60895	,	-23928	,	-21650	,	-16.078426	,	0
19,36	,	60911	,	-23943	,	-21658	,	-15.939431	,	0
19,36	,	60927	,	-23950	,	-21653	,	-16.513073	,	0
19,36	,	60959	,	-23956	,	-21656	,	-17.978575	,	0
19,36	,	60975	,	-23961	,	-21662	,	-20.098665	,	0
19,36	,	60991	,	-23957	,	-21660	,	-22.372507	,	0
19,36	,	61022	,	-23967	,	-21664	,	-24.232248	,	0
19,36	,	61039	,	-23978	,	-21671	,	-25.334911	,	0
19,36	,	61070	,	-23957	,	-21672	,	-25.584505	,	0
19,36	,	61086	,	-23947	,	-21648	,	-24.751316	,	0
19,36	,	61102	,	-23930	,	-21649	,	-22.40135	,	0
19,36	,	61135	,	-23935	,	-21650	,	-18.307392	,	2
19,36	,	61151	,	-23915	,	-21644	,	-12.698574	,	6
19,36	,	61166	,	-23930	,	-21647	,	-6.163912	,	11
19,36	,	61198	,	-23936	,	-21647	,	0.4000063	,	17
19,36	,	61214	,	-23932	,	-21641	,	5.9713063	,	23
19,36	,	61246	,	-23933	,	-21649	,	9.870905	,	28
19,36	,	61262	,	-23931	,	-21646	,	11.938442	,	31
19,36	,	61278	,	-23925	,	-21650	,	12.393594	,	33
19,36	,	61310	,	-23936	,	-21658	,	11.64539	,	33
19,36	,	61326	,	-23928	,	-21627	,	10.083353	,	31
19,36	,	61342	,	-23932	,	-21646	,	8.053009	,	27
19,36	,	61374	,	-23938	,	-21639	,	5.8533106	,	22
19,36	,	61390	,	-23938	,	-21642	,	3.6481628	,	16
19,36	,	61422	,	-23935	,	-21650	,	1.5513995	,	10
19,36	,	61439	,	-23946	,	-21648	,	-0.31452417	,	5
19,36	,	61454	,	-23944	,	-21651	,	-1.9246541	,	2
19,36	,	61486	,	-23963	,	-21652	,	-3.3909135	,	0
19,36	,	61502	,	-23964	,	-21660	,	-4.931523	,	0
19,36	,	61518	,	-23972	,	-21669	,	-6.733935	,	0
19,36	,	61550	,	-23978	,	-21675	,	-8.813765	,	0
19,36	,	61566	,	-23988	,	-21655	,	-11.0826	,	0
19,36	,	61582	,	-24006	,	-21675	,	-13.498361	,	0
19,36	,	61614	,	-24007	,	-21678	,	-16.08007	,	0
19,36	,	61630	,	-24009	,	-21677	,	-18.713326	,	0
19,36	,	61662	,	-24009	,	-21682	,	-21.039902	,	0
19,36	,	61678	,	-24020	,	-21678	,	-22.677692	,	0
19,36	,	61694	,	-24026	,	-21685	,	-23.49514	,	0
19,36	,	61726	,	-24030	,	-21688	,	-23.609097	,	0
19,36	,	61743	,	-24037	,	-21691	,	-23.206524	,	0
19,36	,	61758	,	-24035	,	-21695	,	-22.430649	,	0
19,36	,	61790	,	-24043	,	-21715	,	-21.359604	,	0
19,36	,	61806	,	-24027	,	-21673	,	-19.989765	,	1
19,36	,	61838	,	-24001	,	-21679	,	-18.052437	,	2
19,37	,	61854	,	-23974	,	-21678	,	-14.891764	,	3
19,37	,	61870	,	-23970	,	-21672	,	-9.878264	,	6
19,37	,	61902	,	-23958	,	-21674	,	-3.0023441	,	11
19,37	,	61918	,	-23962	,	-21655	,	5.024496	,	17
19,37	,	61934	,	-23950	,	-21669	,	13.118145	,	25
19,37	,	61966	,	-23946	,	-21667	,	20.279613	,	33
19,37	,	61982	,	-23964	,	-21666	,	25.759218	,	40
19,37	,	61998	,	-23964	,	-21673	,	28.924328	,	44
19,37	,	62030	,	-23965	,	-21683	,	29.413082	,	46
19,37	,	62046	,	-23974	,	-21659	,	27.361328	,	45
19,37	,	62078	,	-23975	,	-21669	,	23.24935	,	42
19,37	,	62094	,	-23960	,	-21671	,	17.811066	,	37
19,37	,	62110	,	-23963	,	-21673	,	12.035532	,	31
19,37	,	62142	,	-23963	,	-21663	,	6.828264	,	23
19,37	,	62158	,	-23967	,	-21662	,	2.671091	,	15
19,37	,	62174	,	-23979	,	-21663	,	-0.394701	,	8
19,37	,	62206	,	-23973	,	-21677	,	-2.601245	,	3
19,37	,	62222	,	-23984	,	-21650	,	-4.2097354	,	0
19,37	,	62254	,	-23977	,	-21682	,	-5.3891373	,	0
19,37	,	62270	,	-24005	,	-21689	,	-6.318382	,	0
19,37	,	62286	,	-24002	,	-21678	,	-7.3102293	,	0
19,37	,	62318	,	-24005	,	-21692	,	-8.614274	,	0
19,37	,	62334	,	-24004	,	-21690	,	-10.142188	,	0
19,37	,	62350	,	-24023	,	-21684	,	-11.659006	,	0
19,37	,	62382	,	-24024	,	-21687	,	-13.103655	,	0
19,37	,	62398	,	-24035	,	-21689	,	-14.543841	,	0
19,37	,	62414	,	-24043	,	-21702	,	-16.024652	,	0
19,37	,	62446	,	-24033	,	-21710	,	-17.474207	,	0
19,37	,	62462	,	-24039	,	-21705	,	-18.609491	,	0
19,37	,	62494	,	-24046	,	-21702	,	-19.130463	,	0
19,37	,	62510	,	-24050	,	-21704	,	-19.001213	,	0
19,37	,	62526	,	-24067	,	-21702	,	-18.451508	,	0
19,37	,	62558	,	-24054	,	-21708	,	-17.780302	,	0
19,37	,	62574	,	-24033	,	-21699	,	-16.9455	,	0
19,37	,	62590	,	-24020	,	-21692	,	-15.397687	,	0
19,37	,	62622	,	-24008	,	-21678	,	-12.522578	,	1
19,37	,	62638	,	-23999	,	-21685	,	-8.094233	,	3
19,37	,	62670	,	-24003	,	-21681	,	-2.4075127	,	7
19,37	,	62686	,	-23992	,	-21679	,	3.8235426	,	12
19,37	,	62702	,	-23981	,	-21678	,	9.848778	,	18
19,37	,	62734	,	-23989	,	-21675	,	15.128825	,	24
19,37	,	62750	,	-23977	,	-21669	,	19.24514	,	29
19,37	,	62766	,	-23986	,	-21661	,	21.902102	,	33
19,37	,	62798	,	-23978	,	-21668	,	22.994284	,	35
19,37	,	62814	,	-23976	,	-21666	,	22.631989	,	35
19,37	,	62830	,	-23972	,	-21662	,	21.14703	,	33
19,38	,	62862	,	-23969	,	-21666	,	18.972832	,	29
19,38	,	62878	,	-23976	,	-21664	,	16.475883	,	24
19,38	,	62910	,	-23974	,	-21661	,	13.852255	,	18
19,38	,	62926	,	-23971	,	-21668	,	11.211493	,	12
19,38	,	62942	,	-23974	,	-21663	,	8.698334	,	7
19,38	,	62973	,	-23986	,	-21668	,	6.3812656	,	3
19,38	,	62990	,	-23983	,	-21667	,	4.1689744	,	1
19,38	,	63006	,	-23989	,	-21677	,	1.9739833	,	0
19,38	,	63038	,	-23998	,	-21675	,	-0.21738029	,	0
19,38	,	63054	,	-23999	,	-21683	,	-2.4287007	,	0
19,38	,	63086	,	-24002	,	-21683	,	-4.6406956	,	0
19,38	,	63102	,	-24016	,	-21684	,	-6.7845583	,	0
19,38	,	63118	,	-24018	,	-21682	,	-8.863477	,	0
19,38	,	63150	,	-24028	,	-21689	,	-10.916649	,	0
19,38	,	63166	,	-24032	,	-21687	,	-12.927449	,	0
19,38	,	63182	,	-24026	,	-21691	,	-14.766317	,	0
19,38	,	63214	,	-24030	,	-21695	,	-16.152782	,	0
19,38	,	63230	,	-24044	,	-21689	,	-16.87974	,	0
19,38	,	63262	,	-24053	,	-21696	,	-17.084122	,	0
19,38	,	63278	,	-24046	,	-21703	,	-17.059053	,	0
19,38	,	63294	,	-24048	,	-21704	,	-16.874805	,	0
19,38	,	63325	,	-24071	,	-21707	,	-16.49587	,	0
19,38	,	63341	,	-24049	,	-21700	,	-16.020401	,	0
19,38	,	63357	,	-24042	,	-21697	,	-15.36273	,	0
19,38	,	63390	,	-24031	,	-21696	,	-14.083364	,	0
19,38	,	63406	,	-24012	,	-21687	,	-11.7162285	,	1
19,38	,	63422	,	-24001	,	-21682	,	-7.971232	,	3
19,38	,	63454	,	-23983	,	-21685	,	-2.797523	,	6
19,38	,	63470	,	-23996	,	-21669	,	3.4648547	,	11
19,38	,	63501	,	-23982	,	-21670	,	10.03221	,	17
19,38	,	63517	,	-23984	,	-21669	,	15.999424	,	23
19,38	,	63533	,	-23993	,	-21662	,	20.636816	,	28
19,38	,	63565	,	-23992	,	-21663	,	23.385193	,	32
19,38	,	63582	,	-23984	,	-21670	,	24.023148	,	34
19,38	,	63598	,	-23975	,	-21665	,	22.87905	,	33
19,38	,	63630	,	-23979	,	-21666	,	20.618778	,	31
19,38	,	63646	,	-23976	,	-21663	,	17.836687	,	28
19,38	,	63677	,	-23969	,	-21657	,	14.949264	,	23
19,38	,	63693	,	-23972	,	-21674	,	12.289254	,	17
19,38	,	63709	,	-23982	,	-21653	,	10.000786	,	11
19,38	,	63741	,	-23977	,	-21663	,	7.9762616	,	6
19,38	,	63757	,	-23992	,	-21670	,	6.022363	,	2
19,38	,	63774	,	-23985	,	-21663	,	3.9861808	,	0
19,38	,	63806	,	-23982	,	-21669	,	1.8838096	,	0
19,38	,	63822	,	-23999	,	-21667	,	-0.12919593	,	0
19,38	,	63838	,	-23991	,	-21666	,	-1.9902985	,	0
19,39	,	63869	,	-23995	,	-21674	,	-3.6697628	,	0
19,39	,	63885	,	-24009	,	-21666	,	-5.113975	,	0
19,39	,	63917	,	-24004	,	-21669	,	-6.3846407	,	0
19,39	,	63933	,	-24013	,	-21693	,	-7.5559435	,	0
19,39	,	63949	,	-24015	,	-21669	,	-8.626819	,	0
19,39	,	63981	,	-24028	,	-21681	,	-9.636072	,	0
19,39	,	63997	,	-24035	,	-21679	,	-10.713128	,	0
19,39	,	64013	,	-24045	,	-21687	,	-12.01325	,	0
19,39	,	64045	,	-24038	,	-21680	,	-13.547949	,	0
19,39	,	64061	,	-24052	,	-21685	,	-15.108023	,	0
19,39	,	64093	,	-24062	,	-21691	,	-16.508047	,	0
19,39	,	64109	,	-24066	,	-21695	,	-17.76013	,	0
19,39	,	64125	,	-24057	,	-21682	,	-18.829819	,	0
19,39	,	64157	,	-24038	,	-21685	,	-19.3447	,	0
19,39	,	64173	,	-24021	,	-21693	,	-18.628685	,	0
19,39	,	64189	,	-24002	,	-21651	,	-16.017475	,	0
19,39	,	64221	,	-23986	,	-21655	,	-11.1823225	,	2
19,39	,	64237	,	-23974	,	-21650	,	-4.281663	,	6
19,39	,	64253	,	-23976	,	-21649	,	4.004378	,	12
19,39	,	64285	,	-23965	,	-21644	,	12.61188	,	20
19,39	,	64301	,	-23974	,	-21644	,	20.4091	,	28
19,39	,	64333	,	-23977	,	-21637	,	26.400455	,	35
19,39	,	64349	,	-23968	,	-21635	,	29.907963	,	40
19,39	,	64365	,	-23973	,	-21634	,	30.798832	,	43
19,39	,	64397	,	-23969	,	-21640	,	29.400738	,	43
19,39	,	64413	,	-23964	,	-21647	,	26.294924	,	41
19,39	,	64429	,	-23963	,	-21622	,	22.212347	,	37
19,39	,	64461	,	-23968	,	-21637	,	17.821562	,	31
19,39	,	64477	,	-23968	,	-21638	,	13.543741	,	23
19,39	,	64509	,	-23970	,	-21633	,	9.603823	,	15
19,39	,	64525	,	-23978	,	-21630	,	6.1096697	,	8
19,39	,	64541	,	-23974	,	-21636	,	3.0691462	,	3
19,39	,	64573	,	-23965	,	-21644	,	0.5438318	,	0
19,39	,	64589	,	-23975	,	-21637	,	-1.2967138	,	0
19,39	,	64605	,	-23986	,	-21645	,	-2.4695406	,	0
19,39	,	64637	,	-23981	,	-21645	,	-3.2722883	,	0
19,39	,	64653	,	-23987	,	-21664	,	-3.9668255	,	0
19,39	,	64669	,	-23990	,	-21639	,	-4.645393	,	0
19,39	,	64701	,	-23999	,	-21656	,	-5.371078	,	0
19,39	,	64717	,	-23997	,	-21652	,	-6.2135577	,	0
19,39	,	64749	,	-24003	,	-21653	,	-7.166802	,	0
19,39	,	64765	,	-24011	,	-21658	,	-8.176904	,	0
19,39	,	64781	,	-24005	,	-21657	,	-9.188488	,	0
19,39	,	64813	,	-24019	,	-21661	,	-10.108817	,	0
19,39	,	64829	,	-24013	,	-21660	,	-10.856632	,	0
19,40	,	64845	,	-24022	,	-21667	,	-11.391649	,	0
19,40	,	64877	,	-24012	,	-21660	,	-11.65102	,	0
19,40	,	64893	,	-23995	,	-21664	,	-11.424928	,	0
19,40	,	64925	,	-23985	,	-21630	,	-10.291786	,	0
19,40	,	64941	,	-23949	,	-21641	,	-7.7444763	,	1
19,40	,	64957	,	-23948	,	-21638	,	-3.3965468	,	3
19,40	,	64989	,	-23939	,	-21633	,	2.667385	,	7
19,40	,	65005	,	-23944	,	-21635	,	9.69214	,	13
19,40	,	65021	,	-23943	,	-21628	,	16.535385	,	20
19,40	,	65053	,	-23931	,	-21635	,	22.17283	,	26
19,40	,	65069	,	-23931	,	-21626	,	26.065165	,	31
19,40	,	65085	,	-23928	,	-21628	,	28.107084	,	34
19,40	,	65117	,	-23929	,	-21627	,	28.390831	,	36
19,40	,	65133	,	-23936	,	-21641	,	27.093544	,	35
19,40	,	65165	,	-23930	,	-21627	,	24.460876	,	33
19,40	,	65181	,	-23923	,	-21622	,	20.905643	,	29
19,40	,	65197	,	-23927	,	-21618	,	16.993515	,	23
19,40	,	65229	,	-23932	,	-21612	,	13.173759	,	16
19,40	,	65245	,	-23936	,	-21618	,	9.623278	,	10
19,40	,	65261	,	-23943	,	-21620	,	6.334507	,	5
19,40	,	65293	,	-23932	,	-21630	,	3.2962213	,	2
19,40	,	65309	,	-23939	,	-21622	,	0.63988066	,	0
19,40	,	65341	,	-23942	,	-21624	,	-1.4791379	,	0
19,40	,	65357	,	-23948	,	-21638	,	-3.085074	,	0
19,40	,	65373	,	-23945	,	-21643	,	-4.311311	,	0
19,40	,	65405	,	-23948	,	-21636	,	-5.2327366	,	0
19,40	,	65421	,	-23967	,	-21638	,	-5.9479346	,	0
19,40	,	65437	,	-23965	,	-21643	,	-6.7127542	,	0
19,40	,	65469	,	-23975	,	-21644	,	-7.7570066	,	0
19,40	,	65485	,	-23972	,	-21647	,	-9.079477	,	0
19,40	,	65516	,	-23975	,	-21638	,	-10.478807	,	0
19,40	,	65533	,	-23985	,	-21643	,	-11.722575	,	0
19,40	,	65549	,	-23990	,	-21634	,	-12.739605	,	0
19,40	,	65580	,	-23995	,	-21643	,	-13.59888	,	0
19,40	,	65597	,	-24005	,	-21661	,	-14.38128	,	0
19,40	,	65613	,	-23997	,	-21648	,	-15.098803	,	0
19,40	,	65645	,	-23972	,	-21649	,	-15.473693	,	0
19,40	,	65661	,	-23932	,	-21624	,	-14.707374	,	0
19,40	,	65677	,	-23912	,	-21614	,	-11.716235	,	0
19,40	,	65709	,	-23903	,	-21603	,	-5.8775983	,	2
19,40	,	65725	,	-23904	,	-21600	,	2.3943496	,	7
19,40	,	65756	,	-23893	,	-21602	,	11.833626	,	15
19,40	,	65773	,	-23883	,	-21596	,	21.025425	,	24
19,40	,	65789	,	-23884	,	-21584	,	28.8824	,	33
19,40	,	65821	,	-23879	,	-21587	,	34.665718	,	40
19,40	,	65837	,	-23867	,	-21587	,	38.021385	,	45
19,41	,	65853	,	-23874	,	-21577	,	39.02118	,	48
19,41	,	65885	,	-23878	,	-21586	,	37.903847	,	48
19,41	,	65901	,	-23877	,	-21582	,	34.909763	,	46
19,41	,	65932	,	-23870	,	-21584	,	30.445852	,	41
19,41	,	65949	,	-23876	,	-21578	,	25.131876	,	33
19,41	,	65965	,	-23869	,	-21586	,	19.599081	,	24
19,41	,	65996	,	-23878	,	-21586	,	14.344955	,	15
19,41	,	66013	,	-23882	,	-21583	,	9.651418	,	8
19,41	,	66029	,	-23867	,	-21588	,	5.6523237	,	3
19,41	,	66061	,	-23879	,	-21595	,	2.507886	,	0
19,41	,	66077	,	-23882	,	-21596	,	0.2632122	,	0
19,41	,	66093	,	-23889	,	-21584	,	-1.3134139	,	0
19,41	,	66125	,	-23892	,	-21600	,	-2.5534756	,	0
19,41	,	66141	,	-23901	,	-21592	,	-3.7213333	,	0
19,41	,	66173	,	-23905	,	-21602	,	-5.0001187	,	0
19,41	,	66189	,	-23905	,	-21603	,	-6.44971	,	0
19,41	,	66205	,	-23900	,	-21609	,	-7.9168835	,	0
19,41	,	66237	,	-23909	,	-21584	,	-9.118663	,	0
19,41	,	66253	,	-23925	,	-21607	,	-9.963087	,	0
19,41	,	66269	,	-23920	,	-21610	,	-10.643699	,	0
19,41	,	66300	,	-23926	,	-21608	,	-11.321888	,	0
19,41	,	66316	,	-23943	,	-21620	,	-12.0392	,	0
19,41	,	66349	,	-23950	,	-21612	,	-12.932884	,	0
19,41	,	66365	,	-23943	,	-21633	,	-14.10597	,	0
19,41	,	66380	,	-23916	,	-21612	,	-15.210883	,	0
19,41	,	66413	,	-23889	,	-21600	,	-15.320348	,	0
19,41	,	66429	,	-23874	,	-21609	,	-13.364445	,	0
19,41	,	66445	,	-23852	,	-21593	,	-8.758232	,	1
19,41	,	66476	,	-23842	,	-21588	,	-1.636807	,	5
19,41	,	66492	,	-23842	,	-21587	,	7.2028093	,	12
19,41	,	66508	,	-23835	,	-21583	,	16.484648	,	20
19,41	,	66540	,	-23832	,	-21577	,	24.878073	,	29
19,41	,	66556	,	-23825	,	-21589	,	31.40519	,	37
19,41	,	66588	,	-23821	,	-21561	,	35.581722	,	43
19,41	,	66604	,	-23841	,	-21574	,	37.25406	,	47
19,41	,	66620	,	-23844	,	-21575	,	36.332767	,	48
19,41	,	66652	,	-23835	,	-21576	,	32.94015	,	47
19,41	,	66668	,	-23849	,	-21576	,	27.644432	,	43
19,41	,	66685	,	-23836	,	-21572	,	21.256384	,	36
19,41	,	66716	,	-23840	,	-21577	,	14.63358	,	28
19,41	,	66732	,	-23832	,	-21578	,	8.590491	,	19
19,41	,	66764	,	-23842	,	-21582	,	3.6863098	,	11
19,41	,	66780	,	-23831	,	-21584	,	0.13563204	,	5
19,41	,	66796	,	-23841	,	-21591	,	-2.089222	,	1
19,41	,	66828	,	-23853	,	-21572	,	-3.2611833	,	0
19,42	,	66844	,	-23851	,	-21591	,	-3.8814623	,	0
19,42	,	66860	,	-23866	,	-21598	,	-4.433018	,	0
19,42	,	66892	,	-23874	,	-21591	,	-5.2768455	,	0
19,42	,	66908	,	-23867	,	-21582	,	-6.596665	,	0
19,42	,	66924	,	-23870	,	-21595	,	-8.2238865	,	0
19,42	,	66956	,	-23888	,	-21596	,	-9.85323	,	0
19,42	,	66972	,	-23896	,	-21593	,	-11.445838	,	0
19,42	,	67004	,	-23903	,	-21603	,	-13.158411	,	0
19,42	,	67021	,	-23897	,	-21601	,	-14.987236	,	0
19,42	,	67036	,	-23916	,	-21616	,	-16.716732	,	0
19,42	,	67068	,	-23922	,	-21596	,	-18.21232	,	0
19,42	,	67084	,	-23936	,	-21609	,	-19.553396	,	0
19,42	,	67100	,	-23937	,	-21611	,	-20.854319	,	0
19,42	,	67132	,	-23921	,	-21615	,	-21.982645	,	0
19,42	,	67148	,	-23900	,	-21599	,	-22.35888	,	0
19,42	,	67180	,	-23887	,	-21597	,	-21.155472	,	0
19,42	,	67196	,	-23872	,	-21584	,	-17.789963	,	1
19,42	,	67212	,	-23869	,	-21585	,	-12.244486	,	4
19,42	,	67244	,	-23844	,	-21570	,	-5.0038347	,	9
19,42	,	67260	,	-23837	,	-21570	,	3.2578468	,	16
19,42	,	67276	,	-23837	,	-21577	,	11.783524	,	24
19,42	,	67308	,	-23841	,	-21548	,	19.623226	,	32
19,42	,	67324	,	-23838	,	-21566	,	25.79529	,	39
19,42	,	67340	,	-23838	,	-21570	,	29.64807	,	45
19,42	,	67372	,	-23838	,	-21570	,	31.004429	,	48
19,42	,	67388	,	-23843	,	-21572	,	30.04603	,	48
19,42	,	67420	,	-23833	,	-21567	,	27.206785	,	45
19,42	,	67436	,	-23831	,	-21571	,	23.160412	,	40
19,42	,	67452	,	-23826	,	-21567	,	18.693699	,	33
19,42	,	67484	,	-23828	,	-21567	,	14.463583	,	25
19,42	,	67500	,	-23843	,	-21572	,	10.7761135	,	17
19,42	,	67516	,	-23841	,	-21584	,	7.5550537	,	10
19,42	,	67548	,	-23842	,	-21560	,	4.636057	,	4
19,42	,	67564	,	-23854	,	-21585	,	1.9596486	,	1
19,42	,	67596	,	-23863	,	-21581	,	-0.5822327	,	0
19,42	,	67612	,	-23863	,	-21586	,	-3.148743	,	0
19,42	,	67628	,	-23874	,	-21573	,	-5.770249	,	0
19,42	,	67660	,	-23868	,	-21587	,	-8.327343	,	0
19,42	,	67676	,	-23874	,	-21592	,	-10.592646	,	0
19,42	,	67692	,	-23880	,	-21594	,	-12.345473	,	0
19,42	,	67724	,	-23888	,	-21592	,	-13.555618	,	0
19,42	,	67740	,	-23887	,	-21599	,	-14.341641	,	0
19,42	,	67772	,	-23897	,	-21621	,	-14.810722	,	0
19,42	,	67788	,	-23891	,	-21595	,	-15.013941	,	0
19,42	,	67804	,	-23905	,	-21605	,	-14.967905	,	0
19,43	,	67836	,	-23908	,	-21610	,	-14.7510605	,	0
19,43	,	67852	,	-23915	,	-21614	,	-14.534159	,	0
19,43	,	67868	,	-23925	,	-21615	,	-14.482216	,	0
19,43	,	67900	,	-23917	,	-21615	,	-14.648959	,	0
19,43	,	67916	,	-23907	,	-21618	,	-14.813303	,	0
19,43	,	67932	,	-23893	,	-21605	,	-14.450903	,	0
19,43	,	67964	,	-23888	,	-21597	,	-13.0145	,	0
19,43	,	67980	,	-23879	,	-21589	,	-10.252328	,	1
19,43	,	68012	,	-23879	,	-21604	,	-6.3138514	,	3
19,43	,	68028	,	-23870	,	-21582	,	-1.6400986	,	6
19,43	,	68044	,	-23863	,	-21590	,	3.2619977	,	10
19,43	,	68076	,	-23861	,	-21598	,	7.965413	,	14
19,43	,	68092	,	-23870	,	-21588	,	12.041146	,	18
19,43	,	68108	,	-23863	,	-21588	,	15.022724	,	22
19,43	,	68140	,	-23863	,	-21595	,	16.632366	,	24
19,43	,	68156	,	-23865	,	-21586	,	16.89684	,	25
19,43	,	68188	,	-23866	,	-21591	,	15.994433	,	24
19,43	,	68204	,	-23865	,	-21586	,	14.162601	,	22
19,43	,	68220	,	-23869	,	-21592	,	11.696936	,	19
19,43	,	68252	,	-23861	,	-21604	,	8.929673	,	15
19,43	,	68268	,	-23877	,	-21587	,	6.1611056	,	11
19,43	,	68284	,	-23878	,	-21598	,	3.5132995	,	7
19,43	,	68316	,	-23877	,	-21593	,	0.9796748	,	3
19,43	,	68332	,	-23885	,	-21596	,	-1.3869472	,	1
19,43	,	68348	,	-23885	,	-21593	,	-3.5065925	,	0
19,43	,	68380	,	-23898	,	-21594	,	-5.3774676	,	0
19,43	,	68395	,	-23901	,	-21594	,	-7.091768	,	0
19,43	,	68428	,	-23920	,	-21612	,	-8.822939	,	0
19,43	,	68444	,	-23915	,	-21610	,	-10.735779	,	0
19,43	,	68460	,	-23911	,	-21613	,	-12.749239	,	0
19,43	,	68492	,	-23925	,	-21613	,	-14.526623	,	0
19,43	,	68508	,	-23941	,	-21608	,	-15.908953	,	0
19,43	,	68524	,	-23944	,	-21613	,	-17.08304	,	0
19,43	,	68555	,	-23948	,	-21615	,	-18.229681	,	0
19,43	,	68572	,	-23946	,	-21623	,	-19.275814	,	0
19,43	,	68604	,	-23959	,	-21624	,	-20.022686	,	0
19,43	,	68620	,	-23954	,	-21615	,	-20.349865	,	0
19,43	,	68636	,	-23942	,	-21609	,	-20.129948	,	0
19,43	,	68668	,	-23930	,	-21609	,	-19.043114	,	0
19,43	,	68684	,	-23904	,	-21604	,	-16.62601	,	1
19,43	,	68700	,	-23905	,	-21602	,	-12.526018	,	3
19,43	,	68731	,	-23895	,	-21601	,	-6.841156	,	7
19,43	,	68747	,	-23903	,	-21591	,	-0.22364807	,	12
19,43	,	68763	,	-23901	,	-21589	,	6.348441	,	18
19,43	,	68796	,	-23910	,	-21596	,	11.879729	,	24
19,43	,	68812	,	-23910	,	-21598	,	15.623541	,	29
19,44	,	68843	,	-23911	,	-21593	,	17.252647	,	32
19,44	,	68859	,	-23924	,	-21599	,	16.822567	,	33
19,44	,	68875	,	-23920	,	-21596	,	14.604009	,	32
19,44	,	68907	,	-23918	,	-21594	,	11.087537	,	30
19,44	,	68923	,	-23910	,	-21590	,	7.0227933	,	26
19,44	,	68939	,	-23911	,	-21602	,	3.2096944	,	21
19,44	,	68972	,	-23910	,	-21603	,	0.2130928	,	15
19,44	,	68987	,	-23925	,	-21597	,	-1.8122528	,	9
19,44	,	69019	,	-23926	,	-21598	,	-3.1064258	,	4
19,44	,	69036	,	-23924	,	-21610	,	-4.0120363	,	1
19,44	,	69051	,	-23933	,	-21609	,	-4.7211347	,	0
19,44	,	69084	,	-23937	,	-21610	,	-5.360624	,	0
19,44	,	69100	,	-23941	,	-21604	,	-6.068575	,	0
19,44	,	69115	,	-23937	,	-21623	,	-6.8752074	,	0
19,44	,	69147	,	-23951	,	-21629	,	-7.7037396	,	0
19,44	,	69163	,	-23956	,	-21626	,	-8.554285	,	0
19,44	,	69179	,	-23962	,	-21625	,	-9.533406	,	0
19,44	,	69211	,	-23959	,	-21627	,	-10.659331	,	0
19,44	,	69228	,	-23977	,	-21634	,	-11.828957	,	0
19,44	,	69260	,	-23975	,	-21628	,	-12.98908	,	0
19,44	,	69275	,	-23976	,	-21634	,	-14.095815	,	0
19,44	,	69291	,	-23957	,	-21633	,	-14.881472	,	0
19,44	,	69323	,	-23944	,	-21628	,	-14.799995	,	0
19,44	,	69339	,	-23923	,	-21621	,	-13.22052	,	0
19,44	,	69355	,	-23916	,	-21618	,	-9.738473	,	1
19,44	,	69387	,	-23920	,	-21610	,	-4.496653	,	4
19,44	,	69403	,	-23907	,	-21615	,	1.7842655	,	9
19,44	,	69435	,	-23906	,	-21617	,	8.20707	,	15
19,44	,	69451	,	-23907	,	-21607	,	14.000262	,	21
19,44	,	69467	,	-23902	,	-21612	,	18.548363	,	26
19,44	,	69499	,	-23917	,	-21615	,	21.41368	,	30
19,44	,	69515	,	-23916	,	-21615	,	22.3233	,	32
19,44	,	69531	,	-23911	,	-21608	,	21.281567	,	32
19,44	,	69563	,	-23918	,	-21609	,	18.676136	,	31
19,44	,	69580	,	-23922	,	-21609	,	15.040729	,	28
19,44	,	69595	,	-23916	,	-21618	,	10.863638	,	23
19,44	,	69627	,	-23932	,	-21620	,	6.5814705	,	17
19,44	,	69643	,	-23925	,	-21612	,	2.5091448	,	11
19,44	,	69675	,	-23929	,	-21630	,	-1.1126261	,	6
19,44	,	69691	,	-23934	,	-21616	,	-4.072379	,	2
19,44	,	69707	,	-23940	,	-21620	,	-6.3205104	,	0
19,44	,	69739	,	-23958	,	-21626	,	-8.043997	,	0
19,44	,	69755	,	-23959	,	-21624	,	-9.583346	,	0
19,44	,	69771	,	-23955	,	-21630	,	-11.139206	,	0
19,44	,	69803	,	-23973	,	-21638	,	-12.63954	,	0
19,44	,	69819	,	-23965	,	-21641	,	-13.969507	,	0
19,45	,	69851	,	-23981	,	-21645	,	-15.069889	,	0
19,45	,	69867	,	-23986	,	-21646	,	-15.946308	,	0
19,45	,	69883	,	-23988	,	-21641	,	-16.674553	,	0
19,45	,	69915	,	-23990	,	-21650	,	-17.251343	,	0
19,45	,	69931	,	-23989	,	-21639	,	-17.546818	,	0
19,45	,	69947	,	-24018	,	-21662	,	-17.530827	,	0
19,45	,	69979	,	-24007	,	-21653	,	-17.431082	,	0
19,45	,	69995	,	-23980	,	-21645	,	-17.276608	,	0
19,45	,	70027	,	-23969	,	-21640	,	-16.463428	,	0
19,45	,	70043	,	-23961	,	-21634	,	-14.237899	,	0
19,45	,	70059	,	-23947	,	-21628	,	-10.308462	,	2
19,45	,	70091	,	-23934	,	-21625	,	-4.837347	,	5
19,45	,	70107	,	-23926	,	-21616	,	1.7519617	,	10
19,45	,	70123	,	-23922	,	-21614	,	8.828352	,	16
19,45	,	70155	,	-23932	,	-21621	,	15.553198	,	23
19,45	,	70171	,	-23911	,	-21601	,	21.079979	,	29
19,45	,	70203	,	-23919	,	-21613	,	24.922043	,	34
19,45	,	70219	,	-23921	,	-21609	,	26.927273	,	37
19,45	,	70235	,	-23909	,	-21611	,	27.103832	,	39
19,45	,	70267	,	-23919	,	-21606	,	25.701061	,	37
19,45	,	70283	,	-23913	,	-21607	,	23.116428	,	34
19,45	,	70299	,	-23917	,	-21610	,	19.737759	,	29
19,45	,	70331	,	-23908	,	-21607	,	15.979842	,	23
19,45	,	70347	,	-23910	,	-21611	,	12.290966	,	16
19,45	,	70363	,	-23923	,	-21619	,	8.9748	,	10
19,45	,	70395	,	-23923	,	-21602	,	6.032604	,	5
19,45	,	70411	,	-23927	,	-21614	,	3.3327827	,	2
19,45	,	70443	,	-23940	,	-21613	,	0.7717271	,	0
19,45	,	70459	,	-23940	,	-21618	,	-1.7694681	,	0
19,45	,	70475	,	-23946	,	-21627	,	-4.344199	,	0
19,45	,	70507	,	-23950	,	-21629	,	-6.8643885	,	0
19,45	,	70523	,	-23965	,	-21626	,	-9.24115	,	0
19,45	,	70539	,	-23960	,	-21632	,	-11.458587	,	0
19,45	,	70571	,	-23964	,	-21641	,	-13.420302	,	0
19,45	,	70587	,	-23967	,	-21646	,	-14.91959	,	0
19,45	,	70619	,	-23973	,	-21656	,	-15.833204	,	0
19,45	,	70635	,	-23981	,	-21631	,	-16.222054	,	0
19,45	,	70651	,	-23987	,	-21655	,	-16.280243	,	0
19,45	,	70683	,	-24009	,	-21649	,	-16.304447	,	0
19,45	,	70699	,	-23991	,	-21654	,	-16.561905	,	0
19,45	,	70715	,	-23964	,	-21651	,	-16.81995	,	0
19,45	,	70747	,	-23954	,	-21653	,	-16.211811	,	0
19,45	,	70763	,	-23938	,	-21635	,	-13.889874	,	0
19,45	,	70779	,	-23927	,	-21625	,	-9.557764	,	2
19,45	,	70811	,	-23907	,	-21621	,	-3.4124393	,	6
19,45	,	70827	,	-23885	,	-21617	,	4.1324987	,	12
19,46	,	70859	,	-23886	,	-21623	,	12.539343	,	19
19,46	,	70875	,	-23881	,	-21605	,	20.986305	,	27
19,46	,	70891	,	-23888	,	-21619	,	28.397831	,	35
19,46	,	70923	,	-23891	,	-21615	,	33.740585	,	42
19,46	,	70939	,	-23890	,	-21626	,	36.323624	,	47
19,46	,	70955	,	-23890	,	-21616	,	36.012222	,	49
19,46	,	70987	,	-23898	,	-21618	,	33.1665	,	47
19,46	,	71003	,	-23893	,	-21621	,	28.400928	,	43
19,46	,	71035	,	-23891	,	-21621	,	22.487411	,	37
19,46	,	71051	,	-23891	,	-21624	,	16.275902	,	30
19,46	,	71067	,	-23894	,	-21625	,	10.482872	,	22
19,46	,	71099	,	-23897	,	-21629	,	5.53607	,	14
19,46	,	71115	,	-23897	,	-21609	,	1.595098	,	7
19,46	,	71131	,	-23916	,	-21635	,	-1.4118938	,	2
19,46	,	71162	,	-23910	,	-21630	,	-3.758191	,	0
19,46	,	71178	,	-23917	,	-21633	,	-5.7018704	,	0
19,46	,	71195	,	-23929	,	-21636	,	-7.387181	,	0
19,46	,	71227	,	-23939	,	-21641	,	-9.00689	,	0
19,46	,	71243	,	-23936	,	-21640	,	-10.734845	,	0
19,46	,	71275	,	-23936	,	-21648	,	-12.486389	,	0
19,46	,	71291	,	-23943	,	-21649	,	-13.984469	,	0
19,46	,	71306	,	-23940	,	-21642	,	-15.001688	,	0
19,46	,	71338	,	-23947	,	-21655	,	-15.427147	,	0
19,46	,	71355	,	-23964	,	-21639	,	-15.342884	,	0
19,46	,	71371	,	-23972	,	-21661	,	-15.115672	,	0
19,46	,	71403	,	-23981	,	-21662	,	-15.180664	,	0
19,46	,	71419	,	-23983	,	-21661	,	-15.739221	,	0
19,46	,	71451	,	-24005	,	-21658	,	-16.78077	,	0
19,46	,	71467	,	-24000	,	-21651	,	-18.244743	,	0
19,46	,	71483	,	-24003	,	-21660	,	-19.92783	,	0
19,46	,	71515	,	-23996	,	-21659	,	-21.378874	,	0
19,46	,	71530	,	-23990	,	-21660	,	-22.048378	,	0
19,46	,	71547	,	-23969	,	-21651	,	-21.412304	,	0
19,46	,	71579	,	-23945	,	-21664	,	-18.959377	,	0
19,46	,	71595	,	-23937	,	-21624	,	-14.327277	,	2
19,46	,	71611	,	-23925	,	-21632	,	-7.623535	,	6
19,46	,	71642	,	-23923	,	-21629	,	0.47843742	,	12
19,46	,	71658	,	-23912	,	-21628	,	8.984245	,	20
19,46	,	71690	,	-23914	,	-21625	,	16.88892	,	28
19,46	,	71707	,	-23907	,	-21626	,	23.372183	,	35
19,46	,	71723	,	-23910	,	-21629	,	27.88787	,	41
19,46	,	71755	,	-23906	,	-21632	,	30.195972	,	45
19,46	,	71771	,	-23910	,	-21632	,	30.336693	,	47
19,46	,	71786	,	-23900	,	-21622	,	28.613972	,	45
19,46	,	71818	,	-23915	,	-21634	,	25.513596	,	41
19,46	,	71834	,	-23915	,	-21610	,	21.47163	,	35
19,47	,	71867	,	-23916	,	-21620	,	16.820456	,	27
19,47	,	71883	,	-23904	,	-21620	,	12.002052	,	19
19,47	,	71899	,	-23918	,	-21621	,	7.550535	,	12
19,47	,	71931	,	-23921	,	-21626	,	3.7618728	,	6
19,47	,	71947	,	-23924	,	-21631	,	0.61369085	,	2
19,47	,	71962	,	-23927	,	-21625	,	-1.9961715	,	0
19,47	,	71995	,	-23935	,	-21627	,	-4.156487	,	0
19,47	,	72011	,	-23941	,	-21628	,	-6.0031443	,	0
19,47	,	72027	,	-23937	,	-21632	,	-7.647828	,	0
19,47	,	72059	,	-23952	,	-21654	,	-9.103038	,	0
19,47	,	72074	,	-23948	,	-21629	,	-10.3722725	,	0
19,47	,	72106	,	-23960	,	-21643	,	-11.4853525	,	0
19,47	,	72122	,	-23972	,	-21645	,	-12.518984	,	0
19,47	,	72138	,	-23968	,	-21648	,	-13.593027	,	0
19,47	,	72170	,	-23970	,	-21650	,	-14.663318	,	0
19,47	,	72186	,	-23984	,	-21654	,	-15.550577	,	0
19,47	,	72203	,	-23978	,	-21654	,	-16.178818	,	0
19,47	,	72234	,	-24001	,	-21663	,	-16.593056	,	0
19,47	,	72250	,	-23985	,	-21661	,	-16.870094	,	0
19,47	,	72282	,	-23993	,	-21668	,	-16.959795	,	0
19,47	,	72299	,	-24008	,	-21679	,	-16.760427	,	0
19,47	,	72314	,	-24008	,	-21658	,	-16.392618	,	0
19,47	,	72346	,	-24015	,	-21675	,	-16.071884	,	0
19,47	,	72362	,	-23984	,	-21673	,	-15.725661	,	0
19,47	,	72378	,	-23973	,	-21661	,	-14.798715	,	0
19,47	,	72410	,	-23950	,	-21656	,	-12.5174	,	0
19,47	,	72426	,	-23940	,	-21649	,	-8.386664	,	2
19,47	,	72458	,	-23943	,	-21649	,	-2.5079093	,	6
19,47	,	72474	,	-23948	,	-21651	,	4.323393	,	11
19,47	,	72490	,	-23943	,	-21642	,	10.926883	,	17
19,47	,	72522	,	-23941	,	-21645	,	16.310617	,	23
19,47	,	72538	,	-23935	,	-21649	,	19.977287	,	28
19,47	,	72554	,	-23946	,	-21643	,	21.815985	,	31
19,47	,	72586	,	-23955	,	-21643	,	21.819498	,	32
19,47	,	72602	,	-23955	,	-21645	,	20.024416	,	32
19,47	,	72618	,	-23949	,	-21644	,	16.7351	,	30
19,47	,	72650	,	-23952	,	-21647	,	12.578537	,	26
19,47	,	72666	,	-23953	,	-21642	,	8.23417	,	21
19,47	,	72698	,	-23953	,	-21647	,	4.214611	,	15
19,47	,	72714	,	-23956	,	-21646	,	0.8396287	,	9
19,47	,	72730	,	-23959	,	-21655	,	-1.762332	,	4
19,47	,	72762	,	-23956	,	-21649	,	-3.6047444	,	1
19,47	,	72778	,	-23955	,	-21656	,	-4.727477	,	0
19,47	,	72794	,	-23958	,	-21658	,	-5.179123	,	0
19,47	,	72826	,	-23973	,	-21649	,	-5.153305	,	0
19,48	,	72842	,	-23975	,	-21654	,	-5.046818	,	0
19,48	,	72874	,	-23978	,	-21662	,	-5.226163	,	0
19,48	,	72890	,	-23982	,	-21659	,	-5.805151	,	0
19,48	,	72906	,	-23998	,	-21655	,	-6.7719626	,	0
19,48	,	72938	,	-23995	,	-21666	,	-8.142738	,	0
19,48	,	72954	,	-24012	,	-21658	,	-9.891151	,	0
19,48	,	72970	,	-24009	,	-21671	,	-11.908584	,	0
19,48	,	73002	,	-24015	,	-21676	,	-13.999631	,	0
19,48	,	73018	,	-24019	,	-21674	,	-15.894657	,	0
19,48	,	73034	,	-24028	,	-21678	,	-17.397102	,	0
19,48	,	73066	,	-24041	,	-21676	,	-18.509872	,	0
19,48	,	73082	,	-24047	,	-21679	,	-19.40516	,	0
19,48	,	73114	,	-24049	,	-21681	,	-20.230679	,	0
19,48	,	73130	,	-24040	,	-21676	,	-20.883999	,	0
19,48	,	73146	,	-24036	,	-21679	,	-20.994255	,	0
19,48	,	73178	,	-24027	,	-21676	,	-20.137741	,	0
19,48	,	73194	,	-24002	,	-21666	,	-17.959293	,	0
19,48	,	73210	,	-23994	,	-21661	,	-14.1558895	,	2
19,48	,	73242	,	-23987	,	-21665	,	-8.689067	,	5
19,48	,	73258	,	-23997	,	-21650	,	-2.0768013	,	10
19,48	,	73290	,	-23982	,	-21651	,	4.7331624	,	16
19,48	,	73306	,	-23986	,	-21652	,	10.8448925	,	22
19,48	,	73322	,	-23983	,	-21645	,	15.665	,	28
19,48	,	73354	,	-23995	,	-21651	,	18.798285	,	32
19,48	,	73370	,	-23988	,	-21655	,	20.015676	,	35
19,48	,	73386	,	-23981	,	-21653	,	19.432787	,	36
19,48	,	73418	,	-23986	,	-21653	,	17.530617	,	34
19,48	,	73434	,	-23980	,	-21648	,	14.878236	,	31
19,48	,	73450	,	-23985	,	-21647	,	11.9447155	,	26
19,48	,	73482	,	-23978	,	-21650	,	9.092757	,	20
19,48	,	73498	,	-23977	,	-21632	,	6.6050916	,	14
19,48	,	73530	,	-23991	,	-21648	,	4.613707	,	8
19,48	,	73546	,	-23986	,	-21646	,	3.0098567	,	4
19,48	,	73562	,	-23996	,	-21648	,	1.5903277	,	1
19,48	,	73594	,	-23999	,	-21647	,	0.18968296	,	0
19,48	,	73610	,	-23991	,	-21653	,	-1.26203	,	0
19,48	,	73626	,	-24006	,	-21657	,	-2.6911023	,	0
19,48	,	73658	,	-24006	,	-21661	,	-4.0459905	,	0
19,48	,	73674	,	-24008	,	-21659	,	-5.3546395	,	0
19,48	,	73706	,	-24004	,	-21663	,	-6.5508404	,	0
19,48	,	73722	,	-24018	,	-21671	,	-7.5071936	,	0
19,48	,	73738	,	-24030	,	-21659	,	-8.290318	,	0
19,48	,	73770	,	-24031	,	-21667	,	-9.170767	,	0
19,48	,	73786	,	-24035	,	-21671	,	-10.305647	,	0
19,48	,	73802	,	-24051	,	-21675	,	-11.661157	,	0
19,48	,	73834	,	-24040	,	-21675	,	-13.1532	,	0
19,49	,	73850	,	-24053	,	-21681	,	-14.599393	,	0
19,49	,	73866	,	-24063	,	-21677	,	-15.820536	,	0
19,49	,	73898	,	-24063	,	-21685	,	-16.816555	,	0
19,49	,	73914	,	-24052	,	-21684	,	-17.532734	,	0
19,49	,	73945	,	-24048	,	-21684	,	-17.647362	,	0
19,49	,	73962	,	-24034	,	-21678	,	-16.746128	,	0
19,49	,	73978	,	-24005	,	-21662	,	-14.431516	,	0
19,49	,	74010	,	-23992	,	-21657	,	-10.311712	,	2
19,49	,	74026	,	-23986	,	-21663	,	-4.293981	,	6
19,49	,	74042	,	-23964	,	-21656	,	3.1909275	,	12
19,49	,	74074	,	-23975	,	-21647	,	11.348778	,	19
19,49	,	74090	,	-23967	,	-21650	,	19.156965	,	27
19,49	,	74121	,	-23969	,	-21648	,	25.583605	,	34
19,49	,	74138	,	-23960	,	-21649	,	29.949306	,	40
19,49	,	74153	,	-23976	,	-21647	,	31.983498	,	44
19,49	,	74186	,	-23970	,	-21646	,	31.659105	,	46
19,49	,	74202	,	-23961	,	-21660	,	29.253399	,	44
19,49	,	74218	,	-23963	,	-21635	,	25.42859	,	40
19,49	,	74250	,	-23965	,	-21640	,	20.93406	,	34
19,49	,	74266	,	-23964	,	-21649	,	16.317116	,	27
19,49	,	74281	,	-23949	,	-21644	,	12.01757	,	19
19,49	,	74314	,	-23970	,	-21646	,	8.40857	,	12
19,49	,	74329	,	-23971	,	-21648	,	5.5298705	,	6
19,49	,	74362	,	-23977	,	-21656	,	3.0969768	,	2
19,49	,	74378	,	-23974	,	-21649	,	0.87377644	,	0
19,49	,	74394	,	-23981	,	-21655	,	-1.1799071	,	0
19,49	,	74426	,	-23986	,	-21661	,	-3.0498955	,	0
19,49	,	74442	,	-23992	,	-21672	,	-4.7819915	,	0
19,49	,	74457	,	-24004	,	-21643	,	-6.4810724	,	0
19,49	,	74490	,	-24012	,	-21660	,	-8.295037	,	0
19,49	,	74506	,	-24016	,	-21659	,	-10.3274145	,	0
19,49	,	74537	,	-24018	,	-21660	,	-12.500698	,	0
19,49	,	74553	,	-24035	,	-21660	,	-14.632915	,	0
19,49	,	74569	,	-24038	,	-21670	,	-16.63642	,	0
19,49	,	74601	,	-24042	,	-21675	,	-18.47423	,	0
19,49	,	74617	,	-24041	,	-21681	,	-19.998652	,	0
19,49	,	74634	,	-24047	,	-21672	,	-20.991165	,	0
19,49	,	74666	,	-24051	,	-21674	,	-21.32167	,	0
19,49	,	74681	,	-24058	,	-21691	,	-21.031075	,	0
19,49	,	74713	,	-24055	,	-21671	,	-20.261295	,	0
19,49	,	74729	,	-24044	,	-21674	,	-19.055698	,	0
19,49	,	74745	,	-24030	,	-21671	,	-17.210634	,	1
19,49	,	74777	,	-24005	,	-21668	,	-14.309883	,	2
19,49	,	74794	,	-23992	,	-21647	,	-9.919891	,	4
19,49	,	74809	,	-23981	,	-21653	,	-3.9101086	,	8
19,50	,	74841	,	-23971	,	-21647	,	3.3610444	,	14
19,50	,	74857	,	-23954	,	-21648	,	11.227116	,	21
19,50	,	74873	,	-23947	,	-21640	,	18.998291	,	28
19,50	,	74905	,	-23946	,	-21636	,	26.015728	,	35
19,50	,	74921	,	-23945	,	-21643	,	31.606447	,	42
19,50	,	74953	,	-23952	,	-21619	,	35.165638	,	46
19,50	,	74970	,	-23948	,	-21631	,	36.316498	,	48
19,50	,	74985	,	-23942	,	-21626	,	35.101124	,	47
19,50	,	75017	,	-23939	,	-21631	,	32.030403	,	43
19,50	,	75033	,	-23929	,	-21629	,	27.880709	,	37
19,50	,	75049	,	-23928	,	-21620	,	23.448732	,	30
19,50	,	75081	,	-23937	,	-21635	,	19.288252	,	23
19,50	,	75097	,	-23932	,	-21626	,	15.567977	,	16
19,50	,	75129	,	-23937	,	-21632	,	12.261762	,	9
19,50	,	75145	,	-23947	,	-21634	,	9.288484	,	4
19,50	,	75161	,	-23945	,	-21647	,	6.4966416	,	1
19,50	,	75193	,	-23953	,	-21625	,	3.7738824	,	0
19,50	,	75209	,	-23959	,	-21643	,	1.0867081	,	0
19,50	,	75225	,	-23970	,	-21643	,	-1.623168	,	0
19,50	,	75257	,	-23974	,	-21639	,	-4.4333754	,	0
19,50	,	75273	,	-23982	,	-21648	,	-7.3414	,	0
19,50	,	75289	,	-23975	,	-21647	,	-10.184335	,	0
19,50	,	75321	,	-23981	,	-21648	,	-12.637087	,	0
19,50	,	75337	,	-23992	,	-21657	,	-14.4343195	,	0
19,50	,	75369	,	-23994	,	-21654	,	-15.586804	,	0
19,50	,	75385	,	-23985	,	-21656	,	-16.181175	,	0
19,50	,	75401	,	-24000	,	-21676	,	-16.18899	,	0
19,50	,	75433	,	-24013	,	-21654	,	-15.735832	,	0
19,50	,	75449	,	-24020	,	-21667	,	-15.2425	,	0
19,50	,	75465	,	-24012	,	-21675	,	-15.041639	,	0
19,50	,	75497	,	-24012	,	-21672	,	-15.043957	,	0
19,50	,	75513	,	-24015	,	-21662	,	-14.918333	,	0
19,50	,	75545	,	-23993	,	-21665	,	-14.336035	,	0
19,50	,	75561	,	-23982	,	-21657	,	-12.894534	,	0
19,50	,	75577	,	-23961	,	-21645	,	-10.137835	,	1
19,50	,	75609	,	-23935	,	-21643	,	-5.7257476	,	3
19,50	,	75625	,	-23922	,	-21631	,	0.46897888	,	7
19,50	,	75641	,	-23920	,	-21632	,	8.140004	,	13
19,50	,	75673	,	-23912	,	-21627	,	16.42944	,	20
19,50	,	75689	,	-23913	,	-21624	,	24.2179	,	28
19,50	,	75705	,	-23920	,	-21627	,	30.445688	,	35
19,50	,	75737	,	-23921	,	-21632	,	34.27482	,	41
19,50	,	75753	,	-23912	,	-21632	,	35.3373	,	44
19,50	,	75785	,	-23908	,	-21629	,	33.90898	,	44
19,50	,	75801	,	-23919	,	-21628	,	30.640654	,	42
19,50	,	75817	,	-23901	,	-21630	,	26.212654	,	38
19,51	,	75849	,	-23911	,	-21623	,	21.306023	,	32
19,51	,	75865	,	-23912	,	-21633	,	16.483292	,	25
19,51	,	75881	,	-23916	,	-21622	,	12.01924	,	17
19,51	,	75913	,	-23897	,	-21621	,	8.109548	,	10
19,51	,	75929	,	-23917	,	-21620	,	5.0033226	,	4
19,51	,	75961	,	-23920	,	-21629	,	2.6997766	,	1
19,51	,	75977	,	-23931	,	-21630	,	0.8367324	,	0
19,51	,	75993	,	-23941	,	-21634	,	-1.0319002	,	0
19,51	,	76025	,	-23938	,	-21632	,	-3.1857095	,	0
19,51	,	76041	,	-23934	,	-21641	,	-5.5508933	,	0
19,51	,	76057	,	-23933	,	-21641	,	-7.721923	,	0
19,51	,	76089	,	-23947	,	-21643	,	-9.332777	,	0
19,51	,	76105	,	-23954	,	-21641	,	-10.3802805	,	0
19,51	,	76137	,	-23950	,	-21634	,	-11.086355	,	0
19,51	,	76153	,	-23966	,	-21646	,	-11.614322	,	0
19,51	,	76169	,	-23975	,	-21653	,	-12.133896	,	0
19,51	,	76201	,	-23979	,	-21656	,	-12.877523	,	0
19,51	,	76217	,	-23984	,	-21658	,	-13.938227	,	0
19,51	,	76233	,	-23985	,	-21661	,	-15.181024	,	0
19,51	,	76265	,	-23996	,	-21662	,	-16.381763	,	0
19,51	,	76281	,	-23997	,	-21653	,	-17.387625	,	0
19,51	,	76297	,	-24002	,	-21656	,	-18.119038	,	0
19,51	,	76329	,	-24011	,	-21661	,	-18.5417	,	0
19,51	,	76345	,	-23996	,	-21675	,	-18.625824	,	0
19,51	,	76377	,	-23984	,	-21642	,	-18.133667	,	0
19,51	,	76393	,	-23934	,	-21640	,	-16.417244	,	0
19,51	,	76409	,	-23933	,	-21634	,	-12.610341	,	1
19,51	,	76441	,	-23925	,	-21622	,	-6.3660774	,	4
19,51	,	76457	,	-23923	,	-21624	,	1.6787972	,	10
19,51	,	76473	,	-23924	,	-21625	,	10.270918	,	18
19,51	,	76505	,	-23914	,	-21612	,	18.12652	,	26
19,51	,	76521	,	-23923	,	-21615	,	24.287119	,	33
19,51	,	76553	,	-23915	,	-21614	,	28.198698	,	39
19,51	,	76569	,	-23910	,	-21615	,	29.744242	,	42
19,51	,	76585	,	-23920	,	-21628	,	29.192677	,	43
19,51	,	76616	,	-23918	,	-21602	,	26.916508	,	42
19,51	,	76633	,	-23907	,	-21610	,	23.359142	,	39
19,51	,	76649	,	-23905	,	-21613	,	19.189077	,	33
19,51	,	76681	,	-23902	,	-21616	,	15.121747	,	25
19,51	,	76697	,	-23918	,	-21613	,	11.566032	,	17
19,51	,	76713	,	-23907	,	-21612	,	8.546939	,	10
19,51	,	76745	,	-23922	,	-21618	,	5.9364014	,	4
19,51	,	76761	,	-23918	,	-21615	,	3.6043262	,	1
19,51	,	76793	,	-23929	,	-21621	,	1.4282308	,	0
19,51	,	76808	,	-23918	,	-21627	,	-0.6280596	,	0
19,51	,	76824	,	-23934	,	-21645	,	-2.4966352	,	0
19,52	,	76857	,	-23934	,	-21602	,	-4.156314	,	0
19,52	,	76873	,	-23955	,	-21633	,	-5.7482514	,	0
19,52	,	76889	,	-23950	,	-21630	,	-7.4857645	,	0
19,52	,	76921	,	-23969	,	-21634	,	-9.48169	,	0
19,52	,	76936	,	-23967	,	-21635	,	-11.714361	,	0
19,52	,	76968	,	-23966	,	-21639	,	-14.007325	,	0
19,52	,	76984	,	-23973	,	-21642	,	-16.023252	,	0
19,52	,	77001	,	-23962	,	-21645	,	-17.409786	,	0
19,52	,	77033	,	-23978	,	-21647	,	-17.93425	,	0
19,52	,	77049	,	-23971	,	-21650	,	-17.584694	,	0
19,52	,	77065	,	-23971	,	-21656	,	-16.501904	,	0
19,52	,	77096	,	-23998	,	-21639	,	-14.940786	,	1
19,52	,	77112	,	-24002	,	-21656	,	-13.446934	,	2
19,52	,	77128	,	-23992	,	-21655	,	-12.54389	,	3
19,52	,	77160	,	-23982	,	-21650	,	-12.162083	,	3
19,52	,	77177	,	-23971	,	-21645	,	-11.707611	,	3
19,52	,	77209	,	-23940	,	-21642	,	-10.421215	,	3
19,52	,	77225	,	-23943	,	-21637	,	-7.6505303	,	4
19,52	,	77241	,	-23929	,	-21627	,	-3.2287111	,	6
19,52	,	77272	,	-23934	,	-21633	,	2.3857136	,	10
19,52	,	77288	,	-23930	,	-21628	,	8.353759	,	14
19,52	,	77305	,	-23928	,	-21640	,	13.782418	,	18
19,52	,	77337	,	-23934	,	-21620	,	17.967205	,	22
19,52	,	77353	,	-23929	,	-21627	,	20.47183	,	26
19,52	,	77384	,	-23932	,	-21625	,	21.175373	,	28
19,52	,	77400	,	-23933	,	-21630	,	20.247128	,	28
19,52	,	77416	,	-23928	,	-21629	,	18.038795	,	27
19,52	,	77448	,	-23927	,	-21631	,	15.043766	,	25
19,52	,	77464	,	-23926	,	-21627	,	11.796266	,	21
19,52	,	77480	,	-23934	,	-21628	,	8.686673	,	16
19,52	,	77512	,	-23936	,	-21631	,	5.8671165	,	11
19,52	,	77529	,	-23928	,	-21629	,	3.3782172	,	6
19,52	,	77544	,	-23936	,	-21643	,	1.3067923	,	2
19,52	,	77576	,	-23936	,	-21622	,	-0.29821682	,	0
19,52	,	77593	,	-23942	,	-21639	,	-1.5178484	,	0
19,52	,	77625	,	-23953	,	-21632	,	-2.5376515	,	0
19,52	,	77641	,	-23952	,	-21639	,	-3.5892756	,	0
19,52	,	77657	,	-23970	,	-21634	,	-4.8601065	,	0
19,52	,	77689	,	-23976	,	-21628	,	-6.507604	,	0
19,52	,	77704	,	-23980	,	-21646	,	-8.617726	,	0
19,52	,	77720	,	-23989	,	-21644	,	-11.082078	,	0
19,52	,	77752	,	-23996	,	-21646	,	-13.682821	,	0
19,52	,	77768	,	-23997	,	-21646	,	-16.194233	,	0
19,52	,	77800	,	-24002	,	-21655	,	-18.35987	,	0
19,52	,	77816	,	-23996	,	-21644	,	-19.901058	,	0
19,52	,	77832	,	-24007	,	-21652	,	-20.59835	,	0
19,53	,	77864	,	-24023	,	-21667	,	-20.498753	,	0
19,53	,	77880	,	-24020	,	-21661	,	-19.952063	,	0
19,53	,	77896	,	-24022	,	-21656	,	-19.252234	,	0
19,53	,	77928	,	-24007	,	-21654	,	-18.362114	,	0
19,53	,	77944	,	-23999	,	-21645	,	-16.960018	,	0
19,53	,	77960	,	-23986	,	-21642	,	-14.640039	,	1
19,53	,	77993	,	-23961	,	-21633	,	-11.064053	,	3
19,53	,	78008	,	-23966	,	-21642	,	-6.0835357	,	6
19,53	,	78040	,	-23963	,	-21646	,	-0.018692493	,	10
19,53	,	78056	,	-23961	,	-21628	,	6.326366	,	16
19,53	,	78072	,	-23963	,	-21627	,	12.053867	,	22
19,53	,	78104	,	-23970	,	-21627	,	16.422123	,	27
19,53	,	78120	,	-23967	,	-21628	,	18.93864	,	31
19,53	,	78136	,	-23973	,	-21630	,	19.462643	,	33
19,53	,	78168	,	-23967	,	-21633	,	18.200539	,	32
19,53	,	78184	,	-23968	,	-21633	,	15.623612	,	30
19,53	,	78216	,	-23968	,	-21632	,	12.32532	,	27
19,53	,	78232	,	-23963	,	-21631	,	8.863101	,	23
19,53	,	78248	,	-23968	,	-21635	,	5.6827106	,	17
19,53	,	78280	,	-23970	,	-21632	,	3.0390644	,	11
19,53	,	78296	,	-23966	,	-21634	,	0.99837637	,	6
19,53	,	78312	,	-23972	,	-21634	,	-0.45415282	,	2
19,53	,	78344	,	-23978	,	-21633	,	-1.4336436	,	0
19,53	,	78360	,	-23986	,	-21632	,	-2.2041278	,	0
19,53	,	78376	,	-23989	,	-21650	,	-3.0646362	,	0
19,53	,	78408	,	-23989	,	-21642	,	-4.168283	,	0
19,53	,	78424	,	-23993	,	-21642	,	-5.458319	,	0
19,53	,	78456	,	-24004	,	-21641	,	-6.81626	,	0
19,53	,	78472	,	-23990	,	-21648	,	-8.141082	,	0
19,53	,	78488	,	-24006	,	-21652	,	-9.2654	,	0
19,53	,	78520	,	-24012	,	-21645	,	-10.104534	,	0
19,53	,	78536	,	-24022	,	-21648	,	-10.814233	,	0
19,53	,	78552	,	-24028	,	-21656	,	-11.626389	,	0
19,53	,	78584	,	-24028	,	-21660	,	-12.642972	,	0
19,53	,	78600	,	-24032	,	-21657	,	-13.760167	,	0
19,53	,	78632	,	-24023	,	-21652	,	-14.706272	,	0
19,53	,	78648	,	-23998	,	-21648	,	-15.009426	,	0
19,53	,	78664	,	-23995	,	-21637	,	-14.033598	,	0
19,53	,	78696	,	-23969	,	-21639	,	-11.304089	,	0
19,53	,	78712	,	-23951	,	-21628	,	-6.655032	,	2
19,53	,	78728	,	-23958	,	-21634	,	-0.27951956	,	6
19,53	,	78760	,	-23952	,	-21620	,	7.064846	,	12
19,53	,	78776	,	-23950	,	-21632	,	14.259805	,	19
19,53	,	78808	,	-23961	,	-21621	,	20.25749	,	26
19,53	,	78824	,	-23957	,	-21623	,	24.250023	,	31
19,54	,	78840	,	-23963	,	-21634	,	25.825191	,	34
19,54	,	78872	,	-23965	,	-21632	,	25.036404	,	35
19,54	,	78888	,	-23970	,	-21629	,	22.250225	,	35
19,54	,	78904	,	-23961	,	-21630	,	18.047028	,	33
19,54	,	78936	,	-23957	,	-21627	,	13.209068	,	29
19,54	,	78952	,	-23969	,	-21628	,	8.505205	,	23
19,54	,	78968	,	-23963	,	-21636	,	4.3886776	,	16
19,54	,	79000	,	-23969	,	-21626	,	1.0269275	,	9
19,54	,	79016	,	-23972	,	-21629	,	-1.548496	,	4
19,54	,	79048	,	-23982	,	-21630	,	-3.4572487	,	1
19,54	,	79064	,	-23984	,	-21637	,	-4.946067	,	0
19,54	,	79080	,	-23996	,	-21635	,	-6.278594	,	0
19,54	,	79112	,	-23984	,	-21637	,	-7.593621	,	0
19,54	,	79128	,	-24003	,	-21644	,	-8.843126	,	0
19,54	,	79144	,	-23999	,	-21650	,	-9.959348	,	0
19,54	,	79176	,	-24009	,	-21643	,	-10.9537525	,	0
19,54	,	79192	,	-24021	,	-21652	,	-11.892976	,	0
19,54	,	79224	,	-24019	,	-21661	,	-12.886677	,	0
19,54	,	79240	,	-24043	,	-21639	,	-14.02533	,	0
19,54	,	79256	,	-24044	,	-21653	,	-15.415314	,	0
19,54	,	79288	,	-24050	,	-21666	,	-17.10804	,	0
19,54	,	79304	,	-24053	,	-21665	,	-18.928205	,	0
19,54	,	79320	,	-24048	,	-21667	,	-20.519785	,	0
19,54	,	79352	,	-24032	,	-21662	,	-21.391064	,	0
19,54	,	79368	,	-24011	,	-21651	,	-20.902458	,	0
19,54	,	79384	,	-23991	,	-21640	,	-18.407173	,	0
19,54	,	79416	,	-23967	,	-21630	,	-13.490538	,	2
19,54	,	79432	,	-23965	,	-21633	,	-6.214319	,	6
19,54	,	79464	,	-23959	,	-21633	,	2.7053623	,	13
19,54	,	79480	,	-23956	,	-21617	,	12.050346	,	21
19,54	,	79496	,	-23953	,	-21622	,	20.55092	,	30
19,54	,	79528	,	-23957	,	-21620	,	27.202719	,	38
19,54	,	79543	,	-23950	,	-21618	,	31.386875	,	44
19,54	,	79560	,	-23966	,	-21621	,	32.888744	,	48
19,54	,	79592	,	-23957	,	-21619	,	31.809986	,	49
19,54	,	79608	,	-23957	,	-21616	,	28.57563	,	47
19,54	,	79640	,	-23960	,	-21616	,	23.904861	,	43
19,54	,	79656	,	-23958	,	-21617	,	18.561607	,	36
19,54	,	79672	,	-23944	,	-21617	,	13.2616415	,	28
19,54	,	79704	,	-23947	,	-21632	,	8.695456	,	19
19,54	,	79720	,	-23944	,	-21609	,	5.3230963	,	11
19,54	,	79735	,	-23960	,	-21617	,	3.153726	,	5
19,54	,	79767	,	-23975	,	-21620	,	1.7181945	,	1
19,54	,	79784	,	-23973	,	-21614	,	0.33811045	,	0
19,54	,	79800	,	-23965	,	-21622	,	-1.3334645	,	0
19,54	,	79831	,	-23956	,	-21625	,	-3.061855	,	0
19,55	,	79847	,	-23979	,	-21634	,	-4.447245	,	0
19,55	,	79880	,	-23975	,	-21622	,	-5.4395647	,	0
19,55	,	79896	,	-23989	,	-21630	,	-6.2773895	,	0
19,55	,	79912	,	-23995	,	-21627	,	-7.2122474	,	0
19,55	,	79944	,	-23989	,	-21643	,	-8.365418	,	0
19,55	,	79959	,	-23995	,	-21623	,	-9.610937	,	0
19,55	,	79976	,	-24016	,	-21645	,	-10.797844	,	0
19,55	,	80007	,	-24024	,	-21646	,	-12.073104	,	0
19,55	,	80023	,	-24017	,	-21651	,	-13.62666	,	0
19,55	,	80056	,	-24022	,	-21650	,	-15.286377	,	0
19,55	,	80072	,	-24016	,	-21639	,	-16.622145	,	0
19,55	,	80088	,	-24001	,	-21641	,	-17.16266	,	0
19,55	,	80119	,	-23966	,	-21625	,	-16.308475	,	0
19,55	,	80136	,	-23960	,	-21621	,	-13.390451	,	0
19,55	,	80151	,	-23956	,	-21618	,	-8.196422	,	2
19,55	,	80183	,	-23933	,	-21628	,	-1.2187376	,	7
19,55	,	80200	,	-23937	,	-21594	,	6.710365	,	13
19,55	,	80216	,	-23919	,	-21607	,	14.699898	,	20
19,55	,	80247	,	-23929	,	-21610	,	21.884418	,	27
19,55	,	80263	,	-23926	,	-21609	,	27.48219	,	34
19,55	,	80295	,	-23922	,	-21615	,	30.91944	,	39
19,55	,	80311	,	-23918	,	-21601	,	32.05679	,	42
19,55	,	80327	,	-23926	,	-21614	,	31.13299	,	43
19,55	,	80359	,	-23922	,	-21615	,	28.513964	,	41
19,55	,	80376	,	-23928	,	-21615	,	24.628078	,	36
19,55	,	80392	,	-23918	,	-21604	,	19.999393	,	30
19,55	,	80424	,	-23914	,	-21627	,	15.249967	,	23
19,55	,	80439	,	-23923	,	-21596	,	10.944245	,	16
19,55	,	80471	,	-23917	,	-21605	,	7.3640184	,	9
19,55	,	80487	,	-23935	,	-21613	,	4.4934635	,	4
19,55	,	80503	,	-23931	,	-21615	,	2.1203694	,	1
19,55	,	80535	,	-23940	,	-21613	,	-0.0019061565	,	0
19,55	,	80551	,	-23946	,	-21614	,	-2.0351171	,	0
19,55	,	80568	,	-23949	,	-21621	,	-4.0745	,	0
19,55	,	80599	,	-23949	,	-21624	,	-6.100445	,	0
19,55	,	80615	,	-23965	,	-21631	,	-8.015404	,	0
19,55	,	80631	,	-23961	,	-21621	,	-9.787228	,	0
19,55	,	80663	,	-23972	,	-21649	,	-11.407124	,	0
19,55	,	80679	,	-23980	,	-21625	,	-12.865895	,	0
19,55	,	80711	,	-23988	,	-21640	,	-14.232637	,	0
19,55	,	80727	,	-23994	,	-21646	,	-15.595155	,	0
19,55	,	80743	,	-23992	,	-21647	,	-16.924253	,	0
19,55	,	80775	,	-24006	,	-21645	,	-18.076374	,	0
19,55	,	80791	,	-24007	,	-21645	,	-18.9531	,	0
19,55	,	80807	,	-23997	,	-21646	,	-19.466656	,	0
19,56	,	80839	,	-23996	,	-21650	,	-19.35996	,	0
19,56	,	80855	,	-23972	,	-21639	,	-18.246147	,	0
19,56	,	80887	,	-23958	,	-21629	,	-15.704755	,	1
19,56	,	80903	,	-23931	,	-21630	,	-11.367707	,	3
19,56	,	80919	,	-23929	,	-21607	,	-5.1455164	,	7
19,56	,	80951	,	-23924	,	-21618	,	2.5086794	,	13
19,56	,	80967	,	-23917	,	-21618	,	10.653168	,	20
19,56	,	80983	,	-23925	,	-21613	,	18.205002	,	28
19,56	,	81015	,	-23921	,	-21616	,	24.185965	,	35
19,56	,	81031	,	-23928	,	-21608	,	27.902552	,	40
19,56	,	81047	,	-23928	,	-21613	,	29.0722	,	43
19,56	,	81079	,	-23935	,	-21610	,	27.791008	,	43
19,56	,	81095	,	-23929	,	-21609	,	24.474995	,	41
19,56	,	81127	,	-23921	,	-21618	,	19.85007	,	37
19,56	,	81143	,	-23930	,	-21618	,	14.79589	,	31
19,56	,	81159	,	-23923	,	-21604	,	10.018102	,	24
19,56	,	81191	,	-23930	,	-21607	,	5.9217157	,	16
19,56	,	81207	,	-23935	,	-21614	,	2.6429753	,	9
19,56	,	81223	,	-23932	,	-21620	,	0.108933926	,	4
19,56	,	81255	,	-23942	,	-21619	,	-1.8197703	,	1
19,56	,	81271	,	-23944	,	-21626	,	-3.3157911	,	0
19,56	,	81303	,	-23947	,	-21614	,	-4.5715027	,	0
19,56	,	81319	,	-23951	,	-21623	,	-5.7062807	,	0
19,56	,	81335	,	-23955	,	-21613	,	-6.7641993	,	0
19,56	,	81367	,	-23957	,	-21619	,	-7.7490473	,	0
19,56	,	81383	,	-23965	,	-21638	,	-8.652843	,	0
19,56	,	81399	,	-23977	,	-21615	,	-9.54291	,	0
19,56	,	81431	,	-23986	,	-21632	,	-10.595825	,	0
19,56	,	81447	,	-23984	,	-21625	,	-11.934426	,	0
19,56	,	81463	,	-23994	,	-21634	,	-13.471388	,	0
19,56	,	81495	,	-24002	,	-21633	,	-15.033667	,	0
19,56	,	81511	,	-24001	,	-21633	,	-16.494797	,	0
19,56	,	81543	,	-24004	,	-21632	,	-17.691658	,	0
19,56	,	81559	,	-24015	,	-21641	,	-18.464504	,	0
19,56	,	81575	,	-24022	,	-21641	,	-18.837765	,	0
19,56	,	81607	,	-24017	,	-21640	,	-18.932701	,	0
19,56	,	81623	,	-24003	,	-21648	,	-18.652145	,	0
19,56	,	81639	,	-23979	,	-21630	,	-17.532518	,	0
19,56	,	81671	,	-23955	,	-21626	,	-14.886974	,	1
19,56	,	81687	,	-23955	,	-21622	,	-10.230667	,	3
19,56	,	81719	,	-23934	,	-21624	,	-3.6888208	,	7
19,56	,	81735	,	-23937	,	-21620	,	4.0629563	,	13
19,56	,	81751	,	-23952	,	-21617	,	11.960882	,	20
19,56	,	81783	,	-23940	,	-21609	,	18.733028	,	27
19,56	,	81799	,	-23945	,	-21617	,	23.437674	,	33
19,56	,	81815	,	-23955	,	-21615	,	25.692997	,	37
19,57	,	81847	,	-23944	,	-21624	,	25.50026	,	39
19,57	,	81863	,	-23954	,	-21631	,	23.226816	,	38
