Data recorded on Mon Jul 24 13-21-55 CAT 2017
Time: 13:22:1
Time		Millis		IR PPG		Red PPG		Filtered		SSF
22,10	,	19270	,	-24095	,	-21610	,	1.2724588	,	0
22,10	,	19303	,	-24113	,	-21641	,	-2.25797	,	0
22,10	,	19319	,	-24130	,	-21652	,	-6.2804294	,	0
22,10	,	19335	,	-24143	,	-21648	,	-10.854002	,	0
22,10	,	19371	,	-24125	,	-21656	,	-15.77555	,	0
22,10	,	19382	,	-24127	,	-21639	,	-20.31912	,	0
22,10	,	19414	,	-24122	,	-21646	,	-23.563303	,	0
22,10	,	19430	,	-24118	,	-21640	,	-24.900373	,	0
22,10	,	19446	,	-24100	,	-21630	,	-24.090088	,	0
22,10	,	19479	,	-24098	,	-21638	,	-21.118183	,	0
22,10	,	19495	,	-24097	,	-21653	,	-16.285036	,	2
22,10	,	19510	,	-24108	,	-21624	,	-10.345571	,	6
22,10	,	19542	,	-24105	,	-21642	,	-4.340575	,	11
22,10	,	19558	,	-24105	,	-21642	,	0.821249	,	17
22,10	,	19590	,	-24111	,	-21651	,	4.607548	,	22
22,10	,	19606	,	-24116	,	-21652	,	6.787211	,	25
22,10	,	19622	,	-24121	,	-21655	,	7.325096	,	27
22,10	,	19654	,	-24122	,	-21651	,	6.384756	,	27
22,10	,	19671	,	-24118	,	-21652	,	4.3592906	,	27
22,10	,	19687	,	-24115	,	-21651	,	1.8339968	,	25
22,10	,	19719	,	-24113	,	-21652	,	-0.5783007	,	21
22,10	,	19734	,	-24121	,	-21668	,	-2.4574103	,	16
22,10	,	19750	,	-24120	,	-21637	,	-3.6930306	,	10
22,10	,	19782	,	-24137	,	-21647	,	-4.4555106	,	5
22,10	,	19798	,	-24142	,	-21651	,	-5.114711	,	2
22,10	,	19830	,	-24138	,	-21653	,	-5.994298	,	0
22,10	,	19846	,	-24145	,	-21653	,	-7.116207	,	0
22,10	,	19862	,	-24144	,	-21655	,	-8.304111	,	0
22,10	,	19894	,	-24144	,	-21661	,	-9.356001	,	0
22,10	,	19910	,	-24153	,	-21669	,	-10.1098175	,	0
22,10	,	19926	,	-24150	,	-21675	,	-10.528635	,	0
22,10	,	19958	,	-24154	,	-21669	,	-10.649114	,	0
22,10	,	19974	,	-24147	,	-21682	,	-10.461301	,	0
22,10	,	20006	,	-24141	,	-21642	,	-9.865529	,	0
22,10	,	20022	,	-24114	,	-21649	,	-8.600676	,	0
22,10	,	20038	,	-24110	,	-21651	,	-6.2648892	,	1
22,10	,	20070	,	-24111	,	-21644	,	-2.684927	,	3
22,10	,	20086	,	-24106	,	-21639	,	1.7799015	,	6
22,10	,	20102	,	-24111	,	-21646	,	6.4315147	,	10
22,10	,	20134	,	-24109	,	-21641	,	10.54158	,	14
22,10	,	20150	,	-24108	,	-21645	,	13.548324	,	18
22,10	,	20166	,	-24108	,	-21645	,	15.191828	,	21
22,10	,	20198	,	-24113	,	-21641	,	15.4713745	,	22
22,10	,	20214	,	-24114	,	-21661	,	14.5168915	,	22
22,10	,	20246	,	-24109	,	-21623	,	12.581265	,	21
22,10	,	20262	,	-24115	,	-21643	,	10.04718	,	19
22,10	,	20278	,	-24112	,	-21642	,	7.298085	,	16
22,11	,	20310	,	-24120	,	-21640	,	4.6042604	,	12
22,11	,	20326	,	-24126	,	-21643	,	2.0794845	,	8
22,11	,	20342	,	-24117	,	-21647	,	-0.24278188	,	4
22,11	,	20374	,	-24122	,	-21651	,	-2.2383146	,	1
22,11	,	20390	,	-24126	,	-21650	,	-3.7654867	,	0
22,11	,	20422	,	-24123	,	-21652	,	-4.8123403	,	0
22,11	,	20438	,	-24134	,	-21658	,	-5.453948	,	0
22,11	,	20454	,	-24132	,	-21662	,	-5.83121	,	0
22,11	,	20486	,	-24140	,	-21644	,	-6.114911	,	0
22,11	,	20502	,	-24156	,	-21648	,	-6.501507	,	0
22,11	,	20518	,	-24160	,	-21654	,	-7.2639656	,	0
22,11	,	20550	,	-24154	,	-21659	,	-8.528515	,	0
22,11	,	20566	,	-24163	,	-21662	,	-10.078136	,	0
22,11	,	20582	,	-24159	,	-21664	,	-11.557545	,	0
22,11	,	20614	,	-24145	,	-21659	,	-12.593796	,	0
22,11	,	20630	,	-24128	,	-21653	,	-12.675919	,	0
22,11	,	20662	,	-24130	,	-21653	,	-11.318738	,	0
22,11	,	20678	,	-24119	,	-21657	,	-8.428883	,	1
22,11	,	20694	,	-24129	,	-21670	,	-4.3916287	,	3
22,11	,	20726	,	-24121	,	-21643	,	0.099820614	,	7
22,11	,	20742	,	-24117	,	-21655	,	4.358917	,	11
22,11	,	20758	,	-24137	,	-21653	,	7.8570747	,	15
22,11	,	20790	,	-24131	,	-21654	,	10.113147	,	18
22,11	,	20806	,	-24146	,	-21666	,	10.786805	,	20
22,11	,	20838	,	-24136	,	-21664	,	9.873125	,	20
22,11	,	20854	,	-24144	,	-21669	,	7.7096596	,	20
22,11	,	20870	,	-24148	,	-21665	,	4.7900095	,	19
22,11	,	20902	,	-24139	,	-21658	,	1.5886383	,	17
22,11	,	20918	,	-24136	,	-21659	,	-1.3808441	,	13
22,11	,	20934	,	-24141	,	-21680	,	-3.6402605	,	9
22,11	,	20966	,	-24148	,	-21662	,	-5.026675	,	5
22,11	,	20982	,	-24157	,	-21667	,	-5.754417	,	2
22,11	,	20998	,	-24159	,	-21674	,	-6.205694	,	0
22,11	,	21030	,	-24171	,	-21675	,	-6.7165666	,	0
22,11	,	21046	,	-24173	,	-21678	,	-7.509658	,	0
22,11	,	21078	,	-24165	,	-21670	,	-8.59343	,	0
22,11	,	21094	,	-24177	,	-21676	,	-9.72638	,	0
22,11	,	21110	,	-24174	,	-21674	,	-10.662103	,	0
22,11	,	21142	,	-24175	,	-21673	,	-11.270386	,	0
22,11	,	21157	,	-24178	,	-21680	,	-11.45984	,	0
22,11	,	21174	,	-24199	,	-21690	,	-11.313541	,	0
22,11	,	21206	,	-24198	,	-21680	,	-11.183956	,	0
22,11	,	21222	,	-24187	,	-21679	,	-11.313857	,	0
22,11	,	21254	,	-24183	,	-21678	,	-11.479738	,	0
22,11	,	21270	,	-24176	,	-21677	,	-11.206147	,	0
22,12	,	21286	,	-24152	,	-21663	,	-10.039417	,	0
22,12	,	21318	,	-24150	,	-21663	,	-7.600676	,	1
22,12	,	21334	,	-24152	,	-21657	,	-3.848587	,	3
22,12	,	21349	,	-24148	,	-21661	,	0.7289634	,	6
22,12	,	21382	,	-24153	,	-21664	,	5.3705025	,	10
22,12	,	21398	,	-24156	,	-21660	,	9.326122	,	14
22,12	,	21414	,	-24146	,	-21669	,	12.065729	,	17
22,12	,	21446	,	-24152	,	-21668	,	13.4507	,	19
22,12	,	21461	,	-24157	,	-21661	,	13.578694	,	20
22,12	,	21493	,	-24162	,	-21664	,	12.550491	,	20
22,12	,	21510	,	-24168	,	-21658	,	10.483904	,	19
22,12	,	21525	,	-24168	,	-21663	,	7.5900507	,	17
22,12	,	21558	,	-24167	,	-21660	,	4.21734	,	14
22,12	,	21574	,	-24179	,	-21663	,	0.77148294	,	10
22,12	,	21590	,	-24162	,	-21671	,	-2.3983011	,	6
22,12	,	21622	,	-24166	,	-21662	,	-4.92437	,	3
22,12	,	21638	,	-24163	,	-21670	,	-6.478462	,	1
22,12	,	21669	,	-24176	,	-21665	,	-7.027449	,	0
22,12	,	21685	,	-24171	,	-21667	,	-6.849475	,	0
22,12	,	21701	,	-24189	,	-21669	,	-6.3512545	,	0
22,12	,	21734	,	-24181	,	-21663	,	-5.9237947	,	0
22,12	,	21750	,	-24187	,	-21672	,	-5.782196	,	0
22,12	,	21766	,	-24192	,	-21675	,	-5.9435587	,	0
22,12	,	21798	,	-24196	,	-21683	,	-6.388065	,	0
22,12	,	21814	,	-24202	,	-21673	,	-7.1007204	,	0
22,12	,	21845	,	-24213	,	-21685	,	-8.070902	,	0
22,12	,	21861	,	-24209	,	-21681	,	-9.286261	,	0
22,12	,	21877	,	-24191	,	-21677	,	-10.50705	,	0
22,12	,	21910	,	-24184	,	-21670	,	-11.144726	,	0
22,12	,	21926	,	-24189	,	-21666	,	-10.65652	,	0
22,12	,	21942	,	-24174	,	-21661	,	-8.932291	,	0
22,12	,	21974	,	-24175	,	-21647	,	-6.16591	,	1
22,12	,	21990	,	-24174	,	-21660	,	-2.698585	,	3
22,12	,	22006	,	-24155	,	-21661	,	1.0671258	,	6
22,12	,	22037	,	-24169	,	-21658	,	4.806839	,	9
22,12	,	22053	,	-24166	,	-21657	,	8.145421	,	12
22,12	,	22085	,	-24170	,	-21661	,	10.619413	,	15
22,12	,	22101	,	-24173	,	-21661	,	11.910667	,	17
22,12	,	22118	,	-24169	,	-21671	,	11.948656	,	18
22,12	,	22150	,	-24178	,	-21655	,	10.876644	,	18
22,12	,	22166	,	-24175	,	-21658	,	8.954882	,	17
22,12	,	22181	,	-24174	,	-21660	,	6.5172973	,	15
22,12	,	22213	,	-24188	,	-21662	,	3.9003477	,	12
22,12	,	22229	,	-24177	,	-21664	,	1.3129625	,	9
22,12	,	22261	,	-24190	,	-21658	,	-1.1020234	,	6
22,12	,	22277	,	-24186	,	-21661	,	-3.2172174	,	3
22,13	,	22294	,	-24179	,	-21665	,	-4.9030066	,	1
22,13	,	22325	,	-24182	,	-21663	,	-5.9695115	,	0
22,13	,	22341	,	-24193	,	-21668	,	-6.35608	,	0
22,13	,	22357	,	-24189	,	-21679	,	-6.270343	,	0
22,13	,	22389	,	-24201	,	-21660	,	-6.008001	,	0
22,13	,	22405	,	-24215	,	-21677	,	-5.893025	,	0
22,13	,	22421	,	-24212	,	-21672	,	-6.2688427	,	0
22,13	,	22453	,	-24218	,	-21681	,	-7.2511606	,	0
22,13	,	22469	,	-24224	,	-21686	,	-8.676444	,	0
22,13	,	22501	,	-24225	,	-21684	,	-10.305026	,	0
22,13	,	22517	,	-24225	,	-21682	,	-11.87365	,	0
22,13	,	22533	,	-24221	,	-21683	,	-13.071831	,	0
22,13	,	22565	,	-24215	,	-21666	,	-13.579592	,	0
22,13	,	22581	,	-24187	,	-21671	,	-13.022305	,	0
22,13	,	22597	,	-24197	,	-21672	,	-11.0281315	,	0
22,13	,	22629	,	-24179	,	-21653	,	-7.556745	,	1
22,13	,	22645	,	-24186	,	-21661	,	-3.001267	,	4
22,13	,	22677	,	-24190	,	-21660	,	1.9513426	,	8
22,13	,	22693	,	-24193	,	-21667	,	6.4483166	,	12
22,13	,	22709	,	-24186	,	-21666	,	9.801024	,	16
22,13	,	22741	,	-24186	,	-21665	,	11.760674	,	19
22,13	,	22757	,	-24193	,	-21665	,	12.396519	,	20
22,13	,	22773	,	-24191	,	-21673	,	11.869878	,	20
22,13	,	22805	,	-24186	,	-21661	,	10.43819	,	20
22,13	,	22821	,	-24182	,	-21663	,	8.520409	,	19
22,13	,	22837	,	-24180	,	-21682	,	6.5876975	,	16
22,13	,	22869	,	-24199	,	-21655	,	4.898136	,	12
22,13	,	22885	,	-24192	,	-21663	,	3.3646708	,	8
22,13	,	22917	,	-24201	,	-21676	,	1.8095777	,	4
22,13	,	22933	,	-24198	,	-21663	,	0.19782043	,	1
22,13	,	22949	,	-24206	,	-21669	,	-1.4201514	,	0
22,13	,	22981	,	-24196	,	-21668	,	-2.9484088	,	0
22,13	,	22997	,	-24195	,	-21664	,	-4.185521	,	0
22,13	,	23013	,	-24212	,	-21672	,	-4.971913	,	0
22,13	,	23045	,	-24213	,	-21679	,	-5.445691	,	0
22,13	,	23061	,	-24213	,	-21679	,	-5.8813615	,	0
22,13	,	23093	,	-24222	,	-21687	,	-6.408087	,	0
22,13	,	23109	,	-24233	,	-21668	,	-7.1072297	,	0
22,13	,	23125	,	-24231	,	-21688	,	-8.087555	,	0
22,13	,	23157	,	-24237	,	-21674	,	-9.326675	,	0
22,13	,	23173	,	-24250	,	-21680	,	-10.706584	,	0
22,13	,	23189	,	-24252	,	-21686	,	-12.184314	,	0
22,13	,	23221	,	-24241	,	-21686	,	-13.641662	,	0
22,13	,	23237	,	-24236	,	-21681	,	-14.676167	,	0
22,13	,	23253	,	-24219	,	-21682	,	-14.735141	,	0
22,14	,	23285	,	-24209	,	-21676	,	-13.346513	,	0
22,14	,	23301	,	-24206	,	-21669	,	-10.316835	,	1
22,14	,	23333	,	-24204	,	-21686	,	-5.9087634	,	4
22,14	,	23349	,	-24208	,	-21655	,	-0.79479074	,	8
22,14	,	23365	,	-24198	,	-21666	,	4.2314196	,	13
22,14	,	23397	,	-24198	,	-21665	,	8.5703125	,	18
22,14	,	23413	,	-24211	,	-21666	,	11.832593	,	22
22,14	,	23429	,	-24204	,	-21674	,	13.706292	,	25
22,14	,	23461	,	-24216	,	-21672	,	14.047438	,	26
22,14	,	23477	,	-24214	,	-21671	,	12.94661	,	26
22,14	,	23509	,	-24207	,	-21671	,	10.719803	,	25
22,14	,	23525	,	-24212	,	-21675	,	7.8925157	,	22
22,14	,	23541	,	-24205	,	-21671	,	5.012685	,	18
22,14	,	23573	,	-24207	,	-21683	,	2.4988112	,	13
22,14	,	23589	,	-24222	,	-21657	,	0.5281608	,	8
22,14	,	23605	,	-24209	,	-21673	,	-0.9862571	,	4
22,14	,	23637	,	-24216	,	-21670	,	-2.1340451	,	1
22,14	,	23653	,	-24232	,	-21683	,	-2.990115	,	0
22,14	,	23669	,	-24230	,	-21678	,	-3.8089848	,	0
22,14	,	23701	,	-24219	,	-21681	,	-4.756731	,	0
22,14	,	23717	,	-24229	,	-21679	,	-5.6667905	,	0
22,14	,	23749	,	-24223	,	-21675	,	-6.3041706	,	0
22,14	,	23765	,	-24242	,	-21685	,	-6.63634	,	0
22,14	,	23781	,	-24243	,	-21680	,	-6.8717413	,	0
22,14	,	23813	,	-24262	,	-21695	,	-7.350279	,	0
22,14	,	23829	,	-24244	,	-21677	,	-8.273733	,	0
22,14	,	23845	,	-24247	,	-21683	,	-9.440133	,	0
22,14	,	23877	,	-24248	,	-21686	,	-10.390796	,	0
22,14	,	23893	,	-24249	,	-21684	,	-10.812668	,	0
22,14	,	23925	,	-24242	,	-21669	,	-10.600103	,	0
22,14	,	23941	,	-24229	,	-21667	,	-9.658832	,	0
22,14	,	23957	,	-24214	,	-21658	,	-7.7967877	,	0
22,14	,	23989	,	-24208	,	-21659	,	-4.8221083	,	1
22,14	,	24005	,	-24218	,	-21648	,	-0.8585782	,	3
22,14	,	24021	,	-24206	,	-21650	,	3.531329	,	6
22,14	,	24053	,	-24209	,	-21669	,	7.678157	,	10
22,14	,	24069	,	-24193	,	-21638	,	11.154524	,	14
22,14	,	24085	,	-24214	,	-21657	,	13.7484	,	17
22,14	,	24117	,	-24207	,	-21665	,	15.235047	,	19
22,14	,	24133	,	-24223	,	-21658	,	15.370953	,	20
22,14	,	24165	,	-24207	,	-21658	,	14.127518	,	20
22,14	,	24181	,	-24206	,	-21655	,	11.863657	,	19
22,14	,	24197	,	-24207	,	-21658	,	9.183559	,	17
22,14	,	24229	,	-24208	,	-21657	,	6.5714145	,	14
22,14	,	24245	,	-24212	,	-21653	,	4.250287	,	10
22,14	,	24261	,	-24215	,	-21651	,	2.2648993	,	6
22,15	,	24293	,	-24214	,	-21684	,	0.5844388	,	3
22,15	,	24308	,	-24213	,	-21656	,	-0.787114	,	1
22,15	,	24341	,	-24220	,	-21666	,	-1.823141	,	0
22,15	,	24357	,	-24229	,	-21680	,	-2.6229694	,	0
22,15	,	24373	,	-24240	,	-21665	,	-3.4694839	,	0
22,15	,	24405	,	-24226	,	-21677	,	-4.587579	,	0
22,15	,	24421	,	-24230	,	-21669	,	-5.843745	,	0
22,15	,	24437	,	-24230	,	-21677	,	-6.8885474	,	0
22,15	,	24468	,	-24226	,	-21670	,	-7.4796286	,	0
22,15	,	24484	,	-24230	,	-21675	,	-7.524893	,	0
22,15	,	24500	,	-24234	,	-21673	,	-7.0731483	,	0
22,15	,	24533	,	-24247	,	-21693	,	-6.3781786	,	0
22,15	,	24549	,	-24255	,	-21668	,	-5.872369	,	0
22,15	,	24581	,	-24239	,	-21680	,	-5.8666387	,	0
22,15	,	24597	,	-24237	,	-21672	,	-6.197797	,	0
22,15	,	24612	,	-24233	,	-21675	,	-6.387228	,	0
22,15	,	24644	,	-24215	,	-21667	,	-5.989538	,	0
22,15	,	24660	,	-24211	,	-21662	,	-4.6549616	,	0
22,15	,	24676	,	-24203	,	-21661	,	-2.229342	,	1
22,15	,	24709	,	-24195	,	-21653	,	1.142832	,	3
22,15	,	24753	,	-24196	,	-21660	,	5.0995846	,	6
22,15	,	24756	,	-24190	,	-21661	,	9.144304	,	9
22,15	,	24773	,	-24200	,	-21668	,	12.712377	,	13
22,15	,	24788	,	-24198	,	-21653	,	15.260696	,	16
22,15	,	24820	,	-24189	,	-21663	,	16.479155	,	18
22,15	,	24836	,	-24186	,	-21664	,	16.48206	,	19
22,15	,	24852	,	-24195	,	-21658	,	15.598777	,	19
22,15	,	24884	,	-24200	,	-21659	,	14.024405	,	18
22,15	,	24901	,	-24197	,	-21658	,	11.834567	,	16
22,15	,	24917	,	-24194	,	-21652	,	9.220402	,	13
22,15	,	24949	,	-24201	,	-21654	,	6.4945183	,	10
22,15	,	24965	,	-24196	,	-21658	,	3.917829	,	6
22,15	,	24996	,	-24198	,	-21660	,	1.6740499	,	3
22,15	,	25012	,	-24200	,	-21669	,	-0.10671234	,	1
22,15	,	25028	,	-24195	,	-21645	,	-1.3693953	,	0
22,15	,	25060	,	-24202	,	-21657	,	-2.1195889	,	0
22,15	,	25077	,	-24210	,	-21660	,	-2.4907546	,	0
22,15	,	25092	,	-24217	,	-21655	,	-2.790189	,	0
22,15	,	25124	,	-24224	,	-21657	,	-3.354346	,	0
22,15	,	25140	,	-24217	,	-21665	,	-4.333446	,	0
22,15	,	25172	,	-24225	,	-21666	,	-5.6003585	,	0
22,15	,	25189	,	-24209	,	-21663	,	-6.837742	,	0
22,15	,	25204	,	-24218	,	-21671	,	-7.6740856	,	0
22,15	,	25236	,	-24224	,	-21670	,	-7.914299	,	0
22,15	,	25252	,	-24245	,	-21672	,	-7.779816	,	0
22,15	,	25268	,	-24230	,	-21664	,	-7.7134624	,	0
22,16	,	25300	,	-24234	,	-21671	,	-7.879757	,	0
22,16	,	25316	,	-24221	,	-21665	,	-8.040703	,	0
22,16	,	25332	,	-24206	,	-21662	,	-7.754393	,	0
22,16	,	25365	,	-24190	,	-21658	,	-6.499958	,	0
22,16	,	25380	,	-24188	,	-21660	,	-3.9074004	,	1
22,16	,	25412	,	-24196	,	-21652	,	-0.11459732	,	3
22,16	,	25428	,	-24179	,	-21651	,	4.254072	,	6
22,16	,	25444	,	-24168	,	-21649	,	8.61253	,	10
22,16	,	25476	,	-24165	,	-21639	,	12.693434	,	14
22,16	,	25492	,	-24184	,	-21655	,	16.20423	,	18
22,16	,	25509	,	-24167	,	-21635	,	18.65384	,	21
22,16	,	25540	,	-24174	,	-21641	,	19.728725	,	23
22,16	,	25556	,	-24177	,	-21643	,	19.445137	,	24
22,16	,	25588	,	-24172	,	-21644	,	17.966858	,	23
22,16	,	25604	,	-24162	,	-21644	,	15.6467495	,	21
22,16	,	25620	,	-24172	,	-21636	,	12.999017	,	18
22,16	,	25652	,	-24163	,	-21637	,	10.424515	,	14
22,16	,	25668	,	-24159	,	-21644	,	8.1721	,	10
22,16	,	25684	,	-24153	,	-21635	,	6.466563	,	6
22,16	,	25716	,	-24174	,	-21637	,	5.3646374	,	3
22,16	,	25732	,	-24177	,	-21643	,	4.544792	,	1
22,16	,	25764	,	-24178	,	-21638	,	3.5366793	,	0
22,16	,	25780	,	-24178	,	-21635	,	2.1343682	,	0
22,16	,	25796	,	-24180	,	-21636	,	0.43724465	,	0
22,16	,	25828	,	-24177	,	-21638	,	-1.3235332	,	0
22,16	,	25844	,	-24192	,	-21648	,	-2.9522338	,	0
22,16	,	25860	,	-24193	,	-21650	,	-4.442906	,	0
22,16	,	25892	,	-24195	,	-21647	,	-5.8846903	,	0
22,16	,	25908	,	-24200	,	-21653	,	-7.269153	,	0
22,16	,	25940	,	-24199	,	-21648	,	-8.506865	,	0
22,16	,	25956	,	-24219	,	-21653	,	-9.569253	,	0
22,16	,	25972	,	-24216	,	-21645	,	-10.576861	,	0
22,16	,	26004	,	-24223	,	-21649	,	-11.648222	,	0
22,16	,	26020	,	-24213	,	-21653	,	-12.6866455	,	0
22,16	,	26036	,	-24199	,	-21644	,	-13.321726	,	0
22,16	,	26068	,	-24196	,	-21638	,	-13.033052	,	0
22,16	,	26084	,	-24175	,	-21630	,	-11.410048	,	0
22,16	,	26100	,	-24169	,	-21631	,	-8.266658	,	1
22,16	,	26132	,	-24168	,	-21630	,	-3.7330766	,	4
22,16	,	26148	,	-24153	,	-21626	,	1.6935368	,	8
22,16	,	26180	,	-24149	,	-21621	,	7.408227	,	13
22,16	,	26196	,	-24160	,	-21625	,	12.805323	,	18
22,16	,	26212	,	-24152	,	-21622	,	17.20123	,	23
22,16	,	26244	,	-24149	,	-21627	,	20.093586	,	27
22,16	,	26260	,	-24152	,	-21618	,	21.373968	,	29
22,16	,	26276	,	-24155	,	-21625	,	21.142925	,	30
22,17	,	26308	,	-24142	,	-21616	,	19.62898	,	29
22,17	,	26324	,	-24148	,	-21622	,	17.265465	,	26
22,17	,	26356	,	-24152	,	-21619	,	14.497911	,	22
22,17	,	26372	,	-24136	,	-21606	,	11.64714	,	17
22,17	,	26388	,	-24146	,	-21612	,	9.028813	,	12
22,17	,	26420	,	-24143	,	-21622	,	6.8578706	,	7
22,17	,	26436	,	-24160	,	-21624	,	5.069942	,	3
22,17	,	26452	,	-24139	,	-21617	,	3.4816055	,	1
22,17	,	26484	,	-24153	,	-21615	,	2.0690548	,	0
22,17	,	26500	,	-24155	,	-21618	,	0.87594247	,	0
22,17	,	26532	,	-24154	,	-21619	,	-0.17069376	,	0
22,17	,	26548	,	-24149	,	-21621	,	-1.1015449	,	0
22,17	,	26564	,	-24165	,	-21627	,	-1.8788755	,	0
22,17	,	26596	,	-24162	,	-21622	,	-2.5876396	,	0
22,17	,	26612	,	-24162	,	-21624	,	-3.3338437	,	0
22,17	,	26628	,	-24173	,	-21615	,	-4.113829	,	0
22,17	,	26660	,	-24173	,	-21631	,	-4.946955	,	0
22,17	,	26676	,	-24165	,	-21626	,	-5.829253	,	0
22,17	,	26692	,	-24175	,	-21628	,	-6.6074753	,	0
22,17	,	26724	,	-24191	,	-21640	,	-7.2279377	,	0
22,17	,	26740	,	-24189	,	-21637	,	-7.893751	,	0
22,17	,	26772	,	-24188	,	-21632	,	-8.74296	,	0
22,17	,	26788	,	-24168	,	-21626	,	-9.536293	,	0
22,17	,	26804	,	-24161	,	-21619	,	-9.712221	,	0
22,17	,	26836	,	-24163	,	-21623	,	-8.778751	,	0
22,17	,	26852	,	-24151	,	-21617	,	-6.654067	,	0
22,17	,	26868	,	-24142	,	-21618	,	-3.533051	,	2
22,17	,	26900	,	-24136	,	-21618	,	0.34239674	,	5
22,17	,	26916	,	-24132	,	-21598	,	4.652278	,	8
22,17	,	26948	,	-24130	,	-21600	,	8.961777	,	12
22,17	,	26964	,	-24125	,	-21596	,	12.812976	,	16
22,17	,	26980	,	-24124	,	-21601	,	15.846474	,	19
22,17	,	27011	,	-24128	,	-21597	,	17.825535	,	22
22,17	,	27028	,	-24124	,	-21598	,	18.611204	,	23
22,17	,	27044	,	-24116	,	-21599	,	18.261702	,	23
22,17	,	27076	,	-24116	,	-21599	,	17.083733	,	21
22,17	,	27092	,	-24115	,	-21599	,	15.44838	,	18
22,17	,	27108	,	-24112	,	-21601	,	13.631286	,	15
22,17	,	27140	,	-24127	,	-21607	,	11.753032	,	11
22,17	,	27156	,	-24120	,	-21591	,	9.757282	,	7
22,17	,	27188	,	-24123	,	-21598	,	7.595468	,	4
22,17	,	27203	,	-24130	,	-21603	,	5.346617	,	1
22,17	,	27220	,	-24134	,	-21603	,	3.0680785	,	0
22,17	,	27252	,	-24140	,	-21610	,	0.7402425	,	0
22,17	,	27268	,	-24141	,	-21612	,	-1.6346326	,	0
22,18	,	27284	,	-24141	,	-21616	,	-3.951967	,	0
22,18	,	27316	,	-24146	,	-21607	,	-6.0280967	,	0
22,18	,	27332	,	-24149	,	-21615	,	-7.727184	,	0
22,18	,	27363	,	-24150	,	-21609	,	-9.007894	,	0
22,18	,	27379	,	-24147	,	-21615	,	-9.834593	,	0
22,18	,	27395	,	-24144	,	-21599	,	-10.112191	,	0
22,18	,	27428	,	-24156	,	-21614	,	-9.803858	,	0
22,18	,	27443	,	-24165	,	-21614	,	-9.133547	,	0
22,18	,	27460	,	-24167	,	-21620	,	-8.511138	,	0
22,18	,	27491	,	-24177	,	-21621	,	-8.258596	,	0
22,18	,	27508	,	-24172	,	-21620	,	-8.483744	,	0
22,18	,	27524	,	-24171	,	-21621	,	-9.042139	,	0
22,18	,	27556	,	-24142	,	-21612	,	-9.469471	,	0
22,18	,	27572	,	-24148	,	-21616	,	-9.09818	,	0
22,18	,	27603	,	-24135	,	-21606	,	-7.482467	,	0
22,18	,	27619	,	-24118	,	-21605	,	-4.564409	,	1
22,18	,	27635	,	-24117	,	-21582	,	-0.48204756	,	3
22,18	,	27667	,	-24124	,	-21590	,	4.344433	,	7
22,18	,	27683	,	-24112	,	-21594	,	9.177364	,	11
22,18	,	27700	,	-24108	,	-21590	,	13.366981	,	15
22,18	,	27732	,	-24111	,	-21591	,	16.560217	,	19
22,18	,	27748	,	-24112	,	-21591	,	18.53574	,	22
22,18	,	27779	,	-24118	,	-21597	,	19.133762	,	23
22,18	,	27796	,	-24117	,	-21594	,	18.333149	,	23
22,18	,	27811	,	-24124	,	-21589	,	16.28696	,	22
22,18	,	27843	,	-24108	,	-21591	,	13.345588	,	20
22,18	,	27859	,	-24111	,	-21594	,	10.070003	,	16
22,18	,	27875	,	-24111	,	-21570	,	7.0265064	,	12
22,18	,	27908	,	-24121	,	-21589	,	4.487628	,	8
22,18	,	27923	,	-24119	,	-21594	,	2.4196377	,	4
22,18	,	27939	,	-24106	,	-21582	,	0.7722702	,	1
22,18	,	27971	,	-24114	,	-21587	,	-0.34411025	,	0
22,18	,	27987	,	-24114	,	-21587	,	-0.8689815	,	0
22,18	,	28019	,	-24120	,	-21586	,	-0.9700457	,	0
22,18	,	28035	,	-24126	,	-21589	,	-0.95136744	,	0
22,18	,	28051	,	-24131	,	-21586	,	-1.1302276	,	0
22,18	,	28083	,	-24131	,	-21595	,	-1.7082155	,	0
22,18	,	28099	,	-24134	,	-21607	,	-2.681249	,	0
22,18	,	28115	,	-24147	,	-21583	,	-3.9539537	,	0
22,18	,	28147	,	-24142	,	-21603	,	-5.464602	,	0
22,18	,	28163	,	-24144	,	-21600	,	-7.0697055	,	0
22,18	,	28195	,	-24166	,	-21607	,	-8.596454	,	0
22,18	,	28211	,	-24169	,	-21612	,	-10.114923	,	0
22,18	,	28227	,	-24164	,	-21605	,	-11.753818	,	0
22,18	,	28259	,	-24159	,	-21618	,	-13.303932	,	0
22,18	,	28275	,	-24170	,	-21610	,	-14.3623905	,	0
22,19	,	28291	,	-24159	,	-21616	,	-14.692701	,	0
22,19	,	28323	,	-24147	,	-21596	,	-14.154375	,	0
22,19	,	28339	,	-24143	,	-21616	,	-12.549107	,	0
22,19	,	28355	,	-24136	,	-21575	,	-9.798391	,	1
22,19	,	28387	,	-24122	,	-21588	,	-6.037504	,	3
22,19	,	28403	,	-24120	,	-21587	,	-1.5119405	,	6
22,19	,	28435	,	-24119	,	-21579	,	3.386868	,	10
22,19	,	28451	,	-24115	,	-21585	,	8.1081	,	14
22,19	,	28467	,	-24120	,	-21587	,	12.1029	,	18
22,19	,	28499	,	-24125	,	-21596	,	14.911837	,	21
22,19	,	28515	,	-24108	,	-21592	,	16.293814	,	23
22,19	,	28531	,	-24121	,	-21589	,	16.373047	,	24
22,19	,	28563	,	-24118	,	-21589	,	15.420252	,	23
22,19	,	28579	,	-24121	,	-21601	,	13.641877	,	21
22,19	,	28611	,	-24114	,	-21576	,	11.298155	,	18
22,19	,	28628	,	-24116	,	-21585	,	8.754288	,	14
22,19	,	28643	,	-24124	,	-21589	,	6.3089337	,	10
22,19	,	28675	,	-24128	,	-21579	,	4.0390263	,	6
22,19	,	28691	,	-24126	,	-21592	,	1.8970356	,	3
22,19	,	28707	,	-24130	,	-21578	,	-0.100352526	,	1
22,19	,	28739	,	-24135	,	-21583	,	-1.8908805	,	0
22,19	,	28755	,	-24136	,	-21595	,	-3.4573295	,	0
22,19	,	28771	,	-24148	,	-21588	,	-4.84439	,	0
22,19	,	28803	,	-24136	,	-21589	,	-6.0998073	,	0
22,19	,	28819	,	-24142	,	-21601	,	-7.141057	,	0
22,19	,	28851	,	-24140	,	-21578	,	-7.8000193	,	0
22,19	,	28867	,	-24152	,	-21600	,	-8.041611	,	0
22,19	,	28883	,	-24153	,	-21596	,	-8.02993	,	0
22,19	,	28915	,	-24162	,	-21596	,	-8.01191	,	0
22,19	,	28931	,	-24163	,	-21599	,	-8.181517	,	0
22,19	,	28947	,	-24166	,	-21607	,	-8.598726	,	0
22,19	,	28979	,	-24169	,	-21598	,	-9.188456	,	0
22,19	,	28995	,	-24184	,	-21595	,	-9.881345	,	0
22,19	,	29027	,	-24173	,	-21604	,	-10.670893	,	0
22,19	,	29043	,	-24171	,	-21608	,	-11.401634	,	0
22,19	,	29059	,	-24175	,	-21619	,	-11.755295	,	0
22,19	,	29091	,	-24163	,	-21577	,	-11.493338	,	0
22,19	,	29107	,	-24148	,	-21584	,	-10.419445	,	0
22,19	,	29123	,	-24132	,	-21581	,	-8.2425	,	1
22,19	,	29155	,	-24131	,	-21578	,	-4.7690682	,	3
22,19	,	29171	,	-24131	,	-21587	,	-0.22157907	,	6
22,19	,	29187	,	-24141	,	-21587	,	4.6957536	,	10
22,19	,	29219	,	-24138	,	-21586	,	9.070541	,	14
22,19	,	29235	,	-24123	,	-21590	,	12.269037	,	18
22,19	,	29267	,	-24135	,	-21583	,	14.164883	,	21
22,19	,	29283	,	-24135	,	-21586	,	14.828299	,	22
22,20	,	29299	,	-24134	,	-21602	,	14.317944	,	22
22,20	,	29331	,	-24130	,	-21578	,	12.839296	,	21
22,20	,	29347	,	-24145	,	-21590	,	10.704456	,	19
22,20	,	29363	,	-24144	,	-21581	,	8.111349	,	16
22,20	,	29395	,	-24142	,	-21587	,	5.210082	,	12
22,20	,	29411	,	-24153	,	-21589	,	2.2311292	,	8
22,20	,	29443	,	-24141	,	-21591	,	-0.58497906	,	4
22,20	,	29459	,	-24148	,	-21586	,	-2.990835	,	1
22,20	,	29475	,	-24148	,	-21586	,	-4.777082	,	0
22,20	,	29507	,	-24140	,	-21592	,	-5.8505554	,	0
22,20	,	29523	,	-24147	,	-21596	,	-6.1842756	,	0
22,20	,	29539	,	-24165	,	-21600	,	-5.958231	,	0
22,20	,	29571	,	-24161	,	-21592	,	-5.6372695	,	0
22,20	,	29587	,	-24165	,	-21597	,	-5.611679	,	0
22,20	,	29603	,	-24176	,	-21606	,	-5.998478	,	0
22,20	,	29635	,	-24187	,	-21610	,	-6.858655	,	0
22,20	,	29651	,	-24181	,	-21605	,	-8.226283	,	0
22,20	,	29683	,	-24199	,	-21609	,	-9.965105	,	0
22,20	,	29699	,	-24185	,	-21605	,	-11.815846	,	0
22,20	,	29715	,	-24182	,	-21612	,	-13.384892	,	0
22,20	,	29747	,	-24185	,	-21612	,	-14.203152	,	0
22,20	,	29763	,	-24192	,	-21619	,	-14.064045	,	0
22,20	,	29779	,	-24191	,	-21631	,	-13.134236	,	0
22,20	,	29811	,	-24174	,	-21602	,	-11.635693	,	0
22,20	,	29827	,	-24158	,	-21606	,	-9.502693	,	1
22,20	,	29859	,	-24166	,	-21604	,	-6.5332437	,	3
22,20	,	29875	,	-24168	,	-21607	,	-2.8911157	,	5
22,20	,	29891	,	-24154	,	-21600	,	0.90707827	,	8
22,20	,	29923	,	-24152	,	-21605	,	4.470155	,	11
22,20	,	29939	,	-24159	,	-21599	,	7.583293	,	14
22,20	,	29955	,	-24156	,	-21600	,	9.970973	,	17
22,20	,	29987	,	-24156	,	-21598	,	11.391463	,	19
22,20	,	30003	,	-24155	,	-21601	,	11.808569	,	20
22,20	,	30035	,	-24167	,	-21602	,	11.298502	,	19
22,20	,	30051	,	-24160	,	-21601	,	9.945411	,	17
22,20	,	30067	,	-24154	,	-21604	,	7.977932	,	15
22,20	,	30099	,	-24171	,	-21595	,	5.759114	,	12
22,20	,	30115	,	-24167	,	-21596	,	3.4985776	,	9
22,20	,	30131	,	-24172	,	-21602	,	1.2545068	,	6
22,20	,	30163	,	-24179	,	-21603	,	-0.91194296	,	3
22,20	,	30179	,	-24168	,	-21601	,	-2.9173946	,	1
22,20	,	30195	,	-24169	,	-21603	,	-4.5709076	,	0
22,20	,	30227	,	-24184	,	-21600	,	-5.69845	,	0
22,20	,	30243	,	-24160	,	-21607	,	-6.2929554	,	0
22,20	,	30274	,	-24176	,	-21613	,	-6.3346777	,	0
22,21	,	30291	,	-24180	,	-21609	,	-5.8747945	,	0
22,21	,	30307	,	-24186	,	-21608	,	-5.230239	,	0
22,21	,	30339	,	-24189	,	-21609	,	-4.7699013	,	0
22,21	,	30355	,	-24188	,	-21616	,	-4.679329	,	0
22,21	,	30371	,	-24212	,	-21616	,	-5.0307236	,	0
22,21	,	30402	,	-24195	,	-21624	,	-5.8880024	,	0
22,21	,	30418	,	-24209	,	-21619	,	-7.1528597	,	0
22,21	,	30450	,	-24214	,	-21632	,	-8.591749	,	0
22,21	,	30466	,	-24225	,	-21629	,	-10.103964	,	0
22,21	,	30483	,	-24226	,	-21625	,	-11.691065	,	0
22,21	,	30515	,	-24212	,	-21624	,	-13.193579	,	0
22,21	,	30530	,	-24201	,	-21618	,	-14.132571	,	0
22,21	,	30546	,	-24191	,	-21607	,	-13.891623	,	0
22,21	,	30578	,	-24180	,	-21608	,	-12.059841	,	0
22,21	,	30594	,	-24186	,	-21602	,	-8.6486845	,	1
22,21	,	30610	,	-24181	,	-21611	,	-4.153745	,	4
22,21	,	30642	,	-24182	,	-21601	,	0.65998363	,	8
22,21	,	30658	,	-24175	,	-21603	,	5.1077886	,	12
22,21	,	30691	,	-24187	,	-21597	,	8.703541	,	16
22,21	,	30707	,	-24169	,	-21610	,	11.155887	,	19
22,21	,	30722	,	-24171	,	-21612	,	12.479339	,	21
22,21	,	30754	,	-24159	,	-21608	,	12.976625	,	22
22,21	,	30770	,	-24179	,	-21602	,	12.928795	,	22
22,21	,	30787	,	-24166	,	-21601	,	12.37711	,	21
22,21	,	30818	,	-24164	,	-21604	,	11.338552	,	18
22,21	,	30834	,	-24159	,	-21605	,	10.042876	,	14
22,21	,	30866	,	-24175	,	-21605	,	8.716943	,	10
22,21	,	30883	,	-24176	,	-21609	,	7.313131	,	6
22,21	,	30899	,	-24181	,	-21606	,	5.633415	,	3
22,21	,	30930	,	-24186	,	-21609	,	3.5740085	,	1
22,21	,	30946	,	-24186	,	-21619	,	1.1854849	,	0
22,21	,	30962	,	-24188	,	-21619	,	-1.3394005	,	0
22,21	,	30994	,	-24186	,	-21600	,	-3.7087624	,	0
22,21	,	31011	,	-24191	,	-21603	,	-5.652401	,	0
22,21	,	31027	,	-24189	,	-21616	,	-7.022638	,	0
22,21	,	31058	,	-24197	,	-21619	,	-7.8159723	,	0
22,21	,	31074	,	-24201	,	-21625	,	-8.171476	,	0
22,21	,	31106	,	-24201	,	-21619	,	-8.295667	,	0
22,21	,	31122	,	-24202	,	-21617	,	-8.308118	,	0
22,21	,	31138	,	-24221	,	-21618	,	-8.299389	,	0
22,21	,	31170	,	-24214	,	-21619	,	-8.458438	,	0
22,21	,	31187	,	-24208	,	-21624	,	-8.832376	,	0
22,21	,	31202	,	-24213	,	-21638	,	-9.16703	,	0
22,21	,	31234	,	-24216	,	-21618	,	-9.218135	,	0
22,21	,	31250	,	-24199	,	-21617	,	-8.876656	,	0
22,22	,	31282	,	-24182	,	-21619	,	-7.8937488	,	0
22,22	,	31298	,	-24183	,	-21610	,	-5.9105167	,	0
22,22	,	31314	,	-24169	,	-21610	,	-2.8277116	,	1
22,22	,	31346	,	-24164	,	-21597	,	1.138655	,	4
22,22	,	31362	,	-24163	,	-21600	,	5.605585	,	7
22,22	,	31378	,	-24160	,	-21599	,	10.052977	,	11
22,22	,	31410	,	-24172	,	-21602	,	13.870983	,	15
22,22	,	31426	,	-24158	,	-21600	,	16.518545	,	18
22,22	,	31442	,	-24144	,	-21605	,	17.85289	,	20
22,22	,	31474	,	-24149	,	-21589	,	18.201897	,	21
22,22	,	31490	,	-24158	,	-21597	,	17.873905	,	21
22,22	,	31522	,	-24159	,	-21592	,	16.857368	,	20
22,22	,	31538	,	-24159	,	-21594	,	15.080387	,	17
22,22	,	31554	,	-24154	,	-21594	,	12.680246	,	14
22,22	,	31586	,	-24160	,	-21603	,	9.962635	,	10
22,22	,	31602	,	-24168	,	-21596	,	7.168984	,	6
22,22	,	31618	,	-24163	,	-21598	,	4.3944182	,	3
22,22	,	31650	,	-24162	,	-21605	,	1.7757792	,	1
22,22	,	31666	,	-24155	,	-21605	,	-0.4132402	,	0
22,22	,	31698	,	-24167	,	-21616	,	-1.9483042	,	0
22,22	,	31714	,	-24171	,	-21588	,	-2.8839664	,	0
22,22	,	31730	,	-24169	,	-21609	,	-3.4799316	,	0
22,22	,	31762	,	-24179	,	-21606	,	-3.9590862	,	0
22,22	,	31778	,	-24185	,	-21608	,	-4.5050497	,	0
22,22	,	31794	,	-24180	,	-21610	,	-5.2563252	,	0
22,22	,	31826	,	-24174	,	-21600	,	-6.1074286	,	0
22,22	,	31842	,	-24163	,	-21596	,	-6.6771297	,	0
22,22	,	31858	,	-24173	,	-21593	,	-6.5872593	,	0
22,22	,	31890	,	-24176	,	-21600	,	-5.80189	,	0
22,22	,	31906	,	-24164	,	-21593	,	-4.568269	,	0
22,22	,	31938	,	-24178	,	-21608	,	-3.1260352	,	1
22,22	,	31954	,	-24182	,	-21586	,	-1.7562091	,	2
22,22	,	31970	,	-24141	,	-21587	,	-0.6227982	,	3
22,22	,	32002	,	-24139	,	-21576	,	0.66802514	,	4
22,22	,	32018	,	-24132	,	-21576	,	2.7093735	,	5
22,22	,	32034	,	-24126	,	-21573	,	5.6342854	,	7
22,22	,	32066	,	-24134	,	-21573	,	9.081396	,	9
22,22	,	32082	,	-24120	,	-21571	,	12.466088	,	12
22,22	,	32114	,	-24119	,	-21579	,	15.320715	,	15
22,22	,	32130	,	-24102	,	-21566	,	17.49902	,	16
22,22	,	32146	,	-24090	,	-21561	,	19.14851	,	17
22,22	,	32178	,	-24093	,	-21558	,	20.513275	,	17
22,22	,	32194	,	-24087	,	-21530	,	21.640766	,	17
22,22	,	32210	,	-24068	,	-21541	,	22.463116	,	17
22,22	,	32242	,	-24067	,	-21524	,	23.066881	,	15
22,22	,	32258	,	-24057	,	-21531	,	23.58544	,	13
22,22	,	32274	,	-24061	,	-21530	,	23.995903	,	10
22,23	,	32306	,	-24056	,	-21514	,	24.124332	,	7
22,23	,	32322	,	-24057	,	-21520	,	23.763515	,	5
22,23	,	32354	,	-24058	,	-21523	,	22.769985	,	3
22,23	,	32370	,	-24057	,	-21526	,	21.090126	,	2
22,23	,	32386	,	-24068	,	-21525	,	18.742743	,	1
22,23	,	32418	,	-24066	,	-21544	,	15.774528	,	0
22,23	,	32434	,	-24079	,	-21522	,	12.260014	,	0
22,23	,	32450	,	-24093	,	-21537	,	8.250901	,	0
22,23	,	32482	,	-24088	,	-21538	,	3.7893758	,	0
22,23	,	32498	,	-24092	,	-21548	,	-0.8684449	,	0
22,23	,	32530	,	-24106	,	-21547	,	-5.3098507	,	0
22,23	,	32546	,	-24118	,	-21547	,	-9.321194	,	0
22,23	,	32562	,	-24113	,	-21553	,	-12.879589	,	0
22,23	,	32594	,	-24117	,	-21553	,	-15.854321	,	0
22,23	,	32609	,	-24125	,	-21565	,	-18.028809	,	0
22,23	,	32626	,	-24120	,	-21559	,	-19.295704	,	0
22,23	,	32658	,	-24136	,	-21586	,	-19.68724	,	0
22,23	,	32674	,	-24141	,	-21557	,	-19.423374	,	0
22,23	,	32690	,	-24123	,	-21556	,	-18.74844	,	0
22,23	,	32722	,	-24114	,	-21559	,	-17.552685	,	0
22,23	,	32738	,	-24101	,	-21563	,	-15.437401	,	1
22,23	,	32769	,	-24093	,	-21561	,	-12.103654	,	3
22,23	,	32785	,	-24096	,	-21553	,	-7.6100025	,	6
22,23	,	32802	,	-24088	,	-21557	,	-2.4108438	,	10
22,23	,	32834	,	-24086	,	-21545	,	2.8704271	,	15
22,23	,	32850	,	-24095	,	-21551	,	7.6207895	,	20
22,23	,	32866	,	-24084	,	-21549	,	11.29722	,	24
22,23	,	32898	,	-24100	,	-21573	,	13.565041	,	27
22,23	,	32914	,	-24096	,	-21534	,	14.301475	,	29
22,23	,	32945	,	-24080	,	-21541	,	13.650195	,	28
22,23	,	32961	,	-24093	,	-21551	,	12.090401	,	26
22,23	,	32978	,	-24076	,	-21546	,	10.165586	,	23
22,23	,	33010	,	-24088	,	-21551	,	8.278691	,	19
22,23	,	33026	,	-24096	,	-21559	,	6.587182	,	14
22,23	,	33042	,	-24088	,	-21560	,	4.9897685	,	9
22,23	,	33074	,	-24087	,	-21560	,	3.4393625	,	5
22,23	,	33089	,	-24091	,	-21558	,	2.0545573	,	2
22,23	,	33105	,	-24090	,	-21550	,	0.9235711	,	0
22,23	,	33138	,	-24081	,	-21567	,	0.09955633	,	0
22,23	,	33154	,	-24100	,	-21541	,	-0.39359945	,	0
22,23	,	33185	,	-24102	,	-21564	,	-0.75229037	,	0
22,23	,	33202	,	-24103	,	-21566	,	-1.2979882	,	0
22,23	,	33217	,	-24109	,	-21555	,	-2.175303	,	0
22,23	,	33249	,	-24118	,	-21557	,	-3.3875604	,	0
22,23	,	33265	,	-24118	,	-21561	,	-4.9201946	,	0
22,23	,	33281	,	-24118	,	-21567	,	-6.650413	,	0
22,24	,	33314	,	-24128	,	-21573	,	-8.353059	,	0
22,24	,	33330	,	-24131	,	-21565	,	-9.88656	,	0
22,24	,	33362	,	-24118	,	-21572	,	-11.141824	,	0
22,24	,	33378	,	-24135	,	-21594	,	-11.918501	,	0
22,24	,	33394	,	-24137	,	-21570	,	-12.1602955	,	0
22,24	,	33425	,	-24120	,	-21572	,	-11.964941	,	0
22,24	,	33441	,	-24130	,	-21565	,	-11.289003	,	0
22,24	,	33458	,	-24112	,	-21568	,	-10.00923	,	0
22,24	,	33489	,	-24105	,	-21558	,	-8.019644	,	1
22,24	,	33505	,	-24097	,	-21555	,	-5.21703	,	2
22,24	,	33521	,	-24092	,	-21548	,	-1.64816	,	4
22,24	,	33554	,	-24087	,	-21560	,	2.4247677	,	7
22,24	,	33569	,	-24088	,	-21549	,	6.5855627	,	11
22,24	,	33601	,	-24081	,	-21556	,	10.365379	,	15
22,24	,	33617	,	-24088	,	-21562	,	13.364377	,	18
22,24	,	33633	,	-24074	,	-21541	,	15.336451	,	20
22,24	,	33665	,	-24083	,	-21553	,	16.242758	,	21
22,24	,	33682	,	-24097	,	-21551	,	16.083624	,	20
22,24	,	33697	,	-24079	,	-21547	,	14.820044	,	19
22,24	,	33730	,	-24071	,	-21549	,	12.737684	,	17
22,24	,	33745	,	-24085	,	-21551	,	10.42	,	14
22,24	,	33777	,	-24082	,	-21549	,	8.214299	,	10
22,24	,	33793	,	-24078	,	-21552	,	6.1898656	,	6
22,24	,	33809	,	-24085	,	-21543	,	4.403507	,	3
22,24	,	33841	,	-24086	,	-21539	,	2.8688083	,	1
22,24	,	33858	,	-24077	,	-21557	,	1.567399	,	0
22,24	,	33874	,	-24086	,	-21539	,	0.5546918	,	0
22,24	,	33906	,	-24086	,	-21551	,	-0.16160464	,	0
22,24	,	33921	,	-24101	,	-21551	,	-0.7567743	,	0
22,24	,	33953	,	-24103	,	-21553	,	-1.5316132	,	0
22,24	,	33969	,	-24097	,	-21551	,	-2.664864	,	0
22,24	,	33985	,	-24104	,	-21558	,	-4.0283823	,	0
22,24	,	34017	,	-24104	,	-21549	,	-5.36855	,	0
22,24	,	34033	,	-24113	,	-21560	,	-6.543578	,	0
22,24	,	34049	,	-24115	,	-21554	,	-7.5485744	,	0
22,24	,	34081	,	-24112	,	-21561	,	-8.4019985	,	0
22,24	,	34097	,	-24115	,	-21577	,	-9.031378	,	0
22,24	,	34113	,	-24116	,	-21556	,	-9.33333	,	0
22,24	,	34145	,	-24120	,	-21571	,	-9.287768	,	0
22,24	,	34161	,	-24115	,	-21562	,	-8.935141	,	0
22,24	,	34193	,	-24092	,	-21561	,	-8.181221	,	0
22,24	,	34209	,	-24083	,	-21555	,	-6.6681447	,	0
22,24	,	34225	,	-24079	,	-21544	,	-4.060222	,	1
22,24	,	34257	,	-24077	,	-21542	,	-0.4293418	,	3
22,24	,	34273	,	-24073	,	-21536	,	3.75892	,	6
22,25	,	34289	,	-24073	,	-21537	,	7.90754	,	10
22,25	,	34321	,	-24068	,	-21549	,	11.495728	,	14
22,25	,	34337	,	-24075	,	-21554	,	14.143736	,	17
22,25	,	34369	,	-24093	,	-21536	,	15.498725	,	19
22,25	,	34385	,	-24069	,	-21542	,	15.315771	,	20
22,25	,	34401	,	-24062	,	-21544	,	13.883165	,	20
22,25	,	34433	,	-24070	,	-21543	,	11.914841	,	19
22,25	,	34449	,	-24075	,	-21541	,	9.888665	,	17
22,25	,	34465	,	-24063	,	-21543	,	7.9399443	,	14
22,25	,	34497	,	-24063	,	-21538	,	6.2154355	,	10
22,25	,	34513	,	-24079	,	-21540	,	4.8225946	,	6
22,25	,	34529	,	-24070	,	-21544	,	3.629304	,	3
22,25	,	34561	,	-24078	,	-21537	,	2.4587786	,	1
22,25	,	34577	,	-24076	,	-21548	,	1.2634094	,	0
22,25	,	34610	,	-24080	,	-21547	,	0.056801558	,	0
22,25	,	34625	,	-24091	,	-21548	,	-1.1740971	,	0
22,25	,	34641	,	-24093	,	-21550	,	-2.5222473	,	0
22,25	,	34673	,	-24106	,	-21556	,	-4.102224	,	0
22,25	,	34689	,	-24096	,	-21560	,	-5.9180675	,	0
22,25	,	34705	,	-24098	,	-21567	,	-7.7456656	,	0
22,25	,	34737	,	-24097	,	-21554	,	-9.213299	,	0
22,25	,	34753	,	-24109	,	-21569	,	-10.103388	,	0
22,25	,	34785	,	-24116	,	-21560	,	-10.52259	,	0
22,25	,	34801	,	-24111	,	-21555	,	-10.718077	,	0
22,25	,	34817	,	-24121	,	-21571	,	-10.815283	,	0
22,25	,	34849	,	-24109	,	-21557	,	-10.795965	,	0
22,25	,	34865	,	-24098	,	-21554	,	-10.472414	,	0
22,25	,	34881	,	-24090	,	-21546	,	-9.471243	,	0
22,25	,	34913	,	-24078	,	-21539	,	-7.4576464	,	1
22,25	,	34929	,	-24069	,	-21527	,	-4.3140903	,	3
22,25	,	34945	,	-24068	,	-21536	,	-0.1943078	,	6
22,25	,	34977	,	-24059	,	-21533	,	4.4785404	,	10
22,25	,	34993	,	-24047	,	-21530	,	9.219757	,	14
22,25	,	35025	,	-24051	,	-21529	,	13.647373	,	18
22,25	,	35041	,	-24060	,	-21523	,	17.322674	,	22
22,25	,	35057	,	-24056	,	-21518	,	19.707512	,	25
22,25	,	35089	,	-24049	,	-21532	,	20.515192	,	27
22,25	,	35105	,	-24053	,	-21523	,	19.892868	,	26
22,25	,	35121	,	-24054	,	-21521	,	18.171783	,	24
22,25	,	35153	,	-24052	,	-21519	,	15.670558	,	21
22,25	,	35169	,	-24050	,	-21522	,	12.735733	,	17
22,25	,	35201	,	-24049	,	-21513	,	9.74775	,	13
22,25	,	35217	,	-24053	,	-21519	,	7.007794	,	9
22,25	,	35233	,	-24048	,	-21517	,	4.6784315	,	5
22,25	,	35265	,	-24043	,	-21515	,	2.8742218	,	2
22,26	,	35281	,	-24045	,	-21525	,	1.6987388	,	0
22,26	,	35297	,	-24067	,	-21516	,	1.0359588	,	0
22,26	,	35329	,	-24062	,	-21524	,	0.45974433	,	0
22,26	,	35345	,	-24071	,	-21527	,	-0.4332679	,	0
22,26	,	35361	,	-24065	,	-21527	,	-1.7365514	,	0
22,26	,	35393	,	-24080	,	-21524	,	-3.3276243	,	0
22,26	,	35409	,	-24067	,	-21532	,	-5.026908	,	0
22,26	,	35441	,	-24065	,	-21535	,	-6.546633	,	0
22,26	,	35457	,	-24076	,	-21530	,	-7.560643	,	0
22,26	,	35473	,	-24092	,	-21533	,	-8.073499	,	0
22,26	,	35505	,	-24087	,	-21534	,	-8.434154	,	0
22,26	,	35520	,	-24102	,	-21546	,	-8.944444	,	0
22,26	,	35537	,	-24093	,	-21528	,	-9.684964	,	0
22,26	,	35569	,	-24110	,	-21537	,	-10.58103	,	0
22,26	,	35585	,	-24095	,	-21538	,	-11.478085	,	0
22,26	,	35617	,	-24086	,	-21527	,	-12.068487	,	0
22,26	,	35633	,	-24066	,	-21529	,	-11.8118925	,	0
22,26	,	35649	,	-24062	,	-21531	,	-10.164234	,	0
22,26	,	35680	,	-24056	,	-21520	,	-6.950207	,	1
22,26	,	35696	,	-24049	,	-21520	,	-2.4724092	,	4
22,26	,	35713	,	-24041	,	-21518	,	2.7151656	,	8
22,26	,	35745	,	-24039	,	-21518	,	8.027851	,	13
22,26	,	35761	,	-24039	,	-21521	,	12.886221	,	18
22,26	,	35777	,	-24032	,	-21491	,	16.782879	,	22
22,26	,	35808	,	-24034	,	-21518	,	19.419237	,	25
22,26	,	35824	,	-24033	,	-21507	,	20.701096	,	27
22,26	,	35857	,	-24027	,	-21510	,	20.689405	,	28
22,26	,	35873	,	-24019	,	-21507	,	19.660454	,	27
22,26	,	35889	,	-24017	,	-21508	,	18.061237	,	24
22,26	,	35921	,	-24018	,	-21507	,	16.288416	,	20
22,26	,	35937	,	-24012	,	-21507	,	14.559895	,	15
22,26	,	35953	,	-24020	,	-21507	,	12.944421	,	10
22,26	,	35984	,	-24018	,	-21500	,	11.386406	,	6
22,26	,	36000	,	-24027	,	-21522	,	9.751169	,	3
22,26	,	36033	,	-24024	,	-21497	,	7.9227943	,	1
22,26	,	36049	,	-24043	,	-21509	,	5.8172793	,	0
22,26	,	36065	,	-24046	,	-21515	,	3.310536	,	0
22,26	,	36097	,	-24035	,	-21519	,	0.3983121	,	0
22,26	,	36113	,	-24044	,	-21517	,	-2.5907514	,	0
22,26	,	36128	,	-24058	,	-21522	,	-5.299321	,	0
22,26	,	36160	,	-24046	,	-21525	,	-7.616176	,	0
22,26	,	36176	,	-24051	,	-21534	,	-9.429279	,	0
22,26	,	36192	,	-24059	,	-21535	,	-10.58944	,	0
22,26	,	36225	,	-24052	,	-21532	,	-11.104167	,	0
22,26	,	36240	,	-24061	,	-21547	,	-11.064623	,	0
22,26	,	36273	,	-24072	,	-21519	,	-10.653483	,	0
22,27	,	36288	,	-24081	,	-21545	,	-10.24358	,	0
22,27	,	36304	,	-24089	,	-21544	,	-10.234962	,	0
22,27	,	36336	,	-24091	,	-21544	,	-10.828892	,	0
22,27	,	36352	,	-24083	,	-21551	,	-11.89277	,	0
22,27	,	36368	,	-24081	,	-21545	,	-12.962889	,	0
22,27	,	36401	,	-24053	,	-21534	,	-13.378805	,	0
22,27	,	36417	,	-24052	,	-21532	,	-12.461214	,	0
22,27	,	36448	,	-24043	,	-21524	,	-9.852364	,	0
22,27	,	36464	,	-24030	,	-21527	,	-5.692119	,	2
22,27	,	36480	,	-24027	,	-21525	,	-0.40783215	,	6
22,27	,	36512	,	-24021	,	-21500	,	5.4209127	,	11
22,27	,	36528	,	-24007	,	-21515	,	11.170193	,	16
22,27	,	36544	,	-24017	,	-21505	,	16.30947	,	21
22,27	,	36576	,	-23997	,	-21514	,	20.410122	,	26
22,27	,	36592	,	-24015	,	-21510	,	23.18296	,	30
22,27	,	36608	,	-24013	,	-21509	,	24.411366	,	32
22,27	,	36640	,	-24004	,	-21507	,	23.99282	,	33
22,27	,	36656	,	-24012	,	-21513	,	22.157404	,	31
22,27	,	36688	,	-24008	,	-21508	,	19.328526	,	27
22,27	,	36704	,	-24008	,	-21515	,	15.914988	,	22
22,27	,	36720	,	-24013	,	-21526	,	12.295097	,	17
22,27	,	36752	,	-24017	,	-21490	,	8.734963	,	12
22,27	,	36768	,	-24017	,	-21518	,	5.374122	,	7
22,27	,	36784	,	-24015	,	-21514	,	2.3458166	,	3
22,27	,	36816	,	-24022	,	-21514	,	-0.204103	,	1
22,27	,	36832	,	-24029	,	-21521	,	-2.2539427	,	0
22,27	,	36864	,	-24029	,	-21515	,	-3.9294634	,	0
22,27	,	36880	,	-24031	,	-21515	,	-5.3364415	,	0
22,27	,	36896	,	-24030	,	-21521	,	-6.4669385	,	0
22,27	,	36928	,	-24038	,	-21529	,	-7.2813005	,	0
22,27	,	36944	,	-24045	,	-21528	,	-7.8442793	,	0
22,27	,	36960	,	-24045	,	-21540	,	-8.314702	,	0
22,27	,	36992	,	-24055	,	-21512	,	-8.818651	,	0
22,27	,	37008	,	-24058	,	-21535	,	-9.437678	,	0
22,27	,	37040	,	-24054	,	-21531	,	-10.174815	,	0
22,27	,	37056	,	-24066	,	-21538	,	-10.9064865	,	0
22,27	,	37072	,	-24080	,	-21536	,	-11.5959015	,	0
22,27	,	37104	,	-24071	,	-21540	,	-12.354149	,	0
22,27	,	37120	,	-24073	,	-21541	,	-13.125635	,	0
22,27	,	37136	,	-24089	,	-21547	,	-13.715124	,	0
22,27	,	37168	,	-24080	,	-21558	,	-14.073881	,	0
22,27	,	37184	,	-24084	,	-21553	,	-14.188031	,	0
22,27	,	37200	,	-24084	,	-21564	,	-13.952917	,	0
22,27	,	37232	,	-24075	,	-21539	,	-13.2619	,	0
22,27	,	37248	,	-24048	,	-21536	,	-11.886652	,	0
22,28	,	37280	,	-24040	,	-21528	,	-9.385704	,	1
22,28	,	37296	,	-24034	,	-21528	,	-5.463905	,	3
22,28	,	37312	,	-24033	,	-21528	,	-0.3541007	,	6
22,28	,	37344	,	-24037	,	-21523	,	5.230615	,	11
22,28	,	37360	,	-24029	,	-21527	,	10.425001	,	16
22,28	,	37376	,	-24035	,	-21530	,	14.543716	,	21
22,28	,	37408	,	-24030	,	-21534	,	17.20284	,	25
22,28	,	37424	,	-24030	,	-21527	,	18.308353	,	27
22,28	,	37456	,	-24030	,	-21539	,	18.01088	,	28
22,28	,	37472	,	-24036	,	-21518	,	16.56398	,	27
22,28	,	37488	,	-24037	,	-21532	,	14.219707	,	25
22,28	,	37520	,	-24028	,	-21525	,	11.294681	,	22
22,28	,	37536	,	-24023	,	-21529	,	8.267279	,	17
22,28	,	37552	,	-24035	,	-21530	,	5.5994153	,	12
22,28	,	37584	,	-24037	,	-21526	,	3.4298954	,	7
22,28	,	37600	,	-24037	,	-21525	,	1.640161	,	3
22,28	,	37616	,	-24048	,	-21536	,	0.087664366	,	1
22,28	,	37648	,	-24046	,	-21533	,	-1.363705	,	0
22,28	,	37664	,	-24048	,	-21537	,	-2.7883587	,	0
22,28	,	37696	,	-24051	,	-21540	,	-4.138821	,	0
22,28	,	37712	,	-24047	,	-21536	,	-5.3068113	,	0
22,28	,	37728	,	-24064	,	-21539	,	-6.2259192	,	0
22,28	,	37760	,	-24068	,	-21544	,	-7.013167	,	0
22,28	,	37776	,	-24080	,	-21544	,	-7.9317007	,	0
22,28	,	37808	,	-24081	,	-21547	,	-9.17049	,	0
22,28	,	37824	,	-24088	,	-21552	,	-10.727547	,	0
22,28	,	37840	,	-24088	,	-21549	,	-12.433017	,	0
22,28	,	37872	,	-24092	,	-21553	,	-14.029808	,	0
22,28	,	37888	,	-24087	,	-21555	,	-15.23703	,	0
22,28	,	37904	,	-24085	,	-21566	,	-15.775566	,	0
22,28	,	37936	,	-24096	,	-21563	,	-15.49114	,	0
22,28	,	37952	,	-24115	,	-21563	,	-14.604311	,	0
22,28	,	37968	,	-24114	,	-21569	,	-13.67482	,	0
22,28	,	38000	,	-24111	,	-21559	,	-13.1126995	,	0
22,28	,	38016	,	-24106	,	-21566	,	-12.84613	,	0
22,28	,	38048	,	-24094	,	-21557	,	-12.45925	,	0
22,28	,	38064	,	-24097	,	-21559	,	-11.507592	,	0
22,28	,	38080	,	-24083	,	-21554	,	-9.748648	,	0
22,28	,	38112	,	-24082	,	-21552	,	-7.147463	,	1
22,28	,	38127	,	-24068	,	-21545	,	-3.7903872	,	3
22,28	,	38143	,	-24072	,	-21544	,	0.1137619	,	6
22,28	,	38176	,	-24086	,	-21543	,	4.1051545	,	9
22,28	,	38192	,	-24092	,	-21546	,	7.429459	,	12
22,28	,	38224	,	-24083	,	-21555	,	9.427009	,	15
22,28	,	38240	,	-24080	,	-21551	,	9.980154	,	16
22,28	,	38256	,	-24081	,	-21550	,	9.4301605	,	16
22,29	,	38287	,	-24084	,	-21544	,	8.194928	,	16
22,29	,	38304	,	-24089	,	-21542	,	6.55468	,	15
22,29	,	38320	,	-24084	,	-21545	,	4.6807575	,	13
22,29	,	38352	,	-24083	,	-21548	,	2.771417	,	10
22,29	,	38368	,	-24087	,	-21555	,	1.0601397	,	7
22,29	,	38384	,	-24094	,	-21544	,	-0.34779787	,	4
22,29	,	38416	,	-24103	,	-21554	,	-1.5712546	,	1
22,29	,	38432	,	-24095	,	-21552	,	-2.7905445	,	0
22,29	,	38463	,	-24092	,	-21556	,	-3.9636261	,	0
22,29	,	38479	,	-24101	,	-21565	,	-4.877761	,	0
22,29	,	38495	,	-24110	,	-21557	,	-5.497449	,	0
22,29	,	38527	,	-24114	,	-21567	,	-6.035676	,	0
22,29	,	38544	,	-24122	,	-21572	,	-6.73461	,	0
22,29	,	38560	,	-24117	,	-21571	,	-7.68534	,	0
22,29	,	38592	,	-24119	,	-21569	,	-8.748919	,	0
22,29	,	38608	,	-24123	,	-21576	,	-9.671026	,	0
22,29	,	38639	,	-24128	,	-21566	,	-10.30842	,	0
22,29	,	38655	,	-24133	,	-21569	,	-10.683102	,	0
22,29	,	38671	,	-24136	,	-21581	,	-10.89098	,	0
22,29	,	38703	,	-24146	,	-21584	,	-11.0518265	,	0
22,29	,	38719	,	-24158	,	-21585	,	-11.343494	,	0
22,29	,	38736	,	-24153	,	-21586	,	-11.928614	,	0
22,29	,	38768	,	-24167	,	-21594	,	-12.79923	,	0
22,29	,	38783	,	-24159	,	-21583	,	-13.795288	,	0
22,29	,	38815	,	-24165	,	-21594	,	-14.671482	,	0
22,29	,	38831	,	-24148	,	-21586	,	-15.100735	,	0
22,29	,	38847	,	-24132	,	-21579	,	-14.640405	,	0
22,29	,	38879	,	-24133	,	-21572	,	-12.846695	,	0
22,29	,	38895	,	-24126	,	-21564	,	-9.628815	,	1
22,29	,	38912	,	-24120	,	-21563	,	-5.322662	,	4
22,29	,	38944	,	-24125	,	-21572	,	-0.4792776	,	8
22,29	,	38959	,	-24118	,	-21567	,	4.2578273	,	12
22,29	,	38976	,	-24124	,	-21559	,	8.297438	,	16
22,29	,	39007	,	-24119	,	-21558	,	11.22977	,	20
22,29	,	39023	,	-24124	,	-21561	,	12.860426	,	22
22,29	,	39055	,	-24118	,	-21565	,	13.218367	,	23
22,29	,	39071	,	-24115	,	-21571	,	12.547394	,	23
22,29	,	39087	,	-24124	,	-21577	,	11.191086	,	22
22,29	,	39120	,	-24115	,	-21557	,	9.4286785	,	19
22,29	,	39136	,	-24119	,	-21568	,	7.4975915	,	15
22,29	,	39151	,	-24119	,	-21571	,	5.6171837	,	11
22,29	,	39183	,	-24123	,	-21571	,	3.9003038	,	7
22,29	,	39199	,	-24129	,	-21574	,	2.3398747	,	3
22,29	,	39231	,	-24126	,	-21570	,	0.87328553	,	1
22,29	,	39247	,	-24132	,	-21576	,	-0.5283642	,	0
22,29	,	39263	,	-24140	,	-21578	,	-1.8850478	,	0
22,30	,	39295	,	-24141	,	-21580	,	-3.2672672	,	0
22,30	,	39311	,	-24136	,	-21580	,	-4.6651125	,	0
22,30	,	39327	,	-24146	,	-21594	,	-5.92791	,	0
22,30	,	39359	,	-24151	,	-21570	,	-6.970947	,	0
22,30	,	39375	,	-24153	,	-21579	,	-7.863819	,	0
22,30	,	39391	,	-24165	,	-21591	,	-8.713847	,	0
22,30	,	39423	,	-24170	,	-21594	,	-9.63731	,	0
22,30	,	39439	,	-24165	,	-21595	,	-10.682836	,	0
22,30	,	39471	,	-24178	,	-21596	,	-11.74057	,	0
22,30	,	39487	,	-24182	,	-21597	,	-12.707077	,	0
22,30	,	39503	,	-24174	,	-21595	,	-13.527128	,	0
22,30	,	39535	,	-24173	,	-21599	,	-13.993988	,	0
22,30	,	39551	,	-24195	,	-21600	,	-13.928747	,	0
22,30	,	39567	,	-24206	,	-21620	,	-13.583986	,	0
22,30	,	39599	,	-24196	,	-21581	,	-13.417261	,	0
22,30	,	39615	,	-24169	,	-21598	,	-13.383297	,	0
22,30	,	39647	,	-24174	,	-21594	,	-12.838158	,	0
22,30	,	39663	,	-24159	,	-21583	,	-11.191719	,	0
22,30	,	39679	,	-24152	,	-21582	,	-8.270344	,	1
22,30	,	39711	,	-24152	,	-21576	,	-4.233974	,	3
22,30	,	39727	,	-24131	,	-21581	,	0.5367851	,	7
22,30	,	39743	,	-24136	,	-21579	,	5.61637	,	11
22,30	,	39775	,	-24142	,	-21574	,	10.499015	,	16
22,30	,	39791	,	-24145	,	-21580	,	14.493116	,	20
22,30	,	39807	,	-24150	,	-21596	,	16.963133	,	23
22,30	,	39839	,	-24135	,	-21566	,	17.673222	,	25
22,30	,	39855	,	-24143	,	-21578	,	16.878796	,	25
22,30	,	39887	,	-24142	,	-21577	,	15.038766	,	24
22,30	,	39903	,	-24131	,	-21581	,	12.593879	,	22
22,30	,	39919	,	-24140	,	-21586	,	9.999336	,	18
22,30	,	39951	,	-24143	,	-21579	,	7.5699716	,	14
22,30	,	39967	,	-24154	,	-21570	,	5.315572	,	9
22,30	,	39983	,	-24142	,	-21577	,	3.128158	,	5
22,30	,	40015	,	-24156	,	-21585	,	1.0181155	,	2
22,30	,	40031	,	-24156	,	-21580	,	-0.957953	,	0
22,30	,	40063	,	-24155	,	-21603	,	-2.7743914	,	0
22,30	,	40079	,	-24151	,	-21570	,	-4.3125257	,	0
22,30	,	40095	,	-24164	,	-21586	,	-5.432482	,	0
22,30	,	40127	,	-24180	,	-21583	,	-6.2543545	,	0
22,30	,	40143	,	-24185	,	-21593	,	-7.1712685	,	0
22,30	,	40159	,	-24181	,	-21597	,	-8.463153	,	0
22,30	,	40191	,	-24178	,	-21602	,	-9.987338	,	0
22,30	,	40207	,	-24179	,	-21592	,	-11.319731	,	0
22,30	,	40223	,	-24183	,	-21595	,	-12.107159	,	0
22,30	,	40255	,	-24191	,	-21594	,	-12.281113	,	0
22,30	,	40271	,	-24194	,	-21596	,	-12.032548	,	0
22,31	,	40303	,	-24186	,	-21615	,	-11.56477	,	0
22,31	,	40319	,	-24203	,	-21589	,	-10.954765	,	0
22,31	,	40335	,	-24216	,	-21606	,	-10.392498	,	0
22,31	,	40367	,	-24204	,	-21620	,	-10.183591	,	0
22,31	,	40383	,	-24199	,	-21611	,	-10.296631	,	0
22,31	,	40399	,	-24199	,	-21599	,	-10.325995	,	0
22,31	,	40431	,	-24177	,	-21594	,	-9.822596	,	0
22,31	,	40447	,	-24177	,	-21589	,	-8.395758	,	0
22,31	,	40479	,	-24178	,	-21590	,	-5.8974485	,	1
22,31	,	40495	,	-24175	,	-21579	,	-2.6123624	,	3
22,31	,	40511	,	-24152	,	-21578	,	1.0504682	,	6
22,31	,	40543	,	-24170	,	-21587	,	4.8246365	,	9
22,31	,	40559	,	-24160	,	-21570	,	8.365003	,	12
22,31	,	40575	,	-24154	,	-21575	,	11.265734	,	15
22,31	,	40607	,	-24161	,	-21581	,	13.316713	,	17
22,31	,	40623	,	-24156	,	-21582	,	14.4284315	,	19
22,31	,	40639	,	-24160	,	-21577	,	14.566681	,	20
22,31	,	40670	,	-24161	,	-21575	,	13.799406	,	19
22,31	,	40686	,	-24166	,	-21575	,	12.245855	,	17
22,31	,	40719	,	-24171	,	-21583	,	10.033598	,	14
22,31	,	40735	,	-24167	,	-21575	,	7.3347406	,	11
22,31	,	40751	,	-24154	,	-21582	,	4.5014215	,	8
22,31	,	40783	,	-24157	,	-21589	,	2.0589437	,	5
22,31	,	40799	,	-24170	,	-21565	,	0.33739161	,	3
22,31	,	40815	,	-24163	,	-21582	,	-0.75354815	,	1
22,31	,	40846	,	-24173	,	-21581	,	-1.4718499	,	0
22,31	,	40862	,	-24180	,	-21583	,	-2.0645766	,	0
22,31	,	40895	,	-24177	,	-21587	,	-2.756633	,	0
22,31	,	40911	,	-24175	,	-21587	,	-3.5902448	,	0
22,31	,	40927	,	-24178	,	-21591	,	-4.3995004	,	0
22,31	,	40959	,	-24192	,	-21590	,	-5.0805407	,	0
22,31	,	40975	,	-24192	,	-21595	,	-5.753253	,	0
22,31	,	40990	,	-24197	,	-21593	,	-6.5785174	,	0
22,31	,	41022	,	-24189	,	-21606	,	-7.520425	,	0
22,31	,	41038	,	-24202	,	-21588	,	-8.386448	,	0
22,31	,	41070	,	-24204	,	-21594	,	-9.071893	,	0
22,31	,	41087	,	-24227	,	-21602	,	-9.715624	,	0
22,31	,	41103	,	-24219	,	-21601	,	-10.5848255	,	0
22,31	,	41135	,	-24214	,	-21608	,	-11.7019615	,	0
22,31	,	41151	,	-24233	,	-21602	,	-12.786721	,	0
22,31	,	41167	,	-24234	,	-21617	,	-13.685948	,	0
22,31	,	41198	,	-24215	,	-21612	,	-14.3451805	,	0
22,31	,	41214	,	-24212	,	-21600	,	-14.424009	,	0
22,31	,	41230	,	-24205	,	-21600	,	-13.473417	,	0
22,31	,	41263	,	-24201	,	-21607	,	-11.322853	,	0
22,31	,	41279	,	-24193	,	-21589	,	-8.104405	,	2
22,32	,	41311	,	-24176	,	-21580	,	-4.051163	,	5
22,32	,	41326	,	-24179	,	-21589	,	0.5992632	,	9
22,32	,	41342	,	-24182	,	-21589	,	5.4368715	,	13
22,32	,	41374	,	-24178	,	-21584	,	9.837999	,	17
22,32	,	41390	,	-24179	,	-21586	,	13.249895	,	21
22,32	,	41406	,	-24180	,	-21587	,	15.3666115	,	24
22,32	,	41439	,	-24188	,	-21589	,	16.06413	,	26
22,32	,	41455	,	-24179	,	-21596	,	15.385111	,	26
22,32	,	41486	,	-24169	,	-21594	,	13.675985	,	24
22,32	,	41502	,	-24182	,	-21592	,	11.491756	,	21
22,32	,	41518	,	-24188	,	-21587	,	9.170546	,	17
22,32	,	41550	,	-24177	,	-21584	,	6.7840877	,	13
22,32	,	41566	,	-24171	,	-21590	,	4.52522	,	9
22,32	,	41582	,	-24191	,	-21585	,	2.6605916	,	5
22,32	,	41614	,	-24178	,	-21587	,	1.1966894	,	2
22,32	,	41631	,	-24185	,	-21589	,	0.019768	,	0
22,32	,	41647	,	-24185	,	-21590	,	-0.9025303	,	0
22,32	,	41678	,	-24190	,	-21593	,	-1.624394	,	0
22,32	,	41694	,	-24194	,	-21590	,	-2.2659874	,	0
22,32	,	41726	,	-24216	,	-21600	,	-3.0458674	,	0
22,32	,	41742	,	-24211	,	-21585	,	-4.2641296	,	0
22,32	,	41758	,	-24203	,	-21591	,	-5.959519	,	0
22,32	,	41790	,	-24215	,	-21599	,	-7.771975	,	0
22,32	,	41806	,	-24219	,	-21605	,	-9.361415	,	0
22,32	,	41822	,	-24213	,	-21601	,	-10.600065	,	0
22,32	,	41854	,	-24225	,	-21608	,	-11.406834	,	0
22,32	,	41870	,	-24226	,	-21606	,	-11.790812	,	0
22,32	,	41902	,	-24231	,	-21611	,	-11.889053	,	0
22,32	,	41919	,	-24234	,	-21607	,	-11.832897	,	0
22,32	,	41934	,	-24234	,	-21611	,	-11.685003	,	0
22,32	,	41966	,	-24228	,	-21611	,	-11.406069	,	0
22,32	,	41982	,	-24221	,	-21594	,	-10.8162	,	0
22,32	,	41998	,	-24212	,	-21601	,	-9.651899	,	0
22,32	,	42030	,	-24206	,	-21597	,	-7.7036257	,	1
22,32	,	42046	,	-24205	,	-21593	,	-4.954957	,	2
22,32	,	42062	,	-24185	,	-21588	,	-1.5555844	,	4
22,32	,	42094	,	-24184	,	-21585	,	2.335058	,	7
22,32	,	42110	,	-24193	,	-21592	,	6.4339356	,	10
22,32	,	42142	,	-24189	,	-21587	,	10.172723	,	14
22,32	,	42158	,	-24184	,	-21584	,	12.998185	,	17
22,32	,	42174	,	-24199	,	-21585	,	14.626356	,	19
22,32	,	42206	,	-24204	,	-21592	,	14.873137	,	20
22,32	,	42222	,	-24209	,	-21586	,	13.610663	,	19
22,32	,	42238	,	-24199	,	-21591	,	11.008296	,	18
22,32	,	42270	,	-24201	,	-21586	,	7.6237874	,	16
22,33	,	42286	,	-24196	,	-21588	,	4.1690874	,	13
22,33	,	42318	,	-24191	,	-21594	,	1.2460284	,	10
22,33	,	42334	,	-24199	,	-21583	,	-0.78667665	,	6
22,33	,	42350	,	-24199	,	-21585	,	-1.9060417	,	3
22,33	,	42382	,	-24199	,	-21586	,	-2.3328507	,	1
22,33	,	42398	,	-24204	,	-21587	,	-2.331976	,	0
22,33	,	42414	,	-24195	,	-21585	,	-2.1137598	,	0
22,33	,	42446	,	-24193	,	-21607	,	-1.7478623	,	0
22,33	,	42462	,	-24192	,	-21576	,	-1.1884217	,	0
22,33	,	42478	,	-24202	,	-21592	,	-0.47489578	,	0
22,33	,	42510	,	-24206	,	-21595	,	0.15725702	,	0
22,33	,	42526	,	-24206	,	-21591	,	0.42161304	,	0
22,33	,	42558	,	-24208	,	-21593	,	0.19227156	,	0
22,33	,	42574	,	-24213	,	-21591	,	-0.48744747	,	0
22,33	,	42590	,	-24216	,	-21598	,	-1.5235698	,	0
22,33	,	42622	,	-24229	,	-21605	,	-2.859391	,	0
22,33	,	42638	,	-24232	,	-21609	,	-4.506589	,	0
22,33	,	42654	,	-24213	,	-21594	,	-6.3416286	,	0
22,33	,	42686	,	-24209	,	-21603	,	-7.869677	,	0
22,33	,	42702	,	-24210	,	-21582	,	-8.503558	,	0
22,33	,	42734	,	-24186	,	-21581	,	-7.91794	,	0
22,33	,	42750	,	-24188	,	-21583	,	-5.983477	,	0
22,33	,	42766	,	-24171	,	-21582	,	-2.7461667	,	1
22,33	,	42798	,	-24179	,	-21575	,	1.467258	,	4
22,33	,	42814	,	-24174	,	-21580	,	6.053082	,	8
22,33	,	42830	,	-24170	,	-21574	,	10.316017	,	12
22,33	,	42862	,	-24173	,	-21580	,	13.725753	,	16
22,33	,	42878	,	-24181	,	-21577	,	15.919621	,	19
22,33	,	42894	,	-24171	,	-21582	,	16.68272	,	21
22,33	,	42926	,	-24173	,	-21593	,	16.104734	,	21
22,33	,	42942	,	-24174	,	-21571	,	14.524293	,	21
22,33	,	42974	,	-24175	,	-21588	,	12.298074	,	20
22,33	,	42990	,	-24182	,	-21575	,	9.698374	,	17
22,33	,	43006	,	-24177	,	-21571	,	6.9283996	,	13
22,33	,	43038	,	-24185	,	-21577	,	4.1808553	,	9
22,33	,	43054	,	-24184	,	-21575	,	1.62715	,	5
22,33	,	43070	,	-24183	,	-21575	,	-0.60433435	,	2
22,33	,	43102	,	-24179	,	-21580	,	-2.3696444	,	0
22,33	,	43118	,	-24175	,	-21578	,	-3.5036898	,	0
22,33	,	43150	,	-24190	,	-21580	,	-3.9621184	,	0
22,33	,	43166	,	-24193	,	-21596	,	-3.9808865	,	0
22,33	,	43182	,	-24192	,	-21569	,	-3.9299054	,	0
22,33	,	43214	,	-24203	,	-21591	,	-4.054911	,	0
22,33	,	43229	,	-24207	,	-21584	,	-4.501218	,	0
22,33	,	43246	,	-24210	,	-21590	,	-5.352419	,	0
22,33	,	43278	,	-24217	,	-21585	,	-6.5713525	,	0
22,34	,	43294	,	-24211	,	-21592	,	-7.999032	,	0
22,34	,	43310	,	-24198	,	-21590	,	-9.282736	,	0
22,34	,	43342	,	-24192	,	-21574	,	-9.876947	,	0
22,34	,	43358	,	-24174	,	-21573	,	-9.264769	,	0
22,34	,	43389	,	-24178	,	-21565	,	-7.1920915	,	0
22,34	,	43405	,	-24176	,	-21575	,	-3.8484592	,	2
22,34	,	43421	,	-24160	,	-21554	,	0.2458806	,	5
22,34	,	43453	,	-24147	,	-21560	,	4.6706333	,	9
22,34	,	43469	,	-24156	,	-21561	,	9.162693	,	13
22,34	,	43486	,	-24160	,	-21557	,	13.263619	,	17
22,34	,	43518	,	-24162	,	-21551	,	16.315973	,	21
22,34	,	43534	,	-24144	,	-21560	,	17.922739	,	24
22,34	,	43566	,	-24148	,	-21556	,	18.21603	,	25
22,34	,	43582	,	-24135	,	-21558	,	17.631262	,	25
22,34	,	43598	,	-24149	,	-21553	,	16.557486	,	23
22,34	,	43630	,	-24139	,	-21555	,	15.177116	,	20
22,34	,	43645	,	-24136	,	-21575	,	13.588281	,	16
22,34	,	43661	,	-24137	,	-21529	,	11.953174	,	12
22,34	,	43693	,	-24138	,	-21548	,	10.39462	,	8
22,34	,	43710	,	-24132	,	-21552	,	8.95377	,	4
22,34	,	43726	,	-24142	,	-21547	,	7.649536	,	1
22,34	,	43758	,	-24148	,	-21546	,	6.382021	,	0
22,34	,	43774	,	-24139	,	-21552	,	4.9796896	,	0
22,34	,	43805	,	-24145	,	-21544	,	3.4391952	,	0
22,34	,	43822	,	-24146	,	-21550	,	1.8947062	,	0
22,34	,	43838	,	-24155	,	-21551	,	0.41136503	,	0
22,34	,	43869	,	-24150	,	-21558	,	-1.0254745	,	0
22,34	,	43886	,	-24168	,	-21566	,	-2.453251	,	0
22,34	,	43902	,	-24159	,	-21541	,	-3.931974	,	0
22,34	,	43934	,	-24160	,	-21553	,	-5.409774	,	0
22,34	,	43950	,	-24139	,	-21550	,	-6.5583696	,	0
22,34	,	43982	,	-24140	,	-21547	,	-6.881903	,	0
22,34	,	43997	,	-24112	,	-21535	,	-5.945247	,	0
22,34	,	44013	,	-24098	,	-21533	,	-3.4204104	,	0
22,34	,	44045	,	-24097	,	-21521	,	0.7828715	,	2
22,34	,	44061	,	-24091	,	-21526	,	6.2358885	,	6
22,34	,	44078	,	-24072	,	-21525	,	12.1772585	,	11
22,34	,	44110	,	-24073	,	-21520	,	17.954952	,	16
22,34	,	44126	,	-24073	,	-21533	,	23.020767	,	21
22,34	,	44157	,	-24071	,	-21506	,	26.81096	,	26
22,34	,	44173	,	-24064	,	-21513	,	28.942068	,	29
22,34	,	44189	,	-24070	,	-21518	,	29.346996	,	31
22,34	,	44221	,	-24068	,	-21513	,	28.151703	,	31
22,34	,	44237	,	-24051	,	-21513	,	25.68755	,	29
22,34	,	44253	,	-24046	,	-21504	,	22.5984	,	25
22,35	,	44286	,	-24046	,	-21503	,	19.577692	,	20
22,35	,	44301	,	-24057	,	-21507	,	16.943012	,	15
22,35	,	44317	,	-24055	,	-21506	,	14.587646	,	10
22,35	,	44349	,	-24054	,	-21514	,	12.3003845	,	5
22,35	,	44365	,	-24049	,	-21515	,	10.042367	,	2
22,35	,	44397	,	-24058	,	-21494	,	7.9090276	,	0
22,35	,	44413	,	-24049	,	-21504	,	5.97536	,	0
22,35	,	44429	,	-24059	,	-21508	,	4.2756824	,	0
22,35	,	44462	,	-24061	,	-21506	,	2.7813878	,	0
22,35	,	44478	,	-24066	,	-21512	,	1.3703532	,	0
22,35	,	44493	,	-24078	,	-21512	,	-0.12439561	,	0
22,35	,	44525	,	-24073	,	-21520	,	-1.8327671	,	0
22,35	,	44541	,	-24084	,	-21516	,	-3.7411842	,	0
22,35	,	44573	,	-24074	,	-21519	,	-5.6773205	,	0
22,35	,	44589	,	-24069	,	-21521	,	-7.3241076	,	0
22,35	,	44605	,	-24056	,	-21520	,	-8.2365265	,	0
22,35	,	44637	,	-24038	,	-21498	,	-7.935834	,	0
22,35	,	44653	,	-24020	,	-21489	,	-5.9936633	,	0
22,35	,	44669	,	-24013	,	-21493	,	-2.2165082	,	1
22,35	,	44701	,	-24008	,	-21485	,	3.1124544	,	4
22,35	,	44717	,	-23989	,	-21483	,	9.331476	,	9
22,35	,	44733	,	-23997	,	-21478	,	15.699749	,	15
22,35	,	44765	,	-23979	,	-21475	,	21.50636	,	21
22,35	,	44781	,	-23976	,	-21480	,	26.20855	,	26
22,35	,	44813	,	-23981	,	-21477	,	29.499878	,	30
22,35	,	44829	,	-23975	,	-21475	,	31.161505	,	33
22,35	,	44846	,	-23978	,	-21477	,	31.10178	,	34
22,35	,	44877	,	-23983	,	-21470	,	29.422737	,	33
22,35	,	44893	,	-23974	,	-21469	,	26.380371	,	30
22,35	,	44909	,	-23971	,	-21468	,	22.45084	,	25
22,35	,	44941	,	-23968	,	-21461	,	18.261414	,	19
22,35	,	44957	,	-23974	,	-21473	,	14.311875	,	13
22,35	,	44989	,	-23978	,	-21470	,	10.80003	,	8
22,35	,	45005	,	-23982	,	-21470	,	7.687089	,	4
22,35	,	45021	,	-23979	,	-21478	,	4.8962994	,	1
22,35	,	45053	,	-23973	,	-21473	,	2.4779134	,	0
22,35	,	45069	,	-23979	,	-21469	,	0.58005595	,	0
22,35	,	45085	,	-23985	,	-21481	,	-0.7638862	,	0
22,35	,	45117	,	-23973	,	-21467	,	-1.6579239	,	0
22,35	,	45133	,	-24008	,	-21481	,	-2.2850647	,	0
22,35	,	45149	,	-23999	,	-21480	,	-3.0217745	,	0
22,35	,	45181	,	-24001	,	-21490	,	-4.1820126	,	0
22,35	,	45197	,	-24010	,	-21489	,	-5.7079983	,	0
22,35	,	45229	,	-24004	,	-21491	,	-7.3667755	,	0
22,35	,	45245	,	-24014	,	-21487	,	-8.91959	,	0
22,35	,	45261	,	-24021	,	-21490	,	-10.215019	,	0
22,36	,	45293	,	-24004	,	-21487	,	-11.183006	,	0
22,36	,	45309	,	-23980	,	-21477	,	-11.488365	,	0
22,36	,	45325	,	-23965	,	-21473	,	-10.44783	,	0
22,36	,	45357	,	-23960	,	-21465	,	-7.532	,	1
22,36	,	45373	,	-23947	,	-21465	,	-2.7882848	,	3
22,36	,	45405	,	-23940	,	-21451	,	3.2563667	,	7
22,36	,	45421	,	-23940	,	-21461	,	9.838157	,	13
22,36	,	45437	,	-23940	,	-21458	,	16.0665	,	19
22,36	,	45469	,	-23937	,	-21459	,	21.10335	,	25
22,36	,	45485	,	-23945	,	-21455	,	24.364353	,	30
22,36	,	45501	,	-23948	,	-21455	,	25.538048	,	33
22,36	,	45533	,	-23942	,	-21454	,	24.619606	,	34
22,36	,	45549	,	-23940	,	-21459	,	22.008774	,	33
22,36	,	45565	,	-23932	,	-21448	,	18.411434	,	31
22,36	,	45597	,	-23931	,	-21451	,	14.591915	,	27
22,36	,	45613	,	-23933	,	-21456	,	11.131336	,	21
22,36	,	45645	,	-23931	,	-21456	,	8.302154	,	15
22,36	,	45661	,	-23940	,	-21460	,	6.1108904	,	9
22,36	,	45677	,	-23941	,	-21461	,	4.381016	,	4
22,36	,	45709	,	-23946	,	-21460	,	2.8693545	,	1
22,36	,	45725	,	-23943	,	-21457	,	1.4180479	,	0
22,36	,	45741	,	-23943	,	-21463	,	0.030844927	,	0
22,36	,	45773	,	-23952	,	-21460	,	-1.2211363	,	0
22,36	,	45789	,	-23957	,	-21475	,	-2.376583	,	0
22,36	,	45821	,	-23968	,	-21462	,	-3.603701	,	0
22,36	,	45837	,	-23975	,	-21473	,	-5.0936155	,	0
22,36	,	45853	,	-23976	,	-21474	,	-6.931856	,	0
22,36	,	45885	,	-23998	,	-21486	,	-9.083856	,	0
22,36	,	45901	,	-23983	,	-21478	,	-11.451511	,	0
22,36	,	45917	,	-23987	,	-21483	,	-13.731248	,	0
22,36	,	45949	,	-23997	,	-21487	,	-15.496414	,	0
22,36	,	45965	,	-24009	,	-21489	,	-16.61516	,	0
22,36	,	45997	,	-24007	,	-21504	,	-17.26631	,	0
22,36	,	46013	,	-24005	,	-21494	,	-17.569324	,	0
22,36	,	46029	,	-23999	,	-21504	,	-17.412067	,	0
22,36	,	46061	,	-23980	,	-21478	,	-16.496344	,	0
22,36	,	46076	,	-23956	,	-21474	,	-14.352678	,	0
22,36	,	46093	,	-23949	,	-21480	,	-10.515654	,	2
22,36	,	46125	,	-23946	,	-21467	,	-4.9604654	,	5
22,36	,	46141	,	-23940	,	-21473	,	1.7232924	,	10
22,36	,	46156	,	-23945	,	-21464	,	8.596661	,	16
22,36	,	46189	,	-23955	,	-21477	,	14.628368	,	22
22,36	,	46205	,	-23948	,	-21476	,	18.919636	,	28
22,36	,	46237	,	-23949	,	-21468	,	21.032822	,	32
22,36	,	46253	,	-23951	,	-21484	,	21.055567	,	34
22,36	,	46269	,	-23951	,	-21493	,	19.362045	,	34
22,37	,	46300	,	-23946	,	-21463	,	16.472607	,	32
22,37	,	46316	,	-23956	,	-21465	,	12.960538	,	29
22,37	,	46332	,	-23951	,	-21464	,	9.282966	,	24
22,37	,	46364	,	-23950	,	-21465	,	5.7808332	,	18
22,37	,	46381	,	-23948	,	-21466	,	2.7673702	,	12
22,37	,	46413	,	-23955	,	-21473	,	0.44431686	,	6
22,37	,	46429	,	-23964	,	-21475	,	-1.2350874	,	2
22,37	,	46445	,	-23966	,	-21475	,	-2.5307088	,	0
22,37	,	46477	,	-23975	,	-21470	,	-3.7275665	,	0
22,37	,	46493	,	-23970	,	-21472	,	-4.979052	,	0
22,37	,	46508	,	-23967	,	-21485	,	-6.208798	,	0
22,37	,	46540	,	-23975	,	-21462	,	-7.190928	,	0
22,37	,	46556	,	-24002	,	-21486	,	-7.937063	,	0
22,37	,	46572	,	-23989	,	-21491	,	-8.790019	,	0
22,37	,	46605	,	-23989	,	-21491	,	-9.8969755	,	0
22,37	,	46621	,	-24002	,	-21494	,	-11.035221	,	0
22,37	,	46652	,	-24014	,	-21496	,	-12.084368	,	0
22,37	,	46668	,	-24016	,	-21496	,	-13.168928	,	0
22,37	,	46684	,	-24027	,	-21501	,	-14.390714	,	0
22,37	,	46716	,	-24024	,	-21507	,	-15.707045	,	0
22,37	,	46732	,	-24027	,	-21513	,	-16.925777	,	0
22,37	,	46748	,	-24029	,	-21526	,	-17.775808	,	0
22,37	,	46780	,	-24035	,	-21497	,	-18.08302	,	0
22,37	,	46797	,	-24032	,	-21501	,	-17.82311	,	0
22,37	,	46828	,	-24011	,	-21498	,	-16.914875	,	0
22,37	,	46844	,	-23994	,	-21498	,	-15.008924	,	0
22,37	,	46860	,	-23983	,	-21487	,	-11.6644535	,	1
22,37	,	46892	,	-23993	,	-21490	,	-6.8467484	,	4
22,37	,	46908	,	-23993	,	-21487	,	-1.1880007	,	8
22,37	,	46924	,	-23994	,	-21493	,	4.324945	,	13
22,37	,	46956	,	-23997	,	-21494	,	8.836229	,	18
22,37	,	46973	,	-23987	,	-21498	,	11.873324	,	22
22,37	,	46989	,	-23987	,	-21510	,	13.417385	,	25
22,37	,	47020	,	-24004	,	-21479	,	13.659655	,	26
22,37	,	47036	,	-24007	,	-21504	,	12.653271	,	26
22,37	,	47068	,	-24000	,	-21494	,	10.467367	,	25
22,37	,	47084	,	-24006	,	-21496	,	7.481533	,	22
22,37	,	47100	,	-24011	,	-21514	,	4.1930385	,	18
22,37	,	47132	,	-24018	,	-21512	,	0.91915846	,	13
22,37	,	47149	,	-24007	,	-21512	,	-2.131452	,	8
22,37	,	47164	,	-24024	,	-21522	,	-4.73839	,	4
22,37	,	47196	,	-24009	,	-21518	,	-6.7502265	,	1
22,37	,	47212	,	-24020	,	-21522	,	-8.083835	,	0
22,37	,	47244	,	-24020	,	-21538	,	-8.724627	,	0
22,37	,	47260	,	-24031	,	-21511	,	-8.837464	,	0
22,37	,	47276	,	-24037	,	-21535	,	-8.748103	,	0
22,38	,	47308	,	-24036	,	-21538	,	-8.763028	,	0
22,38	,	47324	,	-24047	,	-21542	,	-9.021307	,	0
22,38	,	47340	,	-24040	,	-21543	,	-9.505396	,	0
22,38	,	47372	,	-24067	,	-21539	,	-10.172493	,	0
22,38	,	47388	,	-24060	,	-21550	,	-11.0869255	,	0
22,38	,	47404	,	-24069	,	-21549	,	-12.2898	,	0
22,38	,	47436	,	-24079	,	-21555	,	-13.675079	,	0
22,38	,	47452	,	-24069	,	-21552	,	-15.073097	,	0
22,38	,	47484	,	-24089	,	-21578	,	-16.27348	,	0
22,38	,	47500	,	-24087	,	-21550	,	-17.158007	,	0
22,38	,	47516	,	-24081	,	-21558	,	-17.688921	,	0
22,38	,	47548	,	-24069	,	-21549	,	-17.634886	,	0
22,38	,	47564	,	-24068	,	-21555	,	-16.627731	,	0
22,38	,	47580	,	-24071	,	-21561	,	-14.523764	,	1
22,38	,	47612	,	-24059	,	-21554	,	-11.518192	,	3
22,38	,	47628	,	-24056	,	-21552	,	-7.902911	,	6
22,38	,	47660	,	-24054	,	-21548	,	-3.942966	,	9
22,38	,	47676	,	-24058	,	-21553	,	0.0060367584	,	12
22,38	,	47692	,	-24063	,	-21549	,	3.4719753	,	15
22,38	,	47724	,	-24073	,	-21562	,	5.9646974	,	18
22,38	,	47740	,	-24060	,	-21537	,	7.1735144	,	20
22,38	,	47756	,	-24068	,	-21554	,	7.1617556	,	21
22,38	,	47788	,	-24084	,	-21556	,	6.1643734	,	20
22,38	,	47804	,	-24067	,	-21551	,	4.355606	,	18
22,38	,	47820	,	-24073	,	-21556	,	2.0648935	,	15
22,38	,	47852	,	-24078	,	-21557	,	-0.24199414	,	12
22,38	,	47868	,	-24078	,	-21558	,	-2.2841594	,	9
22,38	,	47900	,	-24083	,	-21559	,	-3.971959	,	6
22,38	,	47916	,	-24080	,	-21564	,	-5.272633	,	3
22,38	,	47932	,	-24071	,	-21561	,	-6.1097736	,	1
22,38	,	47964	,	-24098	,	-21575	,	-6.447916	,	0
22,38	,	47980	,	-24095	,	-21570	,	-6.547224	,	0
22,38	,	47996	,	-24111	,	-21575	,	-6.8405952	,	0
22,38	,	48028	,	-24109	,	-21569	,	-7.604438	,	0
22,38	,	48044	,	-24115	,	-21583	,	-8.854089	,	0
22,38	,	48076	,	-24116	,	-21580	,	-10.385701	,	0
22,38	,	48092	,	-24113	,	-21587	,	-11.875104	,	0
22,38	,	48108	,	-24123	,	-21588	,	-13.012196	,	0
22,38	,	48140	,	-24133	,	-21588	,	-13.705431	,	0
22,38	,	48156	,	-24139	,	-21590	,	-14.132179	,	0
22,38	,	48172	,	-24144	,	-21595	,	-14.517208	,	0
22,38	,	48204	,	-24151	,	-21588	,	-14.9779625	,	0
22,38	,	48220	,	-24153	,	-21597	,	-15.533386	,	0
22,38	,	48252	,	-24157	,	-21589	,	-16.115986	,	0
22,38	,	48268	,	-24170	,	-21607	,	-16.64362	,	0
22,39	,	48284	,	-24157	,	-21599	,	-17.052574	,	0
22,39	,	48316	,	-24155	,	-21599	,	-17.12806	,	0
22,39	,	48332	,	-24150	,	-21592	,	-16.517012	,	0
22,39	,	48348	,	-24140	,	-21591	,	-14.96172	,	0
22,39	,	48380	,	-24140	,	-21585	,	-12.389658	,	1
22,39	,	48396	,	-24126	,	-21592	,	-8.90432	,	3
22,39	,	48412	,	-24134	,	-21599	,	-4.7750883	,	6
22,39	,	48444	,	-24127	,	-21578	,	-0.4391551	,	10
22,39	,	48460	,	-24124	,	-21591	,	3.6208286	,	14
22,39	,	48492	,	-24132	,	-21579	,	7.0257845	,	18
22,39	,	48508	,	-24135	,	-21600	,	9.439138	,	21
22,39	,	48524	,	-24126	,	-21588	,	10.63325	,	23
22,39	,	48556	,	-24140	,	-21585	,	10.636847	,	24
22,39	,	48572	,	-24139	,	-21593	,	9.596775	,	23
22,39	,	48588	,	-24141	,	-21588	,	7.6952953	,	21
22,39	,	48620	,	-24132	,	-21591	,	5.2736435	,	18
22,39	,	48636	,	-24128	,	-21593	,	2.8396773	,	14
22,39	,	48668	,	-24125	,	-21605	,	0.9023371	,	10
22,39	,	48684	,	-24150	,	-21588	,	-0.34511352	,	6
22,39	,	48700	,	-24164	,	-21599	,	-1.2848836	,	3
22,39	,	48732	,	-24154	,	-21596	,	-2.5249946	,	1
22,39	,	48748	,	-24157	,	-21599	,	-4.235537	,	0
22,39	,	48764	,	-24166	,	-21600	,	-6.156192	,	0
22,39	,	48795	,	-24168	,	-21613	,	-8.039206	,	0
22,39	,	48812	,	-24175	,	-21603	,	-9.7658825	,	0
22,39	,	48828	,	-24179	,	-21607	,	-11.281494	,	0
22,39	,	48860	,	-24175	,	-21610	,	-12.526153	,	0
22,39	,	48876	,	-24174	,	-21615	,	-13.335142	,	0
22,39	,	48908	,	-24181	,	-21622	,	-13.531491	,	0
22,39	,	48924	,	-24180	,	-21603	,	-13.115761	,	0
22,39	,	48940	,	-24203	,	-21624	,	-12.3293085	,	0
22,39	,	48972	,	-24204	,	-21620	,	-11.6201515	,	0
22,39	,	48988	,	-24215	,	-21629	,	-11.416115	,	0
22,39	,	49004	,	-24210	,	-21622	,	-11.848881	,	0
22,39	,	49036	,	-24223	,	-21625	,	-12.758419	,	0
22,39	,	49052	,	-24232	,	-21630	,	-13.944809	,	0
22,39	,	49084	,	-24234	,	-21637	,	-15.304654	,	0
22,39	,	49100	,	-24229	,	-21635	,	-16.658905	,	0
22,39	,	49116	,	-24209	,	-21628	,	-17.553259	,	0
22,39	,	49147	,	-24210	,	-21632	,	-17.366255	,	0
22,39	,	49163	,	-24198	,	-21608	,	-15.684032	,	0
22,39	,	49180	,	-24194	,	-21617	,	-12.492938	,	1
22,39	,	49212	,	-24194	,	-21620	,	-8.118142	,	4
22,39	,	49228	,	-24171	,	-21608	,	-3.0475664	,	8
22,39	,	49244	,	-24184	,	-21613	,	2.2667332	,	13
22,39	,	49275	,	-24177	,	-21605	,	7.324296	,	18
22,40	,	49291	,	-24182	,	-21612	,	11.540233	,	23
22,40	,	49324	,	-24191	,	-21608	,	14.416495	,	27
22,40	,	49340	,	-24182	,	-21614	,	15.652258	,	29
22,40	,	49356	,	-24175	,	-21614	,	15.340902	,	30
22,40	,	49388	,	-24178	,	-21635	,	13.968784	,	29
22,40	,	49403	,	-24187	,	-21598	,	12.00695	,	26
22,40	,	49419	,	-24186	,	-21620	,	9.671209	,	22
22,40	,	49452	,	-24174	,	-21619	,	7.147461	,	17
22,40	,	49468	,	-24177	,	-21610	,	4.790244	,	12
22,40	,	49500	,	-24193	,	-21610	,	2.848555	,	7
22,40	,	49516	,	-24198	,	-21614	,	1.176105	,	3
22,40	,	49531	,	-24198	,	-21622	,	-0.5332768	,	1
22,40	,	49563	,	-24197	,	-21617	,	-2.3660583	,	0
22,40	,	49580	,	-24200	,	-21623	,	-4.1660504	,	0
22,40	,	49595	,	-24200	,	-21620	,	-5.725919	,	0
22,40	,	49627	,	-24206	,	-21641	,	-6.9182634	,	0
22,40	,	49643	,	-24217	,	-21611	,	-7.7761416	,	0
22,40	,	49659	,	-24225	,	-21620	,	-8.519106	,	0
22,40	,	49691	,	-24231	,	-21633	,	-9.418947	,	0
22,40	,	49708	,	-24226	,	-21632	,	-10.568983	,	0
22,40	,	49740	,	-24233	,	-21635	,	-11.800426	,	0
22,40	,	49756	,	-24242	,	-21637	,	-12.896666	,	0
22,40	,	49771	,	-24231	,	-21638	,	-13.733274	,	0
22,40	,	49804	,	-24242	,	-21635	,	-14.1673765	,	0
22,40	,	49819	,	-24251	,	-21643	,	-14.150297	,	0
22,40	,	49851	,	-24250	,	-21640	,	-13.859595	,	0
22,40	,	49868	,	-24257	,	-21664	,	-13.491674	,	0
22,40	,	49883	,	-24261	,	-21633	,	-13.147507	,	0
22,40	,	49915	,	-24256	,	-21642	,	-12.8540745	,	0
22,40	,	49931	,	-24273	,	-21646	,	-12.583721	,	0
22,40	,	49947	,	-24256	,	-21648	,	-12.309812	,	0
22,40	,	49979	,	-24257	,	-21647	,	-11.8972225	,	0
22,40	,	49996	,	-24243	,	-21637	,	-11.042144	,	0
22,40	,	50011	,	-24239	,	-21635	,	-9.437328	,	0
22,40	,	50044	,	-24242	,	-21635	,	-6.9827814	,	1
22,40	,	50059	,	-24219	,	-21629	,	-3.824469	,	3
22,40	,	50091	,	-24216	,	-21626	,	-0.11568117	,	6
22,40	,	50107	,	-24226	,	-21642	,	3.940467	,	9
22,40	,	50123	,	-24221	,	-21614	,	7.8375278	,	13
22,40	,	50155	,	-24215	,	-21619	,	11.02341	,	16
22,40	,	50171	,	-24216	,	-21614	,	13.241161	,	19
22,40	,	50187	,	-24221	,	-21622	,	14.417633	,	21
22,40	,	50219	,	-24234	,	-21624	,	14.446706	,	22
22,40	,	50235	,	-24231	,	-21625	,	13.222239	,	21
22,40	,	50267	,	-24214	,	-21627	,	10.943443	,	19
22,41	,	50283	,	-24217	,	-21621	,	8.232193	,	16
22,41	,	50299	,	-24211	,	-21618	,	5.7612667	,	13
22,41	,	50331	,	-24219	,	-21631	,	3.9013171	,	9
22,41	,	50347	,	-24214	,	-21610	,	2.7006009	,	6
22,41	,	50363	,	-24223	,	-21630	,	2.0035496	,	3
22,41	,	50395	,	-24234	,	-21627	,	1.5055386	,	1
22,41	,	50411	,	-24221	,	-21629	,	0.8760692	,	0
22,41	,	50427	,	-24236	,	-21631	,	-0.007122457	,	0
22,41	,	50459	,	-24243	,	-21632	,	-1.1558104	,	0
22,41	,	50475	,	-24241	,	-21626	,	-2.6262157	,	0
22,41	,	50507	,	-24242	,	-21627	,	-4.336018	,	0
22,41	,	50523	,	-24238	,	-21633	,	-5.9954543	,	0
22,41	,	50539	,	-24250	,	-21636	,	-7.319646	,	0
22,41	,	50571	,	-24254	,	-21653	,	-8.251977	,	0
22,41	,	50587	,	-24247	,	-21626	,	-8.891118	,	0
22,41	,	50603	,	-24264	,	-21642	,	-9.29842	,	0
22,41	,	50635	,	-24280	,	-21650	,	-9.653215	,	0
22,41	,	50651	,	-24274	,	-21655	,	-10.287265	,	0
22,41	,	50683	,	-24284	,	-21652	,	-11.325115	,	0
22,41	,	50699	,	-24283	,	-21662	,	-12.598591	,	0
22,41	,	50715	,	-24290	,	-21656	,	-13.861481	,	0
22,41	,	50747	,	-24286	,	-21666	,	-14.890304	,	0
22,41	,	50763	,	-24288	,	-21666	,	-15.478387	,	0
22,41	,	50779	,	-24293	,	-21672	,	-15.486118	,	0
22,41	,	50811	,	-24297	,	-21681	,	-14.942602	,	0
22,41	,	50827	,	-24309	,	-21658	,	-14.06756	,	0
22,41	,	50843	,	-24286	,	-21667	,	-13.075079	,	0
22,41	,	50875	,	-24268	,	-21658	,	-11.785392	,	0
22,41	,	50891	,	-24279	,	-21664	,	-9.731579	,	1
22,41	,	50923	,	-24265	,	-21658	,	-6.761623	,	3
22,41	,	50939	,	-24255	,	-21647	,	-3.0768814	,	5
22,41	,	50955	,	-24241	,	-21651	,	1.1355257	,	8
22,41	,	50987	,	-24250	,	-21643	,	5.6613126	,	12
22,41	,	51003	,	-24237	,	-21650	,	10.081578	,	16
22,41	,	51019	,	-24236	,	-21640	,	13.941597	,	20
22,41	,	51051	,	-24239	,	-21655	,	16.919895	,	23
22,41	,	51067	,	-24244	,	-21626	,	18.735334	,	25
22,41	,	51099	,	-24229	,	-21629	,	19.225523	,	25
22,41	,	51115	,	-24231	,	-21640	,	18.567493	,	23
22,41	,	51131	,	-24228	,	-21639	,	17.156864	,	21
22,41	,	51163	,	-24226	,	-21626	,	15.349527	,	18
22,41	,	51179	,	-24240	,	-21631	,	13.341912	,	14
22,41	,	51195	,	-24232	,	-21630	,	11.148086	,	10
22,41	,	51227	,	-24226	,	-21626	,	8.824956	,	6
22,41	,	51243	,	-24241	,	-21635	,	6.571653	,	3
22,41	,	51259	,	-24230	,	-21629	,	4.507572	,	1
22,42	,	51291	,	-24234	,	-21637	,	2.690064	,	0
22,42	,	51307	,	-24227	,	-21615	,	1.241818	,	0
22,42	,	51339	,	-24226	,	-21626	,	0.29498243	,	0
22,42	,	51355	,	-24231	,	-21626	,	-0.109931946	,	0
22,42	,	51371	,	-24232	,	-21624	,	-0.10272157	,	0
22,42	,	51403	,	-24234	,	-21630	,	0.08109093	,	0
22,42	,	51419	,	-24247	,	-21631	,	0.17740172	,	0
22,42	,	51435	,	-24234	,	-21631	,	-0.043961007	,	0
22,42	,	51467	,	-24240	,	-21638	,	-0.5920301	,	0
22,42	,	51483	,	-24236	,	-21631	,	-1.2724365	,	0
22,42	,	51515	,	-24237	,	-21632	,	-1.8914547	,	0
22,42	,	51531	,	-24254	,	-21652	,	-2.3991022	,	0
22,42	,	51547	,	-24252	,	-21626	,	-2.9630508	,	0
22,42	,	51579	,	-24253	,	-21637	,	-3.7636454	,	0
22,42	,	51595	,	-24258	,	-21635	,	-4.7747755	,	0
22,42	,	51611	,	-24271	,	-21633	,	-5.922251	,	0
22,42	,	51643	,	-24264	,	-21643	,	-7.202757	,	0
22,42	,	51659	,	-24257	,	-21639	,	-8.470408	,	0
22,42	,	51675	,	-24251	,	-21638	,	-9.329933	,	0
22,42	,	51707	,	-24240	,	-21624	,	-9.331308	,	0
22,42	,	51723	,	-24234	,	-21625	,	-8.160673	,	0
22,42	,	51755	,	-24216	,	-21617	,	-5.6925282	,	1
22,42	,	51771	,	-24216	,	-21629	,	-1.9955025	,	3
22,42	,	51787	,	-24220	,	-21606	,	2.5455337	,	6
22,42	,	51819	,	-24205	,	-21616	,	7.2596946	,	10
22,42	,	51835	,	-24208	,	-21606	,	11.545567	,	14
22,42	,	51851	,	-24196	,	-21611	,	15.050023	,	18
22,42	,	51882	,	-24201	,	-21601	,	17.591537	,	21
22,42	,	51899	,	-24191	,	-21602	,	19.104744	,	23
22,42	,	51931	,	-24201	,	-21602	,	19.596035	,	24
22,42	,	51947	,	-24184	,	-21603	,	19.148281	,	23
22,42	,	51963	,	-24195	,	-21600	,	17.967117	,	21
22,42	,	51994	,	-24183	,	-21601	,	16.311493	,	18
22,42	,	52010	,	-24182	,	-21613	,	14.446781	,	14
22,42	,	52026	,	-24182	,	-21582	,	12.638496	,	10
22,42	,	52059	,	-24192	,	-21598	,	10.988525	,	6
22,42	,	52074	,	-24194	,	-21599	,	9.359354	,	3
22,42	,	52091	,	-24179	,	-21596	,	7.6355443	,	1
22,42	,	52123	,	-24177	,	-21591	,	5.997695	,	0
22,42	,	52139	,	-24182	,	-21601	,	4.7341285	,	0
22,42	,	52171	,	-24186	,	-21600	,	3.879836	,	0
22,42	,	52187	,	-24192	,	-21598	,	3.219016	,	0
22,42	,	52202	,	-24186	,	-21592	,	2.521656	,	0
22,42	,	52234	,	-24182	,	-21604	,	1.7465256	,	0
22,42	,	52250	,	-24188	,	-21612	,	1.0222858	,	0
22,42	,	52266	,	-24200	,	-21592	,	0.3749392	,	0
22,43	,	52299	,	-24202	,	-21595	,	-0.3963942	,	0
22,43	,	52315	,	-24203	,	-21606	,	-1.4820333	,	0
22,43	,	52346	,	-24208	,	-21603	,	-2.8689117	,	0
22,43	,	52362	,	-24200	,	-21603	,	-4.376726	,	0
22,43	,	52378	,	-24212	,	-21605	,	-5.76125	,	0
22,43	,	52410	,	-24216	,	-21602	,	-6.901618	,	0
22,43	,	52426	,	-24223	,	-21615	,	-7.8750916	,	0
22,43	,	52443	,	-24211	,	-21607	,	-8.734633	,	0
22,43	,	52475	,	-24217	,	-21610	,	-9.3358135	,	0
22,43	,	52491	,	-24217	,	-21615	,	-9.49651	,	0
22,43	,	52507	,	-24197	,	-21604	,	-9.089102	,	0
22,43	,	52538	,	-24172	,	-21598	,	-7.7898808	,	0
22,43	,	52554	,	-24181	,	-21592	,	-5.1717277	,	1
22,43	,	52586	,	-24160	,	-21585	,	-1.2037835	,	3
22,43	,	52602	,	-24160	,	-21583	,	3.7156878	,	6
22,43	,	52618	,	-24143	,	-21578	,	9.079574	,	10
22,43	,	52651	,	-24151	,	-21579	,	14.366381	,	15
22,43	,	52667	,	-24145	,	-21565	,	18.992085	,	20
22,43	,	52682	,	-24133	,	-21575	,	22.465044	,	24
22,43	,	52714	,	-24140	,	-21569	,	24.591572	,	27
22,43	,	52730	,	-24126	,	-21573	,	25.400284	,	29
22,43	,	52762	,	-24127	,	-21561	,	25.068422	,	28
22,43	,	52778	,	-24128	,	-21565	,	23.86313	,	26
22,43	,	52794	,	-24123	,	-21562	,	22.003506	,	23
22,43	,	52826	,	-24118	,	-21558	,	19.713829	,	19
22,43	,	52842	,	-24130	,	-21560	,	17.224833	,	14
22,43	,	52858	,	-24125	,	-21567	,	14.622766	,	9
22,43	,	52891	,	-24121	,	-21555	,	11.948272	,	5
22,43	,	52906	,	-24131	,	-21561	,	9.32947	,	2
22,43	,	52938	,	-24107	,	-21557	,	6.954935	,	0
22,43	,	52954	,	-24118	,	-21566	,	5.0921946	,	0
22,43	,	52970	,	-24118	,	-21555	,	3.89719	,	0
22,43	,	53002	,	-24130	,	-21565	,	3.1825323	,	0
22,43	,	53018	,	-24129	,	-21566	,	2.5670655	,	0
22,43	,	53034	,	-24137	,	-21565	,	1.7346077	,	0
22,43	,	53066	,	-24130	,	-21575	,	0.5744268	,	0
22,43	,	53082	,	-24159	,	-21569	,	-0.91069055	,	0
22,43	,	53098	,	-24139	,	-21572	,	-2.751451	,	0
22,43	,	53130	,	-24144	,	-21575	,	-4.7945986	,	0
22,43	,	53146	,	-24149	,	-21575	,	-6.655153	,	0
22,43	,	53178	,	-24157	,	-21577	,	-8.11423	,	0
22,43	,	53194	,	-24150	,	-21581	,	-9.181328	,	0
22,43	,	53210	,	-24163	,	-21572	,	-9.881979	,	0
22,43	,	53242	,	-24166	,	-21583	,	-10.296249	,	0
22,43	,	53258	,	-24173	,	-21578	,	-10.602097	,	0
22,43	,	53274	,	-24171	,	-21581	,	-10.929075	,	0
22,44	,	53306	,	-24176	,	-21581	,	-11.264421	,	0
22,44	,	53322	,	-24163	,	-21577	,	-11.458807	,	0
22,44	,	53354	,	-24143	,	-21571	,	-11.149616	,	0
22,44	,	53370	,	-24125	,	-21567	,	-9.740129	,	0
22,44	,	53386	,	-24123	,	-21553	,	-6.740137	,	1
22,44	,	53418	,	-24119	,	-21556	,	-2.2057843	,	3
22,44	,	53434	,	-24112	,	-21558	,	3.2690396	,	7
22,44	,	53450	,	-24100	,	-21534	,	8.957098	,	12
22,44	,	53482	,	-24088	,	-21543	,	14.334755	,	17
22,44	,	53498	,	-24092	,	-21540	,	19.074677	,	22
22,44	,	53514	,	-24090	,	-21549	,	22.834475	,	26
22,44	,	53546	,	-24093	,	-21542	,	25.230053	,	29
22,44	,	53562	,	-24084	,	-21536	,	26.050236	,	31
22,44	,	53594	,	-24087	,	-21547	,	25.391254	,	30
22,44	,	53610	,	-24083	,	-21540	,	23.55146	,	28
22,44	,	53626	,	-24084	,	-21530	,	20.886665	,	24
22,44	,	53658	,	-24076	,	-21530	,	17.789524	,	19
22,44	,	53674	,	-24069	,	-21546	,	14.711217	,	14
22,44	,	53690	,	-24080	,	-21536	,	12.0332155	,	9
22,44	,	53722	,	-24070	,	-21538	,	9.8784895	,	5
22,44	,	53738	,	-24089	,	-21539	,	8.124813	,	2
22,44	,	53770	,	-24089	,	-21544	,	6.484917	,	0
22,44	,	53786	,	-24077	,	-21542	,	4.733386	,	0
22,44	,	53802	,	-24081	,	-21540	,	2.979134	,	0
22,44	,	53834	,	-24100	,	-21544	,	1.387517	,	0
22,44	,	53850	,	-24096	,	-21549	,	-0.16565466	,	0
22,44	,	53866	,	-24097	,	-21548	,	-1.834346	,	0
22,44	,	53898	,	-24101	,	-21552	,	-3.5451317	,	0
22,44	,	53914	,	-24100	,	-21553	,	-5.128631	,	0
22,44	,	53930	,	-24099	,	-21534	,	-6.4156866	,	0
22,44	,	53962	,	-24103	,	-21543	,	-7.2554936	,	0
22,44	,	53978	,	-24115	,	-21557	,	-7.659712	,	0
22,44	,	54010	,	-24116	,	-21554	,	-7.863534	,	0
22,44	,	54026	,	-24118	,	-21560	,	-8.110368	,	0
22,44	,	54042	,	-24125	,	-21565	,	-8.483269	,	0
22,44	,	54074	,	-24136	,	-21553	,	-9.0272455	,	0
22,44	,	54090	,	-24133	,	-21553	,	-9.811576	,	0
22,44	,	54106	,	-24120	,	-21559	,	-10.699888	,	0
22,44	,	54138	,	-24127	,	-21559	,	-11.285524	,	0
22,44	,	54154	,	-24109	,	-21567	,	-11.161533	,	0
22,44	,	54185	,	-24098	,	-21531	,	-10.011827	,	0
22,44	,	54202	,	-24070	,	-21528	,	-7.501707	,	1
22,44	,	54218	,	-24063	,	-21532	,	-3.3569636	,	3
22,44	,	54250	,	-24052	,	-21526	,	2.3563561	,	7
22,44	,	54266	,	-24047	,	-21524	,	9.093758	,	12
22,45	,	54282	,	-24037	,	-21518	,	16.035593	,	18
22,45	,	54314	,	-24027	,	-21515	,	22.416393	,	24
22,45	,	54330	,	-24043	,	-21514	,	27.606518	,	30
22,45	,	54346	,	-24037	,	-21517	,	30.994938	,	35
22,45	,	54378	,	-24033	,	-21511	,	32.18642	,	38
22,45	,	54394	,	-24032	,	-21520	,	31.278784	,	38
22,45	,	54426	,	-24027	,	-21493	,	28.735584	,	36
22,45	,	54442	,	-24023	,	-21508	,	25.170076	,	32
22,45	,	54458	,	-24033	,	-21511	,	21.16006	,	27
22,45	,	54490	,	-24039	,	-21510	,	17.022606	,	21
22,45	,	54506	,	-24027	,	-21502	,	12.89138	,	15
22,45	,	54522	,	-24027	,	-21507	,	9.017745	,	9
22,45	,	54554	,	-24041	,	-21507	,	5.681493	,	4
22,45	,	54570	,	-24028	,	-21510	,	2.9491925	,	1
22,45	,	54602	,	-24038	,	-21516	,	0.7989135	,	0
22,45	,	54618	,	-24034	,	-21517	,	-0.78398347	,	0
22,45	,	54634	,	-24041	,	-21531	,	-1.8815458	,	0
22,45	,	54666	,	-24048	,	-21501	,	-2.6690464	,	0
22,45	,	54682	,	-24044	,	-21524	,	-3.3589134	,	0
22,45	,	54697	,	-24048	,	-21518	,	-4.047106	,	0
22,45	,	54730	,	-24062	,	-21523	,	-4.7580113	,	0
22,45	,	54746	,	-24062	,	-21528	,	-5.609744	,	0
22,45	,	54777	,	-24069	,	-21523	,	-6.714473	,	0
22,45	,	54793	,	-24049	,	-21520	,	-7.9461565	,	0
22,45	,	54810	,	-24062	,	-21521	,	-8.918991	,	0
22,45	,	54841	,	-24073	,	-21524	,	-9.376579	,	0
22,45	,	54858	,	-24072	,	-21524	,	-9.46401	,	0
22,45	,	54874	,	-24086	,	-21539	,	-9.489807	,	0
22,45	,	54906	,	-24102	,	-21525	,	-9.780779	,	0
22,45	,	54922	,	-24097	,	-21534	,	-10.62593	,	0
22,45	,	54938	,	-24093	,	-21537	,	-11.966719	,	0
22,45	,	54970	,	-24083	,	-21519	,	-13.296968	,	0
22,45	,	54985	,	-24057	,	-21520	,	-13.857786	,	0
22,45	,	55017	,	-24041	,	-21521	,	-12.819524	,	0
22,45	,	55034	,	-24035	,	-21505	,	-9.634865	,	1
22,45	,	55050	,	-24037	,	-21505	,	-4.4595	,	4
22,45	,	55082	,	-24046	,	-21500	,	1.8110728	,	9
22,45	,	55098	,	-24046	,	-21505	,	7.916453	,	15
22,45	,	55113	,	-24028	,	-21513	,	12.849857	,	21
22,45	,	55145	,	-24035	,	-21495	,	16.24363	,	25
22,45	,	55162	,	-24033	,	-21514	,	18.121677	,	28
22,45	,	55194	,	-24031	,	-21509	,	18.587864	,	29
22,45	,	55210	,	-24023	,	-21511	,	17.879627	,	29
22,45	,	55226	,	-24026	,	-21504	,	16.389404	,	28
22,45	,	55257	,	-24024	,	-21506	,	14.493715	,	25
22,45	,	55273	,	-24029	,	-21503	,	12.428186	,	20
22,46	,	55289	,	-24029	,	-21506	,	10.297656	,	14
22,46	,	55322	,	-24025	,	-21508	,	8.172495	,	8
22,46	,	55338	,	-24036	,	-21511	,	6.126745	,	4
22,46	,	55354	,	-24039	,	-21516	,	4.1441107	,	1
22,46	,	55385	,	-24026	,	-21501	,	2.2052274	,	0
22,46	,	55401	,	-24037	,	-21510	,	0.4566207	,	0
22,46	,	55433	,	-24051	,	-21519	,	-1.0299321	,	0
22,46	,	55449	,	-24044	,	-21517	,	-2.4251509	,	0
22,46	,	55466	,	-24056	,	-21521	,	-3.8685238	,	0
22,46	,	55497	,	-24049	,	-21527	,	-5.3332477	,	0
22,46	,	55513	,	-24067	,	-21522	,	-6.7473636	,	0
22,46	,	55530	,	-24073	,	-21531	,	-8.142555	,	0
22,46	,	55561	,	-24077	,	-21532	,	-9.645653	,	0
22,46	,	55577	,	-24075	,	-21536	,	-11.249289	,	0
22,46	,	55609	,	-24079	,	-21534	,	-12.7327585	,	0
22,46	,	55625	,	-24074	,	-21536	,	-13.809887	,	0
22,46	,	55641	,	-24082	,	-21536	,	-14.27405	,	0
22,46	,	55673	,	-24091	,	-21538	,	-14.140602	,	0
22,46	,	55689	,	-24088	,	-21540	,	-13.6385975	,	0
22,46	,	55705	,	-24077	,	-21542	,	-12.903393	,	0
22,46	,	55737	,	-24076	,	-21534	,	-11.801634	,	0
22,46	,	55753	,	-24070	,	-21525	,	-10.144793	,	1
22,46	,	55769	,	-24066	,	-21529	,	-7.8831663	,	2
22,46	,	55801	,	-24049	,	-21516	,	-5.0402036	,	4
22,46	,	55817	,	-24044	,	-21523	,	-1.6107745	,	6
22,46	,	55849	,	-24040	,	-21518	,	2.333523	,	9
22,46	,	55865	,	-24052	,	-21525	,	6.4257965	,	12
22,46	,	55881	,	-24040	,	-21519	,	10.059757	,	16
22,46	,	55913	,	-24045	,	-21517	,	12.752578	,	19
22,46	,	55929	,	-24035	,	-21515	,	14.340319	,	21
22,46	,	55945	,	-24050	,	-21529	,	14.846707	,	21
22,46	,	55977	,	-24045	,	-21528	,	14.310572	,	20
22,46	,	55993	,	-24049	,	-21519	,	12.810727	,	18
22,46	,	56025	,	-24043	,	-21525	,	10.590542	,	16
22,46	,	56041	,	-24048	,	-21522	,	8.021057	,	13
22,46	,	56057	,	-24060	,	-21521	,	5.3837166	,	10
22,46	,	56089	,	-24048	,	-21521	,	2.7947664	,	6
22,46	,	56105	,	-24058	,	-21528	,	0.38350558	,	3
22,46	,	56121	,	-24057	,	-21519	,	-1.6920071	,	1
22,46	,	56153	,	-24058	,	-21527	,	-3.3531847	,	0
22,46	,	56169	,	-24067	,	-21531	,	-4.6039643	,	0
22,46	,	56185	,	-24066	,	-21540	,	-5.543813	,	0
22,46	,	56217	,	-24068	,	-21534	,	-6.282527	,	0
22,46	,	56233	,	-24075	,	-21538	,	-6.870597	,	0
22,46	,	56265	,	-24078	,	-21543	,	-7.3791656	,	0
22,47	,	56281	,	-24091	,	-21542	,	-7.9417505	,	0
22,47	,	56297	,	-24091	,	-21547	,	-8.708865	,	0
22,47	,	56329	,	-24090	,	-21543	,	-9.699091	,	0
22,47	,	56345	,	-24093	,	-21547	,	-10.719695	,	0
22,47	,	56361	,	-24102	,	-21552	,	-11.559864	,	0
22,47	,	56393	,	-24111	,	-21549	,	-12.202461	,	0
22,47	,	56409	,	-24110	,	-21558	,	-12.760044	,	0
22,47	,	56441	,	-24113	,	-21561	,	-13.265356	,	0
22,47	,	56457	,	-24123	,	-21562	,	-13.671848	,	0
22,47	,	56473	,	-24119	,	-21567	,	-13.964283	,	0
22,47	,	56505	,	-24116	,	-21559	,	-14.063763	,	0
22,47	,	56521	,	-24097	,	-21557	,	-13.687431	,	0
22,47	,	56537	,	-24077	,	-21551	,	-12.339668	,	0
22,47	,	56569	,	-24078	,	-21527	,	-9.552443	,	1
22,47	,	56585	,	-24076	,	-21543	,	-5.3331814	,	3
22,47	,	56601	,	-24062	,	-21536	,	-0.20304728	,	7
22,47	,	56633	,	-24058	,	-21543	,	5.229614	,	12
22,47	,	56649	,	-24055	,	-21539	,	10.461556	,	17
22,47	,	56681	,	-24060	,	-21542	,	14.984766	,	22
22,47	,	56697	,	-24063	,	-21538	,	18.264269	,	26
22,47	,	56713	,	-24069	,	-21542	,	19.872232	,	29
22,47	,	56745	,	-24073	,	-21543	,	19.628714	,	30
22,47	,	56761	,	-24071	,	-21532	,	17.673134	,	29
22,47	,	56777	,	-24059	,	-21547	,	14.506209	,	27
22,47	,	56809	,	-24062	,	-21521	,	10.877155	,	23
22,47	,	56825	,	-24060	,	-21546	,	7.4535084	,	18
22,47	,	56857	,	-24063	,	-21547	,	4.603061	,	13
22,47	,	56873	,	-24064	,	-21551	,	2.4313774	,	8
22,47	,	56889	,	-24072	,	-21550	,	0.85730314	,	4
22,47	,	56921	,	-24089	,	-21550	,	-0.40583968	,	1
22,47	,	56937	,	-24090	,	-21551	,	-1.7909328	,	0
22,47	,	56953	,	-24097	,	-21558	,	-3.5979857	,	0
22,47	,	56985	,	-24083	,	-21553	,	-5.7463875	,	0
22,47	,	57001	,	-24093	,	-21557	,	-7.831338	,	0
22,47	,	57017	,	-24099	,	-21564	,	-9.485973	,	0
22,47	,	57049	,	-24096	,	-21546	,	-10.604759	,	0
22,47	,	57065	,	-24100	,	-21565	,	-11.1927185	,	0
22,47	,	57097	,	-24115	,	-21562	,	-11.340317	,	0
22,47	,	57113	,	-24116	,	-21567	,	-11.320566	,	0
22,47	,	57129	,	-24121	,	-21562	,	-11.406723	,	0
22,47	,	57161	,	-24130	,	-21570	,	-11.714495	,	0
22,47	,	57177	,	-24135	,	-21568	,	-12.289136	,	0
22,47	,	57193	,	-24135	,	-21581	,	-13.110313	,	0
22,47	,	57225	,	-24148	,	-21573	,	-14.059976	,	0
22,47	,	57241	,	-24140	,	-21589	,	-14.989698	,	0
22,47	,	57273	,	-24135	,	-21591	,	-15.650037	,	0
22,48	,	57289	,	-24129	,	-21562	,	-15.652228	,	0
22,48	,	57305	,	-24121	,	-21566	,	-14.655529	,	0
22,48	,	57337	,	-24111	,	-21560	,	-12.484247	,	0
22,48	,	57353	,	-24087	,	-21559	,	-9.053972	,	2
22,48	,	57369	,	-24081	,	-21561	,	-4.329594	,	5
22,48	,	57401	,	-24084	,	-21553	,	1.4497046	,	9
22,48	,	57417	,	-24071	,	-21554	,	7.6391034	,	14
22,48	,	57449	,	-24084	,	-21555	,	13.431235	,	20
22,48	,	57465	,	-24079	,	-21554	,	18.056097	,	25
22,48	,	57481	,	-24085	,	-21555	,	20.925491	,	29
22,48	,	57513	,	-24077	,	-21567	,	21.837366	,	31
22,48	,	57528	,	-24082	,	-21542	,	20.991192	,	31
22,48	,	57545	,	-24081	,	-21546	,	18.795738	,	29
22,48	,	57577	,	-24088	,	-21552	,	15.678499	,	26
22,48	,	57593	,	-24091	,	-21557	,	12.004732	,	22
22,48	,	57609	,	-24095	,	-21554	,	8.066176	,	17
22,48	,	57640	,	-24087	,	-21549	,	4.1588326	,	11
22,48	,	57656	,	-24093	,	-21552	,	0.6449733	,	6
22,48	,	57689	,	-24094	,	-21558	,	-2.1812286	,	2
22,48	,	57705	,	-24094	,	-21559	,	-4.217232	,	0
22,48	,	57721	,	-24099	,	-21562	,	-5.5089426	,	0
22,48	,	57753	,	-24098	,	-21585	,	-6.191394	,	0
22,48	,	57769	,	-24104	,	-21550	,	-6.440377	,	0
22,48	,	57785	,	-24110	,	-21570	,	-6.459566	,	0
22,48	,	57817	,	-24111	,	-21570	,	-6.4706206	,	0
22,48	,	57833	,	-24116	,	-21579	,	-6.6214886	,	0
22,48	,	57864	,	-24128	,	-21567	,	-6.9986277	,	0
22,48	,	57880	,	-24124	,	-21577	,	-7.6823196	,	0
22,48	,	57896	,	-24126	,	-21577	,	-8.619439	,	0
22,48	,	57928	,	-24149	,	-21582	,	-9.685732	,	0
22,48	,	57944	,	-24144	,	-21585	,	-10.915713	,	0
22,48	,	57960	,	-24140	,	-21588	,	-12.287109	,	0
22,48	,	57992	,	-24147	,	-21600	,	-13.502994	,	0
22,48	,	58008	,	-24154	,	-21580	,	-14.300935	,	0
22,48	,	58024	,	-24155	,	-21585	,	-14.669327	,	0
22,48	,	58057	,	-24160	,	-21589	,	-14.699739	,	0
22,48	,	58073	,	-24151	,	-21590	,	-14.423004	,	0
22,48	,	58104	,	-24125	,	-21576	,	-13.622923	,	0
22,48	,	58120	,	-24125	,	-21577	,	-11.822762	,	0
22,48	,	58137	,	-24119	,	-21567	,	-8.728086	,	1
22,48	,	58169	,	-24126	,	-21563	,	-4.5895815	,	4
22,48	,	58184	,	-24107	,	-21570	,	0.006394863	,	8
22,48	,	58200	,	-24102	,	-21576	,	4.590067	,	12
22,48	,	58232	,	-24106	,	-21582	,	8.873575	,	16
22,48	,	58248	,	-24117	,	-21564	,	12.4467325	,	20
22,48	,	58280	,	-24116	,	-21567	,	14.766473	,	23
22,49	,	58297	,	-24111	,	-21565	,	15.530092	,	25
22,49	,	58312	,	-24114	,	-21575	,	14.865731	,	25
22,49	,	58344	,	-24111	,	-21575	,	13.149466	,	24
22,49	,	58360	,	-24118	,	-21564	,	10.778783	,	21
22,49	,	58376	,	-24121	,	-21575	,	8.06184	,	17
22,49	,	58408	,	-24120	,	-21576	,	5.2181864	,	13
22,49	,	58424	,	-24117	,	-21571	,	2.4814296	,	9
22,49	,	58440	,	-24109	,	-21571	,	0.1603024	,	5
22,49	,	58472	,	-24123	,	-21583	,	-1.4924095	,	2
22,49	,	58488	,	-24122	,	-21566	,	-2.4967723	,	0
22,49	,	58520	,	-24126	,	-21569	,	-3.0884495	,	0
22,49	,	58536	,	-24135	,	-21580	,	-3.5257845	,	0
22,49	,	58552	,	-24132	,	-21574	,	-4.026354	,	0
22,49	,	58584	,	-24134	,	-21576	,	-4.6617312	,	0
22,49	,	58600	,	-24143	,	-21574	,	-5.3697977	,	0
22,49	,	58616	,	-24150	,	-21582	,	-6.157559	,	0
22,49	,	58648	,	-24162	,	-21584	,	-7.1605983	,	0
22,49	,	58664	,	-24151	,	-21579	,	-8.455701	,	0
22,49	,	58696	,	-24158	,	-21583	,	-9.858081	,	0
22,49	,	58712	,	-24160	,	-21596	,	-11.051481	,	0
22,49	,	58728	,	-24169	,	-21582	,	-11.879709	,	0
22,49	,	58760	,	-24173	,	-21595	,	-12.399448	,	0
22,49	,	58776	,	-24188	,	-21597	,	-12.802086	,	0
22,49	,	58792	,	-24186	,	-21604	,	-13.30685	,	0
22,49	,	58824	,	-24183	,	-21606	,	-13.945219	,	0
22,49	,	58840	,	-24187	,	-21601	,	-14.4932995	,	0
22,49	,	58856	,	-24183	,	-21599	,	-14.674284	,	0
22,49	,	58888	,	-24172	,	-21586	,	-14.245619	,	0
22,49	,	58904	,	-24149	,	-21597	,	-12.871265	,	0
22,49	,	58936	,	-24141	,	-21586	,	-10.144396	,	1
22,49	,	58952	,	-24140	,	-21595	,	-5.9357386	,	3
22,49	,	58968	,	-24142	,	-21568	,	-0.68280125	,	7
22,49	,	59000	,	-24133	,	-21582	,	4.8121395	,	12
22,49	,	59016	,	-24136	,	-21586	,	9.80126	,	17
22,49	,	59032	,	-24137	,	-21581	,	13.735416	,	21
22,49	,	59064	,	-24148	,	-21578	,	16.19285	,	24
22,49	,	59080	,	-24131	,	-21580	,	16.972776	,	26
22,49	,	59112	,	-24144	,	-21581	,	16.257915	,	26
22,49	,	59128	,	-24128	,	-21577	,	14.492465	,	25
22,49	,	59144	,	-24132	,	-21577	,	12.193642	,	23
22,49	,	59176	,	-24135	,	-21570	,	9.805531	,	19
22,49	,	59192	,	-24134	,	-21583	,	7.5529327	,	14
22,49	,	59208	,	-24145	,	-21574	,	5.468204	,	9
22,49	,	59240	,	-24133	,	-21576	,	3.5204644	,	5
22,49	,	59256	,	-24137	,	-21574	,	1.7730815	,	2
22,49	,	59272	,	-24138	,	-21574	,	0.37142682	,	0
22,50	,	59304	,	-24151	,	-21584	,	-0.6873592	,	0
22,50	,	59320	,	-24153	,	-21589	,	-1.6216669	,	0
22,50	,	59352	,	-24149	,	-21580	,	-2.6348953	,	0
22,50	,	59368	,	-24155	,	-21595	,	-3.7176723	,	0
22,50	,	59384	,	-24159	,	-21585	,	-4.7690306	,	0
22,50	,	59416	,	-24161	,	-21595	,	-5.754797	,	0
22,50	,	59432	,	-24164	,	-21600	,	-6.666828	,	0
22,50	,	59448	,	-24161	,	-21588	,	-7.4464417	,	0
22,50	,	59480	,	-24168	,	-21597	,	-7.998592	,	0
22,50	,	59496	,	-24177	,	-21597	,	-8.327578	,	0
22,50	,	59528	,	-24184	,	-21598	,	-8.615522	,	0
22,50	,	59544	,	-24185	,	-21602	,	-9.06817	,	0
22,50	,	59560	,	-24182	,	-21605	,	-9.70159	,	0
22,50	,	59592	,	-24174	,	-21598	,	-10.275763	,	0
22,50	,	59608	,	-24162	,	-21595	,	-10.366344	,	0
22,50	,	59624	,	-24168	,	-21588	,	-9.586716	,	0
22,50	,	59656	,	-24160	,	-21591	,	-7.8559613	,	0
22,50	,	59672	,	-24157	,	-21589	,	-5.377751	,	1
22,50	,	59688	,	-24143	,	-21584	,	-2.385725	,	3
22,50	,	59720	,	-24143	,	-21583	,	0.95691466	,	5
22,50	,	59736	,	-24138	,	-21577	,	4.4455404	,	8
22,50	,	59768	,	-24140	,	-21578	,	7.758849	,	11
22,50	,	59784	,	-24142	,	-21581	,	10.513461	,	14
22,50	,	59800	,	-24140	,	-21581	,	12.3733425	,	16
22,50	,	59832	,	-24147	,	-21577	,	13.147282	,	17
22,50	,	59848	,	-24132	,	-21584	,	12.864714	,	17
22,50	,	59864	,	-24131	,	-21581	,	11.840543	,	16
22,50	,	59896	,	-24128	,	-21583	,	10.532793	,	14
22,50	,	59912	,	-24133	,	-21577	,	9.247452	,	12
22,50	,	59943	,	-24131	,	-21582	,	8.053417	,	9
22,50	,	59960	,	-24138	,	-21586	,	6.8924756	,	6
22,50	,	59976	,	-24143	,	-21573	,	5.6464186	,	3
22,50	,	60008	,	-24132	,	-21584	,	4.237278	,	1
22,50	,	60024	,	-24143	,	-21583	,	2.7489753	,	0
22,50	,	60040	,	-24152	,	-21581	,	1.2531319	,	0
22,50	,	60072	,	-24159	,	-21593	,	-0.3774109	,	0
22,50	,	60088	,	-24158	,	-21582	,	-2.2734678	,	0
22,50	,	60104	,	-24163	,	-21585	,	-4.362404	,	0
22,50	,	60136	,	-24161	,	-21594	,	-6.4196677	,	0
22,50	,	60152	,	-24171	,	-21582	,	-8.220033	,	0
22,50	,	60184	,	-24171	,	-21592	,	-9.654905	,	0
22,50	,	60200	,	-24167	,	-21588	,	-10.679566	,	0
22,50	,	60216	,	-24170	,	-21604	,	-11.198755	,	0
22,50	,	60247	,	-24184	,	-21599	,	-11.206121	,	0
22,50	,	60264	,	-24170	,	-21594	,	-10.870842	,	0
22,50	,	60280	,	-24181	,	-21596	,	-10.318424	,	0
22,51	,	60312	,	-24197	,	-21598	,	-9.673367	,	0
22,51	,	60328	,	-24181	,	-21599	,	-9.172076	,	0
22,51	,	60360	,	-24188	,	-21593	,	-8.8713045	,	0
22,51	,	60376	,	-24174	,	-21600	,	-8.544024	,	0
22,51	,	60392	,	-24169	,	-21582	,	-7.857233	,	0
22,51	,	60423	,	-24134	,	-21577	,	-6.3732667	,	0
22,51	,	60439	,	-24139	,	-21566	,	-3.62011	,	1
22,51	,	60456	,	-24126	,	-21560	,	0.52375484	,	3
22,51	,	60488	,	-24118	,	-21562	,	5.6795607	,	7
22,51	,	60504	,	-24135	,	-21565	,	11.142459	,	12
22,51	,	60520	,	-24125	,	-21562	,	16.00054	,	17
22,51	,	60552	,	-24121	,	-21551	,	19.503237	,	21
22,51	,	60568	,	-24112	,	-21550	,	21.438099	,	24
22,51	,	60600	,	-24111	,	-21562	,	22.010132	,	25
22,51	,	60615	,	-24110	,	-21561	,	21.539082	,	25
22,51	,	60631	,	-24094	,	-21545	,	20.366852	,	24
22,51	,	60664	,	-24096	,	-21550	,	18.905056	,	22
22,51	,	60680	,	-24102	,	-21558	,	17.448977	,	18
22,51	,	60696	,	-24094	,	-21554	,	16.010693	,	13
22,51	,	60728	,	-24095	,	-21555	,	14.527713	,	8
22,51	,	60744	,	-24097	,	-21547	,	12.99658	,	4
22,51	,	60775	,	-24096	,	-21549	,	11.396937	,	1
22,51	,	60791	,	-24095	,	-21552	,	9.715982	,	0
22,51	,	60807	,	-24093	,	-21545	,	8.016649	,	0
22,51	,	60839	,	-24112	,	-21552	,	6.3288965	,	0
22,51	,	60856	,	-24102	,	-21560	,	4.543402	,	0
22,51	,	60872	,	-24108	,	-21541	,	2.6085327	,	0
22,51	,	60904	,	-24107	,	-21560	,	0.6619501	,	0
22,51	,	60919	,	-24117	,	-21549	,	-1.1555977	,	0
22,51	,	60935	,	-24120	,	-21570	,	-2.8373837	,	0
22,51	,	60968	,	-24128	,	-21558	,	-4.464814	,	0
22,51	,	60984	,	-24124	,	-21564	,	-6.0811634	,	0
22,51	,	61015	,	-24129	,	-21564	,	-7.599673	,	0
22,51	,	61031	,	-24137	,	-21572	,	-8.90184	,	0
22,51	,	61047	,	-24141	,	-21568	,	-9.988072	,	0
22,51	,	61079	,	-24135	,	-21571	,	-10.879795	,	0
22,51	,	61095	,	-24139	,	-21576	,	-11.464506	,	0
22,51	,	61111	,	-24144	,	-21557	,	-11.617826	,	0
22,51	,	61143	,	-24128	,	-21576	,	-11.29052	,	0
22,51	,	61159	,	-24121	,	-21566	,	-10.334475	,	0
22,51	,	61191	,	-24097	,	-21553	,	-8.43376	,	0
22,51	,	61207	,	-24085	,	-21558	,	-5.243682	,	1
22,51	,	61223	,	-24077	,	-21554	,	-0.6369872	,	4
22,51	,	61255	,	-24071	,	-21550	,	5.0780888	,	8
22,51	,	61271	,	-24074	,	-21544	,	11.196995	,	13
22,52	,	61287	,	-24065	,	-21535	,	16.8748	,	19
22,52	,	61319	,	-24066	,	-21534	,	21.421854	,	24
22,52	,	61335	,	-24061	,	-21556	,	24.440966	,	28
22,52	,	61367	,	-24055	,	-21523	,	25.835442	,	31
22,52	,	61383	,	-24061	,	-21543	,	25.751467	,	32
22,52	,	61399	,	-24053	,	-21538	,	24.432007	,	31
22,52	,	61431	,	-24041	,	-21536	,	22.244917	,	28
22,52	,	61447	,	-24052	,	-21530	,	19.68202	,	24
22,52	,	61463	,	-24051	,	-21534	,	17.053146	,	19
22,52	,	61495	,	-24049	,	-21527	,	14.420079	,	13
22,52	,	61511	,	-24054	,	-21529	,	11.816462	,	8
22,52	,	61527	,	-24050	,	-21523	,	9.299381	,	4
22,52	,	61559	,	-24063	,	-21524	,	6.8894286	,	1
22,52	,	61575	,	-24061	,	-21543	,	4.5398183	,	0
22,52	,	61607	,	-24054	,	-21519	,	2.2597523	,	0
22,52	,	61623	,	-24061	,	-21535	,	0.22235084	,	0
22,52	,	61639	,	-24069	,	-21540	,	-1.4481204	,	0
22,52	,	61671	,	-24069	,	-21541	,	-2.8340104	,	0
22,52	,	61687	,	-24074	,	-21538	,	-4.068101	,	0
22,52	,	61703	,	-24073	,	-21545	,	-5.193132	,	0
22,52	,	61735	,	-24085	,	-21541	,	-6.2110195	,	0
22,52	,	61751	,	-24071	,	-21551	,	-7.112289	,	0
22,52	,	61783	,	-24083	,	-21552	,	-7.8032703	,	0
22,52	,	61799	,	-24077	,	-21546	,	-8.170733	,	0
22,52	,	61815	,	-24089	,	-21564	,	-8.215286	,	0
22,52	,	61847	,	-24089	,	-21538	,	-8.060711	,	0
22,52	,	61863	,	-24097	,	-21549	,	-7.892431	,	0
22,52	,	61895	,	-24102	,	-21545	,	-7.8923454	,	0
22,52	,	61911	,	-24100	,	-21545	,	-8.162632	,	0
22,52	,	61927	,	-24092	,	-21548	,	-8.587147	,	0
22,52	,	61959	,	-24078	,	-21548	,	-8.766877	,	0
22,52	,	61975	,	-24067	,	-21539	,	-8.160946	,	0
22,52	,	61991	,	-24046	,	-21531	,	-6.288961	,	0
22,52	,	62023	,	-24050	,	-21530	,	-2.934534	,	1
22,52	,	62039	,	-24032	,	-21523	,	1.6906648	,	4
22,52	,	62055	,	-24036	,	-21548	,	7.035159	,	8
22,52	,	62087	,	-24032	,	-21509	,	12.397785	,	13
22,52	,	62103	,	-24025	,	-21519	,	17.09104	,	18
22,52	,	62135	,	-24024	,	-21524	,	20.648842	,	22
22,52	,	62151	,	-24018	,	-21514	,	22.879436	,	25
22,52	,	62167	,	-24028	,	-21521	,	23.74213	,	27
22,52	,	62199	,	-24023	,	-21512	,	23.240875	,	27
22,52	,	62215	,	-24034	,	-21514	,	21.441856	,	26
22,52	,	62231	,	-24020	,	-21511	,	18.578182	,	23
22,52	,	62263	,	-24005	,	-21509	,	15.193692	,	19
22,52	,	62279	,	-24011	,	-21522	,	12.041229	,	14
22,53	,	62295	,	-24020	,	-21501	,	9.570532	,	9
22,53	,	62327	,	-24019	,	-21516	,	7.7015424	,	5
22,53	,	62343	,	-24014	,	-21516	,	6.192264	,	2
22,53	,	62375	,	-24021	,	-21525	,	4.9213047	,	0
22,53	,	62391	,	-24027	,	-21518	,	3.7798665	,	0
22,53	,	62407	,	-24031	,	-21520	,	2.5750349	,	0
22,53	,	62439	,	-24026	,	-21524	,	1.1783748	,	0
22,53	,	62455	,	-24034	,	-21526	,	-0.354419	,	0
22,53	,	62471	,	-24035	,	-21516	,	-1.9001867	,	0
22,53	,	62503	,	-24038	,	-21531	,	-3.3780758	,	0
22,53	,	62519	,	-24053	,	-21546	,	-4.7831945	,	0
22,53	,	62551	,	-24041	,	-21518	,	-6.1628704	,	0
22,53	,	62567	,	-24056	,	-21542	,	-7.477624	,	0
22,53	,	62583	,	-24069	,	-21542	,	-8.709505	,	0
22,53	,	62615	,	-24067	,	-21528	,	-10.00323	,	0
22,53	,	62631	,	-24073	,	-21539	,	-11.423964	,	0
22,53	,	62647	,	-24083	,	-21552	,	-12.873346	,	0
22,53	,	62679	,	-24081	,	-21547	,	-14.249277	,	0
22,53	,	62695	,	-24075	,	-21544	,	-15.378796	,	0
22,53	,	62711	,	-24053	,	-21536	,	-15.843383	,	0
22,53	,	62743	,	-24041	,	-21539	,	-15.024414	,	0
22,53	,	62759	,	-24034	,	-21533	,	-12.446204	,	0
22,53	,	62791	,	-24009	,	-21504	,	-8.027981	,	2
22,53	,	62807	,	-23999	,	-21505	,	-1.9738779	,	6
22,53	,	62823	,	-23992	,	-21509	,	5.2718663	,	12
22,53	,	62855	,	-23990	,	-21505	,	12.939942	,	19
22,53	,	62871	,	-23997	,	-21505	,	20.030289	,	26
22,53	,	62887	,	-24000	,	-21509	,	25.527554	,	33
22,53	,	62919	,	-23994	,	-21501	,	28.714924	,	38
22,53	,	62935	,	-23998	,	-21502	,	29.417645	,	41
22,53	,	62967	,	-23991	,	-21498	,	27.932009	,	41
22,53	,	62983	,	-23995	,	-21505	,	24.82366	,	39
22,53	,	62999	,	-23988	,	-21514	,	20.763218	,	35
22,53	,	63031	,	-23980	,	-21502	,	16.443398	,	29
22,53	,	63046	,	-23997	,	-21503	,	12.431988	,	22
22,53	,	63063	,	-23988	,	-21502	,	8.954046	,	15
22,53	,	63095	,	-23993	,	-21508	,	6.0079994	,	8
22,53	,	63111	,	-23987	,	-21513	,	3.6135116	,	3
22,53	,	63142	,	-24005	,	-21502	,	1.7472916	,	0
22,53	,	63159	,	-24000	,	-21512	,	0.22175503	,	0
22,53	,	63174	,	-24017	,	-21511	,	-1.2262642	,	0
22,53	,	63206	,	-23999	,	-21515	,	-2.740751	,	0
22,53	,	63222	,	-24013	,	-21513	,	-4.229205	,	0
22,53	,	63238	,	-24015	,	-21520	,	-5.534939	,	0
22,53	,	63271	,	-24021	,	-21512	,	-6.6577835	,	0
22,54	,	63287	,	-24032	,	-21522	,	-7.7173486	,	0
22,54	,	63303	,	-24035	,	-21529	,	-8.864586	,	0
22,54	,	63334	,	-24035	,	-21527	,	-10.153592	,	0
22,54	,	63350	,	-24047	,	-21533	,	-11.483272	,	0
22,54	,	63382	,	-24047	,	-21531	,	-12.748125	,	0
22,54	,	63398	,	-24043	,	-21531	,	-13.833263	,	0
22,54	,	63414	,	-24056	,	-21538	,	-14.562336	,	0
22,54	,	63447	,	-24051	,	-21534	,	-14.855318	,	0
22,54	,	63463	,	-24056	,	-21550	,	-14.737179	,	0
22,54	,	63479	,	-24061	,	-21543	,	-14.250988	,	0
22,54	,	63510	,	-24055	,	-21534	,	-13.467712	,	0
22,54	,	63526	,	-24021	,	-21524	,	-12.250183	,	0
22,54	,	63558	,	-24006	,	-21509	,	-10.029385	,	1
22,54	,	63574	,	-24001	,	-21515	,	-6.2319255	,	3
22,54	,	63590	,	-23980	,	-21512	,	-0.8160057	,	6
22,54	,	63623	,	-23977	,	-21510	,	5.792799	,	11
22,54	,	63639	,	-23976	,	-21496	,	12.885698	,	17
22,54	,	63654	,	-23982	,	-21505	,	19.5022	,	24
22,54	,	63686	,	-23972	,	-21502	,	24.688425	,	30
22,54	,	63702	,	-23980	,	-21511	,	27.852633	,	35
22,54	,	63718	,	-23984	,	-21495	,	28.789639	,	38
22,54	,	63750	,	-23986	,	-21500	,	27.549994	,	37
22,54	,	63766	,	-23981	,	-21506	,	24.472507	,	35
22,54	,	63799	,	-23973	,	-21503	,	20.221268	,	32
22,54	,	63814	,	-23976	,	-21508	,	15.6135235	,	27
22,54	,	63831	,	-23975	,	-21504	,	11.304829	,	21
22,54	,	63862	,	-23977	,	-21505	,	7.6311226	,	14
22,54	,	63878	,	-23982	,	-21509	,	4.6697006	,	8
22,54	,	63894	,	-23982	,	-21507	,	2.3408399	,	3
22,54	,	63926	,	-23975	,	-21507	,	0.55801606	,	0
22,54	,	63942	,	-23975	,	-21514	,	-0.65953827	,	0
22,54	,	63974	,	-23987	,	-21491	,	-1.325411	,	0
22,54	,	63990	,	-23997	,	-21509	,	-1.7059749	,	0
22,54	,	64006	,	-24002	,	-21517	,	-2.2394238	,	0
22,54	,	64038	,	-24001	,	-21524	,	-3.2120428	,	0
22,54	,	64054	,	-24013	,	-21518	,	-4.6328015	,	0
22,54	,	64070	,	-24013	,	-21522	,	-6.385256	,	0
22,54	,	64102	,	-24014	,	-21521	,	-8.288211	,	0
22,54	,	64118	,	-24022	,	-21521	,	-10.09588	,	0
22,54	,	64134	,	-24022	,	-21528	,	-11.617439	,	0
22,54	,	64166	,	-24024	,	-21523	,	-12.738065	,	0
22,54	,	64182	,	-24029	,	-21534	,	-13.381448	,	0
22,54	,	64214	,	-24038	,	-21514	,	-13.5925045	,	0
22,54	,	64230	,	-24043	,	-21530	,	-13.571755	,	0
22,54	,	64247	,	-24058	,	-21533	,	-13.594263	,	0
22,54	,	64278	,	-24061	,	-21542	,	-13.913689	,	0
22,55	,	64294	,	-24048	,	-21536	,	-14.549183	,	0
22,55	,	64310	,	-24029	,	-21525	,	-15.037405	,	0
22,55	,	64342	,	-24016	,	-21516	,	-14.56356	,	0
22,55	,	64358	,	-24008	,	-21521	,	-12.46015	,	0
22,55	,	64390	,	-23999	,	-21518	,	-8.577763	,	2
22,55	,	64406	,	-23994	,	-21513	,	-3.2762308	,	5
22,55	,	64422	,	-24002	,	-21516	,	2.7181468	,	10
22,55	,	64454	,	-23988	,	-21498	,	8.517607	,	15
22,55	,	64470	,	-23984	,	-21503	,	13.454255	,	20
22,55	,	64486	,	-23981	,	-21513	,	17.239803	,	24
22,55	,	64518	,	-23980	,	-21503	,	19.769722	,	27
22,55	,	64534	,	-23982	,	-21509	,	20.991486	,	29
22,55	,	64550	,	-23991	,	-21510	,	20.878698	,	30
22,55	,	64582	,	-23986	,	-21507	,	19.454073	,	28
22,55	,	64598	,	-23986	,	-21516	,	16.923277	,	25
22,55	,	64630	,	-23977	,	-21508	,	13.740026	,	20
22,55	,	64646	,	-23980	,	-21512	,	10.464932	,	15
22,55	,	64662	,	-23978	,	-21513	,	7.534933	,	10
22,55	,	64694	,	-23992	,	-21493	,	5.103499	,	6
22,55	,	64710	,	-23992	,	-21514	,	3.044755	,	3
22,55	,	64726	,	-23996	,	-21509	,	1.1487269	,	1
22,55	,	64758	,	-24005	,	-21513	,	-0.7218883	,	0
22,55	,	64774	,	-24004	,	-21514	,	-2.636086	,	0
22,55	,	64806	,	-24000	,	-21519	,	-4.5215836	,	0
22,55	,	64822	,	-24012	,	-21520	,	-6.178554	,	0
22,55	,	64838	,	-24013	,	-21515	,	-7.515133	,	0
22,55	,	64870	,	-24022	,	-21512	,	-8.604844	,	0
22,55	,	64886	,	-24012	,	-21526	,	-9.499397	,	0
22,55	,	64902	,	-24033	,	-21537	,	-10.177082	,	0
22,55	,	64934	,	-24027	,	-21520	,	-10.693259	,	0
22,55	,	64950	,	-24040	,	-21537	,	-11.173744	,	0
22,55	,	64966	,	-24054	,	-21537	,	-11.761927	,	0
22,55	,	64998	,	-24052	,	-21540	,	-12.6301985	,	0
22,55	,	65014	,	-24051	,	-21547	,	-13.766426	,	0
22,55	,	65046	,	-24059	,	-21548	,	-14.902264	,	0
22,55	,	65062	,	-24063	,	-21546	,	-15.792353	,	0
22,55	,	65078	,	-24058	,	-21544	,	-16.31265	,	0
22,55	,	65110	,	-24055	,	-21542	,	-16.304138	,	0
22,55	,	65126	,	-24040	,	-21538	,	-15.506262	,	0
22,55	,	65142	,	-24033	,	-21560	,	-13.635461	,	0
22,55	,	65174	,	-24023	,	-21509	,	-10.537078	,	1
22,55	,	65190	,	-24004	,	-21520	,	-6.2479377	,	4
22,55	,	65222	,	-24018	,	-21516	,	-1.020546	,	8
22,55	,	65238	,	-24019	,	-21533	,	4.5018344	,	13
22,55	,	65254	,	-24015	,	-21521	,	9.426555	,	18
22,56	,	65286	,	-24010	,	-21516	,	13.121945	,	22
22,56	,	65302	,	-24021	,	-21526	,	15.348896	,	25
22,56	,	65318	,	-24008	,	-21528	,	16.09012	,	27
22,56	,	65350	,	-24008	,	-21532	,	15.572284	,	27
22,56	,	65366	,	-24012	,	-21534	,	14.199895	,	26
22,56	,	65382	,	-24020	,	-21540	,	12.263828	,	23
22,56	,	65414	,	-24022	,	-21512	,	9.860845	,	19
22,56	,	65430	,	-24023	,	-21527	,	7.078108	,	14
22,56	,	65462	,	-24018	,	-21536	,	4.144813	,	9
22,56	,	65478	,	-24025	,	-21532	,	1.3781886	,	5
22,56	,	65493	,	-24032	,	-21526	,	-1.0268099	,	2
22,56	,	65526	,	-24038	,	-21538	,	-3.1003592	,	0
22,56	,	65542	,	-24044	,	-21536	,	-4.985523	,	0
22,56	,	65558	,	-24045	,	-21541	,	-6.778409	,	0
22,56	,	65590	,	-24044	,	-21540	,	-8.434323	,	0
22,56	,	65606	,	-24050	,	-21544	,	-9.803692	,	0
22,56	,	65637	,	-24056	,	-21562	,	-10.796969	,	0
22,56	,	65653	,	-24053	,	-21531	,	-11.4304495	,	0
22,56	,	65670	,	-24065	,	-21544	,	-11.748227	,	0
22,56	,	65702	,	-24060	,	-21544	,	-11.820265	,	0
22,56	,	65718	,	-24077	,	-21557	,	-11.759271	,	0
22,56	,	65734	,	-24070	,	-21555	,	-11.701418	,	0
22,56	,	65766	,	-24087	,	-21560	,	-11.759908	,	0
22,56	,	65782	,	-24088	,	-21556	,	-12.022064	,	0
22,56	,	65798	,	-24096	,	-21554	,	-12.548519	,	0
22,56	,	65830	,	-24088	,	-21557	,	-13.257134	,	0
22,56	,	65846	,	-24087	,	-21559	,	-13.853991	,	0
22,56	,	65877	,	-24092	,	-21582	,	-14.003705	,	0
22,56	,	65894	,	-24089	,	-21547	,	-13.561502	,	0
22,56	,	65910	,	-24076	,	-21545	,	-12.496752	,	0
22,56	,	65942	,	-24067	,	-21535	,	-10.680752	,	1
22,56	,	65958	,	-24048	,	-21544	,	-7.899516	,	2
22,56	,	65974	,	-24048	,	-21532	,	-4.0415564	,	4
22,56	,	66006	,	-24062	,	-21531	,	0.59470797	,	7
22,56	,	66021	,	-24043	,	-21535	,	5.287198	,	11
22,56	,	66054	,	-24051	,	-21527	,	9.370317	,	15
22,56	,	66070	,	-24044	,	-21533	,	12.477018	,	19
22,56	,	66086	,	-24040	,	-21537	,	14.465308	,	22
22,56	,	66117	,	-24050	,	-21545	,	15.355676	,	23
22,56	,	66133	,	-24052	,	-21521	,	15.169324	,	22
22,56	,	66149	,	-24060	,	-21540	,	13.883492	,	21
22,56	,	66181	,	-24054	,	-21535	,	11.591408	,	19
22,56	,	66198	,	-24053	,	-21532	,	8.628954	,	16
22,56	,	66214	,	-24050	,	-21537	,	5.5106006	,	12
22,56	,	66246	,	-24045	,	-21544	,	2.743464	,	8
22,56	,	66262	,	-24053	,	-21538	,	0.66858864	,	4
22,57	,	66293	,	-24055	,	-21546	,	-0.6669147	,	1
22,57	,	66309	,	-24054	,	-21541	,	-1.4471697	,	0
22,57	,	66325	,	-24055	,	-21542	,	-1.8625071	,	0
22,57	,	66358	,	-24069	,	-21559	,	-2.0954342	,	0
22,57	,	66373	,	-24072	,	-21536	,	-2.4316382	,	0
22,57	,	66389	,	-24067	,	-21550	,	-3.0924206	,	0
22,57	,	66421	,	-24084	,	-21553	,	-4.0797176	,	0
22,57	,	66437	,	-24074	,	-21557	,	-5.311781	,	0
22,57	,	66469	,	-24090	,	-21558	,	-6.6834025	,	0
22,57	,	66485	,	-24097	,	-21561	,	-8.125844	,	0
22,57	,	66502	,	-24099	,	-21561	,	-9.672139	,	0
22,57	,	66533	,	-24101	,	-21560	,	-11.284485	,	0
22,57	,	66549	,	-24105	,	-21560	,	-12.781505	,	0
22,57	,	66565	,	-24105	,	-21569	,	-13.960857	,	0
22,57	,	66597	,	-24107	,	-21573	,	-14.663815	,	0
22,57	,	66613	,	-24125	,	-21561	,	-14.875679	,	0
22,57	,	66645	,	-24119	,	-21575	,	-14.78861	,	0
22,57	,	66661	,	-24127	,	-21572	,	-14.597573	,	0
22,57	,	66678	,	-24121	,	-21567	,	-14.32466	,	0
22,57	,	66709	,	-24108	,	-21565	,	-13.794748	,	0
22,57	,	66725	,	-24101	,	-21560	,	-12.653873	,	0
22,57	,	66742	,	-24086	,	-21552	,	-10.541021	,	1
22,57	,	66773	,	-24089	,	-21552	,	-7.3136687	,	3
22,57	,	66789	,	-24078	,	-21551	,	-3.1662445	,	6
22,57	,	66805	,	-24078	,	-21555	,	1.4536014	,	10
22,57	,	66837	,	-24063	,	-21563	,	6.0803494	,	14
22,57	,	66853	,	-24070	,	-21550	,	10.347237	,	18
22,57	,	66885	,	-24064	,	-21545	,	13.913612	,	22
22,57	,	66901	,	-24060	,	-21545	,	16.491858	,	25
22,57	,	66917	,	-24059	,	-21550	,	17.98387	,	27
22,57	,	66949	,	-24067	,	-21546	,	18.40625	,	27
22,57	,	66965	,	-24064	,	-21542	,	17.76717	,	25
22,57	,	66981	,	-24064	,	-21538	,	16.152418	,	22
22,57	,	67013	,	-24070	,	-21541	,	13.781646	,	18
22,57	,	67030	,	-24061	,	-21534	,	10.951038	,	14
22,57	,	67061	,	-24069	,	-21549	,	7.998925	,	10
22,57	,	67077	,	-24064	,	-21538	,	5.2226214	,	6
22,57	,	67093	,	-24063	,	-21538	,	2.8354788	,	3
22,57	,	67125	,	-24077	,	-21550	,	0.93339586	,	1
22,57	,	67141	,	-24079	,	-21547	,	-0.6156471	,	0
22,57	,	67157	,	-24086	,	-21555	,	-2.0690293	,	0
22,57	,	67189	,	-24080	,	-21552	,	-3.557091	,	0
22,57	,	67205	,	-24085	,	-21550	,	-4.9970746	,	0
22,57	,	67221	,	-24086	,	-21559	,	-6.218469	,	0
22,57	,	67253	,	-24091	,	-21554	,	-7.1294003	,	0
22,57	,	67269	,	-24098	,	-21554	,	-7.7703724	,	0
22,58	,	67301	,	-24098	,	-21561	,	-8.260745	,	0
22,58	,	67317	,	-24096	,	-21555	,	-8.655319	,	0
22,58	,	67333	,	-24113	,	-21557	,	-8.949325	,	0
22,58	,	67365	,	-24122	,	-21559	,	-9.299979	,	0
22,58	,	67381	,	-24116	,	-21572	,	-9.942675	,	0
22,58	,	67397	,	-24127	,	-21568	,	-10.882797	,	0
22,58	,	67429	,	-24132	,	-21571	,	-11.971647	,	0
22,58	,	67445	,	-24128	,	-21578	,	-13.065912	,	0
22,58	,	67477	,	-24129	,	-21575	,	-13.941723	,	0
22,58	,	67493	,	-24120	,	-21568	,	-14.290224	,	0
22,58	,	67509	,	-24112	,	-21567	,	-13.804956	,	0
22,58	,	67541	,	-24095	,	-21568	,	-12.20549	,	0
22,58	,	67557	,	-24085	,	-21552	,	-9.273659	,	1
22,58	,	67573	,	-24074	,	-21543	,	-4.9724965	,	3
22,58	,	67605	,	-24071	,	-21550	,	0.4293084	,	7
22,58	,	67621	,	-24076	,	-21542	,	6.311425	,	12
22,58	,	67637	,	-24070	,	-21547	,	11.83038	,	17
22,58	,	67669	,	-24065	,	-21539	,	16.279896	,	22
22,58	,	67685	,	-24061	,	-21540	,	19.342854	,	26
22,58	,	67717	,	-24075	,	-21540	,	20.93701	,	29
22,58	,	67733	,	-24072	,	-21539	,	20.98975	,	30
22,58	,	67749	,	-24072	,	-21538	,	19.537827	,	29
22,58	,	67781	,	-24058	,	-21546	,	16.953266	,	27
22,58	,	67797	,	-24068	,	-21532	,	13.8600025	,	23
22,58	,	67813	,	-24056	,	-21536	,	10.812239	,	18
22,58	,	67845	,	-24060	,	-21543	,	8.167824	,	13
22,58	,	67861	,	-24075	,	-21542	,	6.0401425	,	8
22,58	,	67893	,	-24085	,	-21545	,	4.17463	,	4
22,58	,	67909	,	-24072	,	-21540	,	2.2139204	,	1
22,58	,	67925	,	-24079	,	-21539	,	0.13882041	,	0
22,58	,	67957	,	-24087	,	-21550	,	-1.8509905	,	0
22,58	,	67973	,	-24089	,	-21549	,	-3.6773586	,	0
22,58	,	67989	,	-24081	,	-21546	,	-5.3017354	,	0
22,58	,	68021	,	-24082	,	-21560	,	-6.5379395	,	0
22,58	,	68037	,	-24104	,	-21535	,	-7.2747555	,	0
22,58	,	68053	,	-24098	,	-21549	,	-7.726292	,	0
22,58	,	68085	,	-24093	,	-21553	,	-8.117366	,	0
22,58	,	68101	,	-24103	,	-21558	,	-8.402593	,	0
22,58	,	68132	,	-24120	,	-21559	,	-8.597555	,	0
22,58	,	68149	,	-24117	,	-21560	,	-8.960907	,	0
22,58	,	68165	,	-24120	,	-21564	,	-9.655724	,	0
22,58	,	68197	,	-24118	,	-21568	,	-10.548542	,	0
22,58	,	68213	,	-24132	,	-21566	,	-11.416755	,	0
22,58	,	68229	,	-24133	,	-21569	,	-12.184557	,	0
22,58	,	68261	,	-24128	,	-21581	,	-12.833464	,	0
22,58	,	68277	,	-24123	,	-21562	,	-13.180187	,	0
22,59	,	68308	,	-24113	,	-21559	,	-12.893671	,	0
22,59	,	68324	,	-24097	,	-21551	,	-11.614279	,	0
22,59	,	68341	,	-24094	,	-21552	,	-9.076925	,	1
22,59	,	68373	,	-24080	,	-21542	,	-5.279775	,	3
22,59	,	68389	,	-24071	,	-21543	,	-0.47367573	,	6
22,59	,	68405	,	-24069	,	-21542	,	4.9353557	,	10
22,59	,	68437	,	-24079	,	-21545	,	10.318789	,	15
22,59	,	68453	,	-24077	,	-21546	,	14.858223	,	20
22,59	,	68468	,	-24067	,	-21547	,	17.930796	,	24
22,59	,	68500	,	-24077	,	-21561	,	19.377087	,	27
22,59	,	68517	,	-24076	,	-21528	,	19.28904	,	28
22,59	,	68549	,	-24071	,	-21550	,	17.856544	,	27
22,59	,	68565	,	-24070	,	-21542	,	15.464728	,	25
22,59	,	68581	,	-24071	,	-21547	,	12.605308	,	22
22,59	,	68613	,	-24087	,	-21539	,	9.605773	,	18
22,59	,	68629	,	-24068	,	-21550	,	6.6069207	,	13
22,59	,	68644	,	-24068	,	-21547	,	3.8646173	,	8
22,59	,	68676	,	-24084	,	-21538	,	1.6842623	,	4
22,59	,	68692	,	-24081	,	-21542	,	0.043665886	,	1
22,59	,	68725	,	-24088	,	-21547	,	-1.2981851	,	0
22,59	,	68741	,	-24087	,	-21560	,	-2.5051012	,	0
22,59	,	68757	,	-24105	,	-21535	,	-3.6945467	,	0
22,59	,	68788	,	-24108	,	-21553	,	-5.055879	,	0
22,59	,	68805	,	-24099	,	-21556	,	-6.68027	,	0
22,59	,	68820	,	-24104	,	-21555	,	-8.335086	,	0
22,59	,	68852	,	-24100	,	-21548	,	-9.637718	,	0
22,59	,	68869	,	-24110	,	-21557	,	-10.360854	,	0
22,59	,	68885	,	-24104	,	-21557	,	-10.498589	,	0
22,59	,	68917	,	-24108	,	-21561	,	-10.138813	,	0
22,59	,	68933	,	-24120	,	-21565	,	-9.436211	,	0
22,59	,	68964	,	-24104	,	-21565	,	-8.607893	,	0
22,59	,	68980	,	-24122	,	-21568	,	-7.777065	,	0
22,59	,	68996	,	-24127	,	-21553	,	-7.071946	,	0
22,59	,	69028	,	-24115	,	-21556	,	-6.6699247	,	0
22,59	,	69044	,	-24109	,	-21554	,	-6.467429	,	0
22,59	,	69060	,	-24091	,	-21548	,	-6.015398	,	0
22,59	,	69093	,	-24082	,	-21542	,	-4.7741804	,	0
22,59	,	69109	,	-24079	,	-21539	,	-2.4087355	,	1
22,59	,	69140	,	-24069	,	-21545	,	1.012764	,	3
22,59	,	69156	,	-24077	,	-21541	,	5.066174	,	6
22,59	,	69172	,	-24069	,	-21536	,	9.127669	,	10
22,59	,	69204	,	-24071	,	-21544	,	12.596718	,	14
22,59	,	69220	,	-24074	,	-21561	,	15.051926	,	17
22,59	,	69236	,	-24074	,	-21534	,	16.232948	,	19
22,59	,	69269	,	-24086	,	-21542	,	16.020897	,	20
23,0	,	69284	,	-24065	,	-21544	,	14.529182	,	20
23,0	,	69316	,	-24079	,	-21544	,	12.183399	,	19
23,0	,	69333	,	-24073	,	-21543	,	9.487696	,	17
23,0	,	69348	,	-24068	,	-21543	,	6.815956	,	14
23,0	,	69380	,	-24073	,	-21537	,	4.473079	,	10
23,0	,	69396	,	-24073	,	-21548	,	2.6318173	,	6
23,0	,	69412	,	-24070	,	-21532	,	1.2956483	,	3
23,0	,	69444	,	-24070	,	-21558	,	0.4257574	,	1
23,0	,	69461	,	-24089	,	-21560	,	-0.10959995	,	0
23,0	,	69477	,	-24101	,	-21538	,	-0.7077589	,	0
23,0	,	69508	,	-24091	,	-21551	,	-1.8109447	,	0
23,0	,	69524	,	-24100	,	-21553	,	-3.4703238	,	0
23,0	,	69556	,	-24098	,	-21559	,	-5.394075	,	0
23,0	,	69572	,	-24099	,	-21554	,	-7.2383957	,	0
23,0	,	69588	,	-24112	,	-21559	,	-8.768013	,	0
23,0	,	69620	,	-24112	,	-21558	,	-9.961531	,	0
23,0	,	69637	,	-24108	,	-21560	,	-10.866741	,	0
23,0	,	69652	,	-24109	,	-21566	,	-11.39048	,	0
23,0	,	69684	,	-24116	,	-21573	,	-11.423561	,	0
23,0	,	69700	,	-24121	,	-21577	,	-11.044709	,	0
23,0	,	69732	,	-24128	,	-21560	,	-10.498718	,	0
23,0	,	69748	,	-24112	,	-21559	,	-9.964891	,	0
23,0	,	69764	,	-24093	,	-21557	,	-9.24449	,	0
23,0	,	69796	,	-24089	,	-21550	,	-7.8099403	,	0
23,0	,	69812	,	-24074	,	-21544	,	-5.2579837	,	1
23,0	,	69828	,	-24060	,	-21539	,	-1.501904	,	3
23,0	,	69860	,	-24054	,	-21549	,	3.3152936	,	6
23,0	,	69876	,	-24056	,	-21539	,	8.757072	,	10
23,0	,	69892	,	-24062	,	-21532	,	14.046866	,	15
23,0	,	69924	,	-24049	,	-21543	,	18.361582	,	20
23,0	,	69940	,	-24049	,	-21547	,	21.24591	,	24
23,0	,	69972	,	-24054	,	-21534	,	22.610287	,	26
23,0	,	69988	,	-24059	,	-21535	,	22.449116	,	27
23,0	,	70004	,	-24048	,	-21529	,	20.864605	,	26
23,0	,	70036	,	-24054	,	-21525	,	18.220715	,	24
23,0	,	70052	,	-24045	,	-21528	,	15.027059	,	21
23,0	,	70068	,	-24048	,	-21528	,	11.766714	,	17
23,0	,	70100	,	-24047	,	-21530	,	8.8015175	,	12
23,0	,	70116	,	-24039	,	-21526	,	6.3514075	,	7
23,0	,	70148	,	-24054	,	-21532	,	4.5093694	,	3
23,0	,	70164	,	-24036	,	-21526	,	3.2275696	,	1
23,0	,	70180	,	-24040	,	-21529	,	2.455162	,	0
23,0	,	70212	,	-24055	,	-21529	,	2.1095939	,	0
23,0	,	70228	,	-24054	,	-21535	,	1.8699213	,	0
23,0	,	70244	,	-24061	,	-21541	,	1.3609719	,	0
23,0	,	70276	,	-24072	,	-21533	,	0.36451596	,	0
23,1	,	70292	,	-24067	,	-21537	,	-1.1955295	,	0
23,1	,	70308	,	-24067	,	-21539	,	-3.1606534	,	0
23,1	,	70340	,	-24075	,	-21541	,	-5.190255	,	0
23,1	,	70356	,	-24084	,	-21537	,	-7.064488	,	0
23,1	,	70388	,	-24082	,	-21543	,	-8.751274	,	0
23,1	,	70405	,	-24089	,	-21546	,	-10.22467	,	0
23,1	,	70420	,	-24090	,	-21549	,	-11.416892	,	0
23,1	,	70452	,	-24100	,	-21549	,	-12.3015585	,	0
23,1	,	70468	,	-24087	,	-21542	,	-12.86862	,	0
23,1	,	70484	,	-24064	,	-21544	,	-12.876455	,	0
23,1	,	70516	,	-24060	,	-21528	,	-11.788387	,	0
23,1	,	70532	,	-24047	,	-21522	,	-9.19072	,	1
23,1	,	70564	,	-24025	,	-21524	,	-5.025657	,	3
23,1	,	70580	,	-24036	,	-21519	,	0.46384716	,	7
23,1	,	70596	,	-24018	,	-21501	,	6.669753	,	12
23,1	,	70628	,	-24014	,	-21501	,	12.828294	,	18
23,1	,	70644	,	-24008	,	-21508	,	18.34591	,	24
23,1	,	70660	,	-24007	,	-21492	,	22.783958	,	29
23,1	,	70692	,	-24002	,	-21516	,	25.824518	,	33
23,1	,	70708	,	-23999	,	-21503	,	27.349987	,	36
23,1	,	70724	,	-24006	,	-21500	,	27.405346	,	36
23,1	,	70756	,	-23999	,	-21507	,	26.103067	,	34
23,1	,	70772	,	-23985	,	-21502	,	23.747356	,	30
23,1	,	70804	,	-23982	,	-21493	,	20.931122	,	25
23,1	,	70820	,	-23986	,	-21496	,	18.222023	,	19
23,1	,	70836	,	-23987	,	-21501	,	15.831535	,	13
23,1	,	70868	,	-23988	,	-21496	,	13.682218	,	8
23,1	,	70884	,	-23997	,	-21511	,	11.60382	,	4
23,1	,	70900	,	-23991	,	-21491	,	9.439917	,	1
23,1	,	70932	,	-23999	,	-21497	,	7.143089	,	0
23,1	,	70948	,	-23997	,	-21501	,	4.7783647	,	0
23,1	,	70980	,	-23995	,	-21505	,	2.4833894	,	0
23,1	,	70996	,	-23995	,	-21505	,	0.4637637	,	0
23,1	,	71012	,	-24008	,	-21505	,	-1.1574018	,	0
23,1	,	71044	,	-24014	,	-21503	,	-2.5137532	,	0
23,1	,	71059	,	-24022	,	-21504	,	-3.8929546	,	0
23,1	,	71075	,	-24021	,	-21500	,	-5.478292	,	0
23,1	,	71108	,	-24011	,	-21509	,	-7.162509	,	0
23,1	,	71124	,	-24030	,	-21524	,	-8.64266	,	0
23,1	,	71140	,	-24028	,	-21507	,	-9.766501	,	0
23,1	,	71172	,	-24022	,	-21512	,	-10.535939	,	0
23,1	,	71188	,	-24041	,	-21514	,	-10.930489	,	0
23,1	,	71219	,	-24026	,	-21515	,	-10.99222	,	0
23,1	,	71235	,	-24020	,	-21512	,	-10.702663	,	0
23,1	,	71251	,	-24009	,	-21505	,	-9.813175	,	0
23,2	,	71284	,	-23993	,	-21501	,	-8.000223	,	0
23,2	,	71300	,	-23990	,	-21495	,	-5.061597	,	1
23,2	,	71316	,	-23969	,	-21492	,	-1.0161166	,	3
23,2	,	71348	,	-23957	,	-21486	,	3.97482	,	7
23,2	,	71363	,	-23958	,	-21490	,	9.622803	,	11
23,2	,	71395	,	-23945	,	-21471	,	15.398446	,	16
23,2	,	71411	,	-23938	,	-21483	,	20.706457	,	21
23,2	,	71428	,	-23933	,	-21480	,	25.116726	,	26
23,2	,	71460	,	-23936	,	-21475	,	28.312212	,	30
23,2	,	71476	,	-23946	,	-21475	,	29.964928	,	33
23,2	,	71492	,	-23933	,	-21475	,	29.836473	,	33
23,2	,	71524	,	-23939	,	-21472	,	28.030762	,	31
23,2	,	71540	,	-23940	,	-21472	,	24.933409	,	27
23,2	,	71571	,	-23940	,	-21470	,	20.961449	,	23
23,2	,	71587	,	-23931	,	-21479	,	16.57102	,	18
23,2	,	71604	,	-23937	,	-21493	,	12.279575	,	13
23,2	,	71636	,	-23939	,	-21470	,	8.465079	,	8
23,2	,	71652	,	-23948	,	-21481	,	5.220536	,	4
23,2	,	71668	,	-23939	,	-21481	,	2.4766884	,	1
23,2	,	71699	,	-23942	,	-21479	,	0.22934341	,	0
23,2	,	71716	,	-23948	,	-21483	,	-1.4708323	,	0
23,2	,	71732	,	-23945	,	-21478	,	-2.6669052	,	0
23,2	,	71763	,	-23960	,	-21483	,	-3.5060315	,	0
23,2	,	71779	,	-23947	,	-21482	,	-4.1654596	,	0
23,2	,	71811	,	-23959	,	-21496	,	-4.7309184	,	0
23,2	,	71827	,	-23969	,	-21493	,	-5.2578	,	0
23,2	,	71843	,	-23974	,	-21509	,	-5.9347754	,	0
23,2	,	71875	,	-23983	,	-21479	,	-6.9695263	,	0
23,2	,	71892	,	-23980	,	-21489	,	-8.398318	,	0
23,2	,	71908	,	-23984	,	-21497	,	-10.031834	,	0
23,2	,	71940	,	-23992	,	-21501	,	-11.592152	,	0
23,2	,	71956	,	-24002	,	-21496	,	-12.9505205	,	0
23,2	,	71987	,	-24006	,	-21504	,	-14.155319	,	0
23,2	,	72003	,	-24012	,	-21505	,	-15.273191	,	0
23,2	,	72019	,	-23998	,	-21503	,	-16.212734	,	0
23,2	,	72051	,	-23991	,	-21495	,	-16.612675	,	0
23,2	,	72067	,	-23978	,	-21499	,	-15.961267	,	0
23,2	,	72084	,	-23956	,	-21498	,	-13.807672	,	0
23,2	,	72115	,	-23955	,	-21471	,	-9.916786	,	2
23,2	,	72131	,	-23937	,	-21472	,	-4.438525	,	5
23,2	,	72147	,	-23930	,	-21471	,	2.134585	,	10
23,2	,	72180	,	-23925	,	-21473	,	9.148224	,	16
23,2	,	72195	,	-23921	,	-21467	,	15.86447	,	23
23,2	,	72227	,	-23933	,	-21474	,	21.511326	,	29
23,2	,	72243	,	-23932	,	-21470	,	25.352495	,	34
23,2	,	72259	,	-23941	,	-21473	,	26.874186	,	37
23,3	,	72291	,	-23936	,	-21467	,	25.990532	,	38
23,3	,	72308	,	-23929	,	-21467	,	23.114246	,	36
23,3	,	72323	,	-23934	,	-21479	,	19.016079	,	33
23,3	,	72355	,	-23931	,	-21451	,	14.476081	,	28
23,3	,	72371	,	-23929	,	-21469	,	10.092888	,	22
23,3	,	72403	,	-23928	,	-21466	,	6.3039484	,	15
23,3	,	72419	,	-23923	,	-21467	,	3.384615	,	9
23,3	,	72435	,	-23931	,	-21478	,	1.4225659	,	4
23,3	,	72467	,	-23947	,	-21481	,	0.21261716	,	1
23,3	,	72483	,	-23938	,	-21477	,	-0.68766963	,	0
23,3	,	72499	,	-23955	,	-21473	,	-1.6413785	,	0
23,3	,	72531	,	-23946	,	-21472	,	-2.801274	,	0
23,3	,	72547	,	-23945	,	-21471	,	-4.095165	,	0
23,3	,	72563	,	-23958	,	-21500	,	-5.3072295	,	0
23,3	,	72595	,	-23960	,	-21480	,	-6.3664856	,	0
23,3	,	72611	,	-23964	,	-21491	,	-7.3603764	,	0
23,3	,	72643	,	-23966	,	-21497	,	-8.323263	,	0
23,3	,	72659	,	-23970	,	-21490	,	-9.206834	,	0
23,3	,	72675	,	-23975	,	-21489	,	-9.964479	,	0
23,3	,	72707	,	-23973	,	-21499	,	-10.572776	,	0
23,3	,	72724	,	-23980	,	-21504	,	-10.996152	,	0
23,3	,	72739	,	-23992	,	-21506	,	-11.268885	,	0
23,3	,	72771	,	-23993	,	-21501	,	-11.556906	,	0
23,3	,	72787	,	-23999	,	-21506	,	-11.99592	,	0
23,3	,	72819	,	-23994	,	-21511	,	-12.538789	,	0
23,3	,	72835	,	-23994	,	-21498	,	-12.961794	,	0
23,3	,	72851	,	-23966	,	-21502	,	-12.864492	,	0
23,3	,	72883	,	-23961	,	-21491	,	-11.689414	,	0
23,3	,	72899	,	-23955	,	-21490	,	-9.037763	,	1
23,3	,	72915	,	-23946	,	-21479	,	-4.983724	,	3
23,3	,	72947	,	-23945	,	-21476	,	0.016596794	,	7
23,3	,	72963	,	-23947	,	-21479	,	5.2934737	,	12
23,3	,	72979	,	-23944	,	-21478	,	10.097116	,	17
23,3	,	73011	,	-23953	,	-21482	,	13.792637	,	21
23,3	,	73027	,	-23956	,	-21484	,	15.936668	,	24
23,3	,	73059	,	-23955	,	-21494	,	16.333887	,	26
23,3	,	73075	,	-23963	,	-21476	,	15.101306	,	26
23,3	,	73091	,	-23945	,	-21485	,	12.644348	,	25
23,3	,	73123	,	-23955	,	-21477	,	9.595271	,	23
23,3	,	73139	,	-23953	,	-21483	,	6.5535283	,	19
23,3	,	73155	,	-23960	,	-21480	,	3.824008	,	14
23,3	,	73187	,	-23963	,	-21482	,	1.463048	,	9
23,3	,	73203	,	-23955	,	-21485	,	-0.53176594	,	5
23,3	,	73235	,	-23961	,	-21486	,	-2.0949411	,	2
23,3	,	73251	,	-23964	,	-21492	,	-3.1808877	,	0
23,3	,	73267	,	-23963	,	-21489	,	-3.8602867	,	0
23,4	,	73299	,	-23973	,	-21504	,	-4.2713804	,	0
23,4	,	73315	,	-23974	,	-21500	,	-4.6021347	,	0
23,4	,	73331	,	-23987	,	-21498	,	-5.0666823	,	0
23,4	,	73363	,	-23991	,	-21498	,	-5.85724	,	0
23,4	,	73379	,	-23992	,	-21500	,	-7.0558357	,	0
23,4	,	73411	,	-24000	,	-21506	,	-8.563207	,	0
