RAW Data export file (comma separated)


Client:	John,Sample
Session:	Jarryd1 
Date:	24-07-2017
Time:	09:08:09
Duration:	245	Seconds.
Output rate:	128	Samples/sec.

128 SPS,32 SPS,
Sensor-G:BVP,Sensor-H:RSP,Events,


-48.324,758.778,,
-46.975,758.778,,
-45.855,758.778,,
-45.894,758.778,,
-44.792,886.073,,
-45.200,886.073,,
-45.320,886.073,,
-45.058,886.073,,
-46.296,886.141,,
-46.339,886.141,,
-47.312,886.141,,
-48.349,886.141,,
-48.460,886.180,,
-49.932,886.180,,
-50.023,886.180,,
-50.437,886.180,,
-51.312,886.141,,
-50.887,886.141,,
-51.809,886.141,,
-51.792,886.141,,
-51.628,886.230,,
-52.294,886.230,,
-51.474,886.230,,
-52.027,886.230,,
-52.179,886.318,,
-51.893,886.318,,
-52.960,886.318,,
-52.697,886.318,,
-53.317,886.278,,
-53.779,886.278,,
-53.268,886.278,,
-54.222,886.278,,
-54.028,886.284,,
-54.317,886.284,,
-54.921,886.284,,
-54.183,886.284,,
-54.781,886.422,,
-54.383,886.422,,
-53.937,886.422,,
-54.462,886.422,,
-53.747,886.481,,
-54.414,886.481,,
-54.508,886.481,,
-54.031,886.481,,
-54.618,886.603,,
-53.673,886.603,,
-53.686,886.603,,
-53.766,886.603,,
-53.036,886.751,,
-53.884,886.751,,
-53.543,886.751,,
-53.754,886.751,,
-54.363,886.897,,
-53.720,886.897,,
-54.525,886.897,,
-54.414,886.897,,
-54.249,887.009,,
-54.886,887.009,,
-54.153,887.009,,
-54.659,887.009,,
-54.506,887.232,,
-53.857,887.232,,
-54.562,887.232,,
-54.024,887.232,,
-54.537,887.413,,
-54.945,887.413,,
-54.363,887.413,,
-55.155,887.413,,
-54.677,887.552,,
-54.680,887.552,,
-55.070,887.552,,
-54.293,887.552,,
-55.008,887.803,,
-54.772,887.803,,
-54.549,887.803,,
-55.149,887.803,,
-54.274,888.140,,
-54.771,888.140,,
-54.672,888.140,,
-54.072,888.140,,
-54.758,888.610,,
-54.066,888.610,,
-54.353,888.610,,
-54.520,888.610,,
-53.756,889.149,,
-54.504,889.149,,
-54.042,889.149,,
-54.073,889.149,,
-54.520,889.664,,
-53.802,889.664,,
-54.534,889.664,,
-54.195,889.664,,
-53.874,890.165,,
-54.518,890.165,,
-53.832,890.165,,
-54.387,890.165,,
-54.352,890.881,,
-53.838,890.881,,
-54.583,890.881,,
-53.915,890.881,,
-54.352,891.733,,
-54.720,891.733,,
-54.198,891.733,,
-55.069,891.733,,
-54.631,892.514,,
-54.669,892.514,,
-55.100,892.514,,
-54.269,892.514,,
-54.960,892.842,,
-54.688,892.842,,
-54.446,892.842,,
-55.059,892.842,,
-54.108,892.992,,
-54.321,892.992,,
-53.715,892.992,,
-52.340,892.992,,
-52.017,893.358,,
-50.187,893.358,,
-49.195,893.358,,
-48.038,893.358,,
-46.030,893.923,,
-45.711,893.923,,
-44.341,893.923,,
-43.841,893.923,,
-44.086,894.756,,
-43.448,894.756,,
-44.498,894.756,,
-44.795,894.756,,
-45.366,895.787,,
-46.769,895.787,,
-46.717,895.787,,
-48.015,895.787,,
-48.654,896.880,,
-48.821,896.880,,
-50.114,896.880,,
-49.952,896.880,,
-50.713,898.164,,
-51.249,898.164,,
-50.877,898.164,,
-51.932,898.164,,
-51.732,899.728,,
-52.041,899.728,,
-52.582,899.728,,
-51.912,899.728,,
-52.704,901.000,,
-52.482,901.000,,
-52.380,901.000,,
-53.214,901.000,,
-52.697,902.268,,
-53.412,902.268,,
-53.470,902.268,,
-53.053,902.268,,
-53.848,903.701,,
-53.234,903.701,,
-53.646,903.701,,
-53.959,903.701,,
-53.433,905.257,,
-54.336,905.257,,
-53.812,905.257,,
-53.824,905.257,,
-54.127,907.224,,
-53.239,907.224,,
-53.894,907.224,,
-53.595,907.224,,
-53.386,909.177,,
-53.909,909.177,,
-53.090,909.177,,
-53.606,909.177,,
-53.557,910.976,,
-53.204,910.976,,
-54.041,910.976,,
-53.538,910.976,,
-54.075,912.664,,
-54.343,912.664,,
-53.716,912.664,,
-54.496,912.664,,
-54.005,914.364,,
-54.214,914.364,,
-54.770,914.364,,
-54.080,914.364,,
-54.886,915.930,,
-54.660,915.930,,
-54.557,915.930,,
-55.146,915.930,,
-54.477,917.370,,
-55.141,917.370,,
-55.111,917.370,,
-54.643,917.370,,
-55.232,918.833,,
-54.349,918.833,,
-54.591,918.833,,
-54.665,918.833,,
-54.000,920.311,,
-54.754,920.311,,
-54.197,920.311,,
-54.284,920.311,,
-54.653,921.868,,
-53.811,921.868,,
-54.441,921.868,,
-54.017,921.868,,
-53.792,923.517,,
-54.386,923.517,,
-53.702,923.517,,
-54.383,923.517,,
-54.247,924.835,,
-53.690,924.835,,
-54.320,924.835,,
-53.540,924.835,,
-53.898,926.107,,
-54.136,926.107,,
-53.484,926.107,,
-54.233,926.107,,
-53.602,927.569,,
-53.651,927.569,,
-54.118,927.569,,
-53.442,927.569,,
-54.401,929.079,,
-54.266,929.079,,
-54.172,929.079,,
-54.793,929.079,,
-53.847,930.532,,
-54.283,930.532,,
-54.162,930.532,,
-53.694,930.532,,
-54.453,931.555,,
-53.796,931.555,,
-54.185,931.555,,
-54.360,931.555,,
-53.679,932.351,,
-54.525,932.351,,
-54.065,932.351,,
-54.139,932.351,,
-54.409,933.436,,
-53.306,933.436,,
-53.512,933.436,,
-52.331,933.436,,
-51.040,934.606,,
-50.379,934.606,,
-48.315,934.606,,
-47.601,934.606,,
-46.275,935.954,,
-44.801,935.954,,
-44.760,935.954,,
-43.609,935.954,,
-43.887,937.386,,
-44.257,937.386,,
-44.121,937.386,,
-45.442,937.386,,
-45.515,938.360,,
-46.255,938.360,,
-47.355,938.360,,
-47.270,938.360,,
-48.779,939.406,,
-49.276,939.406,,
-49.859,939.406,,
-51.101,939.406,,
-50.806,940.429,,
-51.810,940.429,,
-51.943,940.429,,
-51.626,940.429,,
-52.526,941.350,,
-52.115,941.350,,
-52.751,941.350,,
-53.087,941.350,,
-52.586,941.968,,
-53.492,941.968,,
-53.130,941.968,,
-53.491,941.968,,
-54.163,942.400,,
-53.662,942.400,,
-54.477,942.400,,
-54.021,942.400,,
-53.692,942.521,,
-54.111,942.521,,
-53.109,942.521,,
-53.554,942.521,,
-53.295,942.449,,
-52.786,942.449,,
-53.390,942.449,,
-52.455,942.449,,
-52.709,942.007,,
-52.728,942.007,,
-52.066,942.007,,
-53.005,942.007,,
-52.571,941.240,,
-52.793,941.240,,
-53.237,941.240,,
-52.443,941.240,,
-53.169,940.438,,
-52.850,940.438,,
-52.808,940.438,,
-53.470,940.438,,
-52.774,939.610,,
-53.512,939.610,,
-53.478,939.610,,
-53.113,939.610,,
-53.876,938.681,,
-53.188,938.681,,
-53.608,938.681,,
-53.681,938.681,,
-53.066,937.789,,
-53.849,937.789,,
-53.190,937.789,,
-53.299,937.789,,
-53.725,936.978,,
-53.091,936.978,,
-53.921,936.978,,
-53.582,936.978,,
-53.428,936.080,,
-53.989,936.080,,
-53.100,936.080,,
-53.665,936.080,,
-53.562,935.300,,
-53.186,935.300,,
-53.914,935.300,,
-53.187,935.300,,
-53.602,934.425,,
-53.728,934.425,,
-53.090,934.425,,
-53.970,934.425,,
-53.479,933.457,,
-53.594,933.457,,
-53.904,933.457,,
-53.096,933.457,,
-53.890,932.615,,
-53.555,932.615,,
-53.465,932.615,,
-54.141,932.615,,
-53.409,931.813,,
-54.019,931.813,,
-53.919,931.813,,
-53.468,931.813,,
-54.065,930.925,,
-53.201,930.925,,
-53.593,930.925,,
-53.842,930.925,,
-53.356,929.698,,
-54.279,929.698,,
-53.853,929.698,,
-54.163,929.698,,
-54.658,928.040,,
-54.026,928.040,,
-54.934,928.040,,
-54.615,928.040,,
-54.462,926.351,,
-54.812,926.351,,
-53.470,926.351,,
-53.279,926.351,,
-52.031,924.791,,
-50.406,924.791,,
-49.781,924.791,,
-47.725,924.791,,
-46.854,923.057,,
-45.767,923.057,,
-44.258,923.057,,
-44.453,923.057,,
-43.680,921.176,,
-44.034,921.176,,
-44.853,921.176,,
-44.719,921.176,,
-46.114,919.498,,
-46.305,919.498,,
-46.717,919.498,,
-47.827,919.498,,
-47.757,917.837,,
-49.143,917.837,,
-49.590,917.837,,
-49.716,917.837,,
-50.857,916.058,,
-50.416,916.058,,
-51.139,916.058,,
-51.474,916.058,,
-51.003,914.518,,
-51.785,914.518,,
-51.164,914.518,,
-51.386,914.518,,
-51.761,912.955,,
-51.037,912.955,,
-51.887,912.955,,
-51.706,912.955,,
-51.875,911.226,,
-52.682,911.226,,
-52.175,911.226,,
-53.030,911.226,,
-52.913,909.697,,
-52.585,909.697,,
-53.456,909.697,,
-52.878,909.697,,
-53.331,908.336,,
-53.339,908.336,,
-52.514,908.336,,
-53.071,908.336,,
-52.238,906.955,,
-52.220,906.955,,
-52.448,906.955,,
-51.641,906.955,,
-52.316,905.627,,
-51.861,905.627,,
-51.789,905.627,,
-52.378,905.627,,
-51.708,904.507,,
-52.624,904.507,,
-52.837,904.507,,
-52.827,904.507,,
-53.747,903.473,,
-53.172,903.473,,
-53.761,903.473,,
-53.926,903.473,,
-53.419,902.539,,
-54.242,902.539,,
-53.680,902.539,,
-53.944,902.539,,
-54.283,901.732,,
-53.549,901.732,,
-54.333,901.732,,
-53.964,901.732,,
-53.986,900.841,,
-54.605,900.841,,
-53.866,900.841,,
-54.556,900.841,,
-54.304,900.055,,
-53.843,900.055,,
-54.435,900.055,,
-53.604,900.055,,
-53.978,899.394,,
-53.997,899.394,,
-53.365,899.394,,
-54.091,899.394,,
-53.402,898.628,,
-53.590,898.628,,
-54.020,898.628,,
-53.438,898.628,,
-54.235,897.837,,
-53.806,897.837,,
-53.647,897.837,,
-53.987,897.837,,
-52.860,897.179,,
-53.365,897.179,,
-53.295,897.179,,
-53.087,897.179,,
-53.835,896.695,,
-53.147,896.695,,
-53.684,896.695,,
-53.854,896.695,,
-53.277,896.366,,
-54.112,896.366,,
-53.641,896.366,,
-53.967,896.366,,
-54.379,896.209,,
-53.678,896.209,,
-54.517,896.209,,
-54.109,896.209,,
-54.041,895.510,,
-54.683,895.510,,
-54.028,895.510,,
-54.792,895.510,,
-54.516,894.394,,
-53.842,894.394,,
-53.904,894.394,,
-52.293,894.394,,
-51.755,893.166,,
-50.653,893.166,,
-48.779,893.166,,
-48.129,893.166,,
-46.115,892.226,,
-45.152,892.226,,
-44.502,892.226,,
-43.207,892.226,,
-43.800,891.612,,
-43.436,891.612,,
-43.678,891.612,,
-44.684,891.612,,
-44.457,891.282,,
-45.804,891.282,,
-46.324,891.282,,
-46.823,891.282,,
-48.348,890.969,,
-48.283,890.969,,
-49.362,890.969,,
-49.784,890.969,,
-49.422,890.578,,
-50.376,890.578,,
-49.833,890.578,,
-50.099,890.578,,
-50.470,890.390,,
-49.829,890.390,,
-50.690,890.390,,
-50.301,890.390,,
-50.323,890.157,,
-51.060,890.157,,
-50.614,890.157,,
-51.619,890.157,,
-51.742,889.848,,
-51.763,889.848,,
-52.768,889.848,,
-52.258,889.848,,
-52.945,889.632,,
-53.263,889.632,,
-52.913,889.632,,
-53.746,889.632,,
-53.140,889.462,,
-53.282,889.462,,
-53.460,889.462,,
-52.536,889.462,,
-53.165,889.329,,
-52.699,889.329,,
-52.641,889.329,,
-53.139,889.329,,
-52.290,889.235,,
-53.041,889.235,,
-52.964,889.235,,
-52.764,889.235,,
-53.585,889.151,,
-52.952,889.151,,
-53.505,889.151,,
-53.501,889.151,,
-52.827,889.070,,
-53.530,889.070,,
-52.863,889.070,,
-53.142,889.070,,
-53.549,889.112,,
-52.929,889.112,,
-53.755,889.112,,
-53.307,889.112,,
-53.302,889.060,,
-53.953,889.060,,
-53.274,889.060,,
-54.066,889.060,,
-53.950,888.965,,
-53.579,888.965,,
-54.145,888.965,,
-53.217,888.965,,
-53.561,888.931,,
-53.527,888.931,,
-52.982,888.931,,
-53.824,888.931,,
-53.257,888.862,,
-53.473,888.862,,
-53.691,888.862,,
-52.904,888.862,,
-53.728,888.803,,
-53.446,888.803,,
-53.574,888.803,,
-54.221,888.803,,
-53.417,888.804,,
-53.963,888.804,,
-53.568,888.804,,
-53.115,888.804,,
-53.742,888.718,,
-52.937,888.718,,
-53.418,888.718,,
-53.439,888.718,,
-52.804,888.536,,
-53.507,888.536,,
-52.833,888.536,,
-53.053,888.536,,
-53.399,888.536,,
-52.766,888.536,,
-53.603,888.536,,
-53.127,888.536,,
-53.034,888.554,,
-53.496,888.554,,
-52.777,888.554,,
-53.726,888.554,,
-53.724,888.734,,
-53.425,888.734,,
-54.023,888.734,,
-53.100,888.734,,
-53.531,888.676,,
-53.552,888.676,,
-52.976,888.676,,
-53.828,888.676,,
-53.271,888.224,,
-53.518,888.224,,
-53.612,888.224,,
-52.340,888.224,,
-52.324,887.695,,
-50.813,887.695,,
-49.505,887.695,,
-48.671,887.695,,
-46.427,887.306,,
-45.721,887.306,,
-44.266,887.306,,
-42.900,887.306,,
-42.825,886.980,,
-41.660,886.980,,
-42.127,886.980,,
-42.430,886.980,,
-42.352,886.819,,
-43.756,886.819,,
-43.825,886.819,,
-44.867,886.819,,
-46.022,886.863,,
-46.190,886.863,,
-47.727,886.863,,
-47.861,886.863,,
-48.354,886.715,,
-49.248,886.715,,
-48.828,886.715,,
-49.829,886.715,,
-49.773,886.639,,
-49.633,886.639,,
-50.334,886.639,,
-49.498,886.639,,
-50.135,886.670,,
-50.348,886.670,,
-50.036,886.670,,
-51.085,886.670,,
-50.776,886.599,,
-51.349,886.599,,
-51.880,886.599,,
-51.383,886.599,,
-52.377,886.521,,
-52.137,886.521,,
-52.221,886.521,,
-52.723,886.521,,
-51.891,886.542,,
-52.582,886.542,,
-52.384,886.542,,
-52.010,886.542,,
-52.606,886.594,,
-51.885,886.594,,
-52.459,886.594,,
-52.474,886.594,,
-51.843,886.678,,
-52.472,886.678,,
-51.652,886.678,,
-51.868,886.678,,
-52.289,886.916,,
-51.833,886.916,,
-52.868,886.916,,
-52.536,886.916,,
-52.631,887.074,,
-53.261,887.074,,
-52.590,887.074,,
-53.404,887.074,,
-53.273,887.289,,
-52.982,887.289,,
-53.571,887.289,,
-52.706,887.289,,
-53.243,887.620,,
-53.311,887.620,,
-52.821,887.620,,
-53.711,887.620,,
-53.163,887.947,,
-53.517,887.947,,
-53.855,887.947,,
-53.144,887.947,,
-53.918,888.393,,
-53.524,888.393,,
-53.524,888.393,,
-54.001,888.393,,
-53.186,888.989,,
-53.893,888.989,,
-53.665,888.989,,
-53.281,888.989,,
-53.909,889.542,,
-53.136,889.542,,
-53.568,889.542,,
-53.414,889.542,,
-52.707,890.162,,
-53.293,890.162,,
-52.543,890.162,,
-52.887,890.162,,
-53.365,890.977,,
-52.904,890.977,,
-53.910,890.977,,
-53.511,890.977,,
-53.474,891.652,,
-53.894,891.652,,
-53.119,891.652,,
-53.898,891.652,,
-53.768,892.327,,
-53.522,892.327,,
-54.215,892.327,,
-53.413,892.327,,
-53.918,893.165,,
-53.857,893.165,,
-53.209,893.165,,
-53.923,893.165,,
-53.280,894.185,,
-53.530,894.185,,
-53.781,894.185,,
-53.019,894.185,,
-53.711,895.511,,
-53.221,895.511,,
-53.223,895.511,,
-53.746,895.511,,
-52.981,896.539,,
-53.818,896.539,,
-53.683,896.539,,
-53.518,896.539,,
-54.416,897.008,,
-53.882,897.008,,
-54.555,897.008,,
-54.453,897.008,,
-53.577,897.538,,
-53.742,897.538,,
-52.127,897.538,,
-51.229,897.538,,
-50.167,898.333,,
-47.986,898.333,,
-47.328,898.333,,
-45.449,898.333,,
-44.286,899.207,,
-43.844,899.207,,
-42.411,899.207,,
-42.757,899.207,,
-42.409,900.314,,
-42.294,900.314,,
-43.342,900.314,,
-43.062,900.314,,
-44.262,901.556,,
-45.116,901.556,,
-45.590,901.556,,
-47.324,901.556,,
-47.449,902.602,,
-48.311,902.602,,
-48.987,902.602,,
-48.633,902.602,,
-49.683,903.773,,
-49.453,903.773,,
-49.679,903.773,,
-50.217,903.773,,
-49.471,905.160,,
-50.276,905.160,,
-50.064,905.160,,
-49.893,905.160,,
-50.713,906.228,,
-50.218,906.228,,
-51.097,906.228,,
-51.406,906.228,,
-51.134,907.373,,
-52.064,907.373,,
-51.563,907.373,,
-52.121,907.373,,
-52.597,908.712,,
-52.058,908.712,,
-52.859,908.712,,
-52.237,908.712,,
-52.084,909.958,,
-52.387,909.958,,
-51.549,909.958,,
-52.202,909.958,,
-51.915,911.191,,
-51.627,911.191,,
-52.238,911.191,,
-51.386,911.191,,
-51.888,912.415,,
-51.982,912.415,,
-51.593,912.415,,
-52.364,912.415,,
-51.742,913.723,,
-52.147,913.723,,
-52.485,913.723,,
-51.863,913.723,,
-52.685,915.257,,
-52.336,915.257,,
-52.602,915.257,,
-53.319,915.257,,
-52.731,916.720,,
-53.631,916.720,,
-53.532,916.720,,
-53.488,916.720,,
-54.280,918.035,,
-53.522,918.035,,
-54.042,918.035,,
-53.920,918.035,,
-53.240,919.325,,
-53.875,919.325,,
-53.160,919.325,,
-53.492,919.325,,
-53.783,920.619,,
-53.099,920.619,,
-53.848,920.619,,
-53.207,920.619,,
-53.094,921.953,,
-53.590,921.953,,
-52.825,921.953,,
-53.496,921.953,,
-53.252,923.296,,
-52.987,923.296,,
-53.660,923.296,,
-52.853,923.296,,
-53.355,924.460,,
-53.410,924.460,,
-52.993,924.460,,
-53.778,924.460,,
-53.008,925.475,,
-53.185,925.475,,
-53.314,925.475,,
-52.630,925.475,,
-53.449,926.509,,
-52.956,926.509,,
-52.974,926.509,,
-53.481,926.509,,
-52.636,927.621,,
-53.251,927.621,,
-52.965,927.621,,
-52.717,927.621,,
-53.379,928.867,,
-52.534,928.867,,
-53.049,928.867,,
-53.044,928.867,,
-52.516,929.974,,
-53.394,929.974,,
-52.895,929.974,,
-53.338,929.974,,
-53.686,930.922,,
-53.030,930.922,,
-53.824,930.922,,
-53.283,930.922,,
-53.233,931.708,,
-53.765,931.708,,
-53.056,931.708,,
-53.782,931.708,,
-53.465,932.453,,
-53.160,932.453,,
-53.718,932.453,,
-52.763,932.453,,
-52.971,933.143,,
-52.316,933.143,,
-50.859,933.143,,
-50.304,933.143,,
-48.065,933.999,,
-46.912,933.999,,
-45.828,933.999,,
-44.040,933.999,,
-44.008,935.248,,
-43.027,935.248,,
-42.848,935.248,,
-43.344,935.248,,
-42.708,936.275,,
-43.813,936.275,,
-44.214,936.275,,
-44.700,936.275,,
-46.112,936.926,,
-46.062,936.926,,
-47.390,936.926,,
-48.153,936.926,,
-48.397,937.499,,
-49.822,937.499,,
-49.779,937.499,,
-50.593,937.499,,
-51.146,938.168,,
-50.649,938.168,,
-51.601,938.168,,
-51.154,938.168,,
-51.218,938.563,,
-51.814,938.563,,
-51.271,938.563,,
-52.263,938.563,,
-52.152,938.851,,
-52.051,938.851,,
-52.901,938.851,,
-52.302,938.851,,
-52.958,939.273,,
-52.992,939.273,,
-52.417,939.273,,
-52.949,939.273,,
-51.966,939.661,,
-51.996,939.661,,
-52.054,939.661,,
-51.242,939.661,,
-51.896,939.891,,
-51.263,939.891,,
-51.140,939.891,,
-51.505,939.891,,
-50.742,940.044,,
-51.584,940.044,,
-51.501,940.044,,
-51.432,940.044,,
-52.192,939.979,,
-51.458,939.979,,
-52.082,939.979,,
-52.133,939.979,,
-51.802,939.623,,
-52.861,939.623,,
-52.425,939.623,,
-52.948,939.623,,
-53.292,939.285,,
-52.531,939.285,,
-53.292,939.285,,
-52.855,939.285,,
-52.909,938.808,,
-53.388,938.808,,
-52.592,938.808,,
-53.310,938.808,,
-53.048,938.086,,
-52.807,938.086,,
-53.627,938.086,,
-53.022,938.086,,
-53.676,937.442,,
-53.676,937.442,,
-53.126,937.442,,
-53.831,937.442,,
-53.167,936.814,,
-53.515,936.814,,
-53.719,936.814,,
-53.002,936.814,,
-53.769,935.915,,
-53.117,935.915,,
-53.024,935.915,,
-53.457,935.915,,
-52.557,934.964,,
-53.108,934.964,,
-52.722,934.964,,
-52.323,934.964,,
-52.854,934.109,,
-52.000,934.109,,
-52.554,934.109,,
-52.603,934.109,,
-52.133,933.025,,
-52.886,933.025,,
-52.156,933.025,,
-52.398,933.025,,
-52.548,932.067,,
-51.756,932.067,,
-52.587,932.067,,
-52.281,932.067,,
-52.509,931.126,,
-53.205,931.126,,
-52.573,931.126,,
-53.529,931.126,,
-53.446,930.217,,
-53.348,930.217,,
-54.107,930.217,,
-53.350,930.217,,
-53.910,929.273,,
-53.771,929.273,,
-53.020,929.273,,
-53.695,929.273,,
-53.014,927.798,,
-53.333,927.798,,
-53.522,927.798,,
-52.676,927.798,,
-53.288,926.274,,
-52.599,926.274,,
-52.371,926.274,,
-52.545,926.274,,
-51.246,925.003,,
-51.174,925.003,,
-49.821,925.003,,
-48.258,925.003,,
-47.568,923.789,,
-45.517,923.789,,
-44.931,923.789,,
-43.992,923.789,,
-42.816,922.553,,
-43.093,922.553,,
-42.132,922.553,,
-42.519,922.553,,
-43.075,921.450,,
-42.881,921.450,,
-44.320,921.450,,
-44.572,921.450,,
-45.377,920.213,,
-46.616,920.213,,
-46.459,920.213,,
-47.750,920.213,,
-48.019,918.964,,
-48.240,918.964,,
-49.254,918.964,,
-48.759,918.964,,
-49.595,917.996,,
-49.851,917.996,,
-49.661,917.996,,
-50.777,917.996,,
-50.421,917.027,,
-50.960,917.027,,
-51.328,917.027,,
-50.751,917.027,,
-51.678,915.896,,
-51.232,915.896,,
-51.331,915.896,,
-51.929,915.896,,
-51.282,914.823,,
-52.102,914.823,,
-51.866,914.823,,
-51.642,914.823,,
-52.368,913.794,,
-51.612,913.794,,
-52.129,913.794,,
-52.005,913.794,,
-51.287,912.803,,
-51.973,912.803,,
-51.223,912.803,,
-51.517,912.803,,
-51.809,911.809,,
-51.190,911.809,,
-52.048,911.809,,
-51.601,911.809,,
-51.660,910.865,,
-52.159,910.865,,
-51.485,910.865,,
-52.410,910.865,,
-52.334,910.282,,
-52.180,910.282,,
-52.932,910.282,,
-52.152,910.282,,
-52.751,909.548,,
-52.769,909.548,,
-52.246,909.548,,
-52.940,909.548,,
-52.213,908.731,,
-52.529,908.731,,
-52.759,908.731,,
-51.976,908.731,,
-52.837,908.030,,
-52.511,908.030,,
-52.698,908.030,,
-53.261,908.030,,
-52.544,907.232,,
-53.451,907.232,,
-53.363,907.232,,
-53.199,907.232,,
-53.924,906.396,,
-53.175,906.396,,
-53.738,906.396,,
-53.703,906.396,,
-53.142,905.553,,
-53.837,905.553,,
-53.098,905.553,,
-53.354,905.553,,
-53.604,904.674,,
-52.968,904.674,,
-53.809,904.674,,
-53.120,904.674,,
-52.733,903.821,,
-52.699,903.821,,
-51.327,903.821,,
-51.405,903.821,,
-50.483,903.023,,
-49.616,903.023,,
-49.718,903.023,,
-48.554,903.023,,
-49.024,902.054,,
-49.195,902.054,,
-49.104,902.054,,
-50.371,902.054,,
-50.085,901.213,,
-50.759,901.213,,
-51.268,901.213,,
-50.768,901.213,,
-51.726,900.591,,
-51.350,900.591,,
-51.489,900.591,,
-51.979,900.591,,
-51.119,900.270,,
-51.902,900.270,,
-51.742,900.270,,
-51.619,900.270,,
-52.501,900.335,,
-52.002,900.335,,
-52.960,900.335,,
-53.372,900.335,,
-53.177,900.227,,
-54.298,900.227,,
-53.925,900.227,,
-54.241,900.227,,
-54.179,899.932,,
-52.867,899.932,,
-52.708,899.932,,
-51.018,899.932,,
-49.756,899.476,,
-48.938,899.476,,
-46.911,899.476,,
-46.440,899.476,,
-44.998,898.916,,
-43.720,898.916,,
-43.593,898.916,,
-42.338,898.916,,
-42.698,898.293,,
-42.712,898.293,,
-42.412,898.293,,
-43.514,898.293,,
-43.359,897.880,,
-44.363,897.880,,
-45.450,897.880,,
-45.678,897.880,,
-47.275,897.356,,
-47.551,897.356,,
-48.299,897.356,,
-49.352,897.356,,
-49.100,896.796,,
-50.274,896.796,,
-50.409,896.796,,
-50.460,896.796,,
-51.195,896.499,,
-50.380,896.499,,
-51.016,896.499,,
-51.072,896.499,,
-50.659,896.065,,
-51.520,896.065,,
-50.975,896.065,,
-51.411,896.065,,
-51.708,895.671,,
-51.065,895.671,,
-52.015,895.671,,
-51.773,895.671,,
-52.133,895.263,,
-52.940,895.263,,
-52.403,895.263,,
-53.300,895.263,,
-53.168,895.016,,
-53.044,895.016,,
-53.826,895.016,,
-53.141,895.016,,
-53.608,894.834,,
-53.309,894.834,,
-52.474,894.834,,
-52.959,894.834,,
-52.143,894.580,,
-52.402,894.580,,
-52.581,894.580,,
-51.899,894.580,,
-52.760,894.345,,
-52.290,894.345,,
-52.322,894.345,,
-52.839,894.345,,
-52.118,894.178,,
-52.909,894.178,,
-52.651,894.178,,
-52.473,894.178,,
-53.241,894.019,,
-52.532,894.019,,
-53.208,894.019,,
-53.344,894.019,,
-52.957,893.741,,
-53.843,893.741,,
-53.219,893.741,,
-53.570,893.741,,
-53.866,893.539,,
-53.192,893.539,,
-53.954,893.539,,
-53.432,893.539,,
-53.428,893.256,,
-53.842,893.256,,
-52.836,893.256,,
-53.410,893.256,,
-53.113,892.974,,
-52.796,892.974,,
-53.398,892.974,,
-52.516,892.974,,
-53.040,892.751,,
-53.030,892.751,,
-52.528,892.751,,
-53.313,892.751,,
-52.738,892.433,,
-53.120,892.433,,
-53.524,892.433,,
-53.002,892.433,,
-53.966,892.207,,
-53.569,892.207,,
-53.628,892.207,,
-54.200,892.207,,
-53.409,892.031,,
-54.020,892.031,,
-53.474,892.031,,
-52.823,892.031,,
-53.141,891.802,,
-52.085,891.802,,
-52.400,891.802,,
-52.242,891.802,,
-51.582,891.540,,
-52.300,891.540,,
-51.680,891.540,,
-52.192,891.540,,
-52.752,891.363,,
-52.301,891.363,,
-53.305,891.363,,
-52.929,891.363,,
-52.996,891.229,,
-53.497,891.229,,
-52.677,891.229,,
-53.276,891.229,,
-52.910,891.411,,
-52.608,891.411,,
-53.266,891.411,,
-52.418,891.411,,
-52.869,891.275,,
-52.790,891.275,,
-52.251,891.275,,
-53.040,891.275,,
-52.412,890.794,,
-52.804,890.794,,
-53.052,890.794,,
-52.202,890.794,,
-52.635,890.278,,
-51.486,890.278,,
-50.481,890.278,,
-49.639,890.278,,
-47.363,889.749,,
-46.599,889.749,,
-44.954,889.749,,
-43.409,889.749,,
-42.914,889.184,,
-41.223,889.184,,
-41.098,889.184,,
-40.706,889.184,,
-40.121,888.650,,
-41.203,888.650,,
-41.099,888.650,,
-42.042,888.650,,
-43.022,888.310,,
-43.078,888.310,,
-44.579,888.310,,
-44.849,888.310,,
-45.566,888.044,,
-46.693,888.044,,
-46.551,888.044,,
-47.834,888.044,,
-48.014,887.866,,
-48.039,887.866,,
-48.921,887.866,,
-48.304,887.866,,
-48.798,887.640,,
-48.651,887.640,,
-48.005,887.640,,
-48.761,887.640,,
-48.231,887.501,,
-48.709,887.501,,
-49.306,887.501,,
-49.061,887.501,,
-50.295,887.308,,
-50.329,887.308,,
-50.850,887.308,,
-51.736,887.308,,
-51.236,887.030,,
-52.093,887.030,,
-51.846,887.030,,
-51.514,887.030,,
-52.026,886.904,,
-50.972,886.904,,
-51.203,886.904,,
-50.892,886.904,,
-50.146,886.670,,
-50.700,886.670,,
-49.955,886.670,,
-50.229,886.670,,
-50.555,886.540,,
-49.956,886.540,,
-50.939,886.540,,
-50.740,886.540,,
-50.958,886.473,,
-51.558,886.473,,
-50.827,886.473,,
-51.536,886.473,,
-51.320,886.277,,
-51.191,886.277,,
-52.114,886.277,,
-51.630,886.277,,
-52.342,886.116,,
-52.418,886.116,,
-51.884,886.116,,
-52.685,886.116,,
-52.153,886.035,,
-52.532,886.035,,
-52.917,886.035,,
-52.229,886.035,,
-52.908,885.861,,
-52.299,885.861,,
-52.153,885.861,,
-52.598,885.861,,
-51.864,885.735,,
-52.604,885.735,,
-52.470,885.735,,
-52.312,885.735,,
-53.049,885.659,,
-52.382,885.659,,
-53.068,885.659,,
-53.270,885.659,,
-52.838,885.513,,
-53.514,885.513,,
-52.556,885.513,,
-52.522,885.513,,
-52.564,885.502,,
-51.677,885.502,,
-52.334,885.502,,
-51.841,885.502,,
-51.871,885.442,,
-52.471,885.442,,
-51.780,885.442,,
-52.607,885.442,,
-52.573,885.444,,
-52.445,885.444,,
-53.182,885.444,,
-52.393,885.444,,
-52.890,885.478,,
-52.814,885.478,,
-52.226,885.478,,
-53.019,885.478,,
-52.396,885.376,,
-52.731,885.376,,
-53.086,885.376,,
-52.342,885.376,,
-53.079,885.426,,
-52.633,885.426,,
-52.625,885.426,,
-53.155,885.426,,
-52.360,885.563,,
-53.090,885.563,,
-53.007,885.563,,
-52.730,885.563,,
-53.378,885.733,,
-52.538,885.733,,
-53.067,885.733,,
-53.100,885.733,,
-52.493,885.780,,
-53.142,885.780,,
-52.460,885.780,,
-52.742,885.780,,
-53.047,885.567,,
-52.440,885.567,,
-53.326,885.567,,
-52.767,885.567,,
-52.367,885.044,,
-52.189,885.044,,
-50.396,885.044,,
-49.659,885.044,,
-47.825,884.745,,
-45.896,884.745,,
-45.017,884.745,,
-42.975,884.745,,
-42.669,884.515,,
-42.272,884.515,,
-41.579,884.515,,
-42.311,884.515,,
-41.753,884.320,,
-42.276,884.320,,
-42.887,884.320,,
-42.681,884.320,,
-44.068,884.325,,
-44.321,884.325,,
-45.009,884.325,,
-46.256,884.325,,
-46.176,884.289,,
-47.548,884.289,,
-48.036,884.289,,
-48.301,884.289,,
-49.331,884.376,,
-48.773,884.376,,
-49.316,884.376,,
-49.303,884.376,,
-48.812,884.569,,
-49.595,884.569,,
-48.894,884.569,,
-49.191,884.569,,
-49.615,884.618,,
-49.032,884.618,,
-50.107,884.618,,
-50.181,884.618,,
-50.626,884.705,,
-51.672,884.705,,
-51.469,884.705,,
-52.644,884.705,,
-52.721,884.930,,
-52.415,884.930,,
-52.981,884.930,,
-52.006,884.930,,
-52.302,885.125,,
-52.082,885.125,,
-51.127,885.125,,
-51.548,885.125,,
-50.708,885.469,,
-50.928,885.469,,
-51.330,885.469,,
-50.805,885.469,,
-51.921,885.808,,
-51.710,885.808,,
-51.784,885.808,,
-52.434,885.808,,
-51.717,886.145,,
-52.332,886.145,,
-51.970,886.145,,
-51.446,886.145,,
-52.003,886.620,,
-51.258,886.620,,
-51.813,886.620,,
-51.966,886.620,,
-51.672,887.082,,
-52.710,887.082,,
-52.278,887.082,,
-52.697,887.082,,
-53.136,887.708,,
-52.398,887.708,,
-52.928,887.708,,
-52.243,887.708,,
-51.979,888.362,,
-52.352,888.362,,
-51.513,888.362,,
-52.375,888.362,,
-52.520,889.051,,
-52.515,889.051,,
-53.475,889.051,,
-52.902,889.051,,
-53.553,889.811,,
-53.662,889.811,,
-53.090,889.811,,
-53.774,889.811,,
-52.957,890.521,,
-53.050,890.521,,
-53.241,890.521,,
-52.276,890.521,,
-52.913,891.244,,
-52.386,891.244,,
-52.410,891.244,,
-53.104,891.244,,
-52.368,892.123,,
-53.080,892.123,,
-52.866,892.123,,
-52.405,892.123,,
-52.948,892.908,,
-51.999,892.908,,
-52.205,892.908,,
-51.977,892.908,,
-51.227,893.565,,
-51.905,893.565,,
-51.277,893.565,,
-51.606,893.565,,
-52.127,894.561,,
-51.652,894.561,,
-52.736,894.561,,
-52.562,894.561,,
-52.617,895.529,,
-53.309,895.529,,
-52.651,895.529,,
-53.267,895.529,,
-52.840,896.451,,
-52.222,896.451,,
-52.728,896.451,,
-51.927,896.451,,
-52.587,897.139,,
-52.893,897.139,,
-52.569,897.139,,
-53.694,897.139,,
-53.269,897.297,,
-53.541,897.297,,
-53.715,897.297,,
-52.769,897.297,,
-53.273,897.618,,
-52.476,897.618,,
-51.793,897.618,,
-51.406,897.618,,
-49.398,898.159,,
-48.776,898.159,,
-47.207,898.159,,
-45.440,898.159,,
-44.807,898.853,,
-42.905,898.853,,
-42.639,898.853,,
-42.227,898.853,,
-41.502,899.682,,
-42.441,899.682,,
-42.164,899.682,,
-42.877,899.682,,
-43.714,900.638,,
-43.519,900.638,,
-44.879,900.638,,
-45.121,900.638,,
-45.803,901.624,,
-47.167,901.624,,
-47.074,901.624,,
-48.344,901.624,,
-48.710,902.669,,
-48.840,902.669,,
-49.971,902.669,,
-49.566,902.669,,
-50.295,903.881,,
-50.511,903.881,,
-49.952,903.881,,
-50.745,903.881,,
-50.213,905.157,,
-50.522,905.157,,
-50.888,905.157,,
-50.237,905.157,,
-51.187,906.588,,
-50.967,906.588,,
-51.072,906.588,,
-51.845,906.588,,
-51.272,908.125,,
-52.151,908.125,,
-52.077,908.125,,
-51.647,908.125,,
-52.163,909.780,,
-51.153,909.780,,
-51.410,909.780,,
-51.314,909.780,,
-50.573,911.682,,
-51.258,911.682,,
-50.524,911.682,,
-50.574,911.682,,
-50.798,914.530,,
-50.053,914.530,,
-50.828,914.530,,
-50.512,914.530,,
-50.562,917.289,,
-51.288,917.289,,
-50.732,917.289,,
-51.675,917.289,,
-51.786,919.317,,
-51.657,919.317,,
-52.540,919.317,,
-51.803,919.317,,
-52.232,921.343,,
-52.287,921.343,,
-51.669,921.343,,
-52.481,921.343,,
-51.944,923.132,,
-52.145,923.132,,
-52.545,923.132,,
-51.877,923.132,,
-52.776,924.416,,
-52.541,924.416,,
-52.583,924.416,,
-53.219,924.416,,
-52.457,925.502,,
-53.198,925.502,,
-53.122,925.502,,
-52.835,925.502,,
-53.617,926.523,,
-52.904,926.523,,
-53.247,926.523,,
-53.138,926.523,,
-52.229,927.472,,
-52.787,927.472,,
-52.012,927.472,,
-52.083,927.472,,
-52.331,928.543,,
-51.470,928.543,,
-52.214,928.543,,
-51.860,928.543,,
-51.846,929.492,,
-52.548,929.492,,
-51.823,929.492,,
-52.509,929.492,,
-52.227,930.405,,
-51.674,930.405,,
-52.250,930.405,,
-51.430,930.405,,
-51.823,931.509,,
-51.881,931.509,,
-51.306,931.509,,
-52.261,931.509,,
-51.794,932.478,,
-52.089,932.478,,
-52.683,932.478,,
-52.100,932.478,,
-52.850,933.235,,
-52.407,933.235,,
-52.269,933.235,,
-52.913,933.235,,
-52.330,933.553,,
-53.278,933.553,,
-53.305,933.553,,
-52.993,933.553,,
-53.725,934.169,,
-52.822,934.169,,
-53.034,934.169,,
-52.872,934.169,,
-51.807,935.473,,
-51.994,935.473,,
-50.596,935.473,,
-49.765,935.473,,
-48.951,937.238,,
-46.860,937.238,,
-46.325,937.238,,
-44.780,937.238,,
-43.651,938.537,,
-43.400,938.537,,
-41.961,938.537,,
-42.201,938.537,,
-42.001,939.587,,
-41.827,939.587,,
-42.964,939.587,,
-42.853,939.587,,
-44.049,940.472,,
-44.994,940.472,,
-45.260,940.472,,
-46.942,940.472,,
-47.207,941.300,,
-48.147,941.300,,
-49.097,941.300,,
-48.795,941.300,,
-49.991,942.281,,
-50.003,942.281,,
-50.234,942.281,,
-51.065,942.281,,
-50.447,942.903,,
-51.118,942.903,,
-50.885,942.903,,
-50.372,942.903,,
-51.068,943.246,,
-50.363,943.246,,
-50.846,943.246,,
-51.138,943.246,,
-50.720,943.133,,
-51.770,943.133,,
-51.393,943.133,,
-51.722,943.133,,
-52.118,942.711,,
-51.182,942.711,,
-51.691,942.711,,
-50.939,942.711,,
-50.434,942.256,,
-50.720,942.256,,
-49.709,942.256,,
-50.197,942.256,,
-49.959,941.602,,
-49.463,941.602,,
-50.123,941.602,,
-49.319,941.602,,
-49.778,940.795,,
-50.145,940.795,,
-49.888,940.795,,
-51.153,940.795,,
-51.012,939.998,,
-51.488,939.998,,
-52.049,939.998,,
-51.347,939.998,,
-52.092,939.084,,
-51.702,939.084,,
-51.469,939.084,,
-51.961,939.084,,
-51.114,938.194,,
-51.811,938.194,,
-51.821,938.194,,
-51.544,938.194,,
-52.342,937.221,,
-51.590,937.221,,
-52.017,937.221,,
-52.175,937.221,,
-51.584,936.120,,
-52.385,936.120,,
-51.786,936.120,,
-51.873,936.120,,
-52.117,935.137,,
-51.251,935.137,,
-52.132,935.137,,
-51.962,935.137,,
-51.842,933.886,,
-52.343,933.886,,
-51.392,933.886,,
-51.863,933.886,,
-51.621,932.581,,
-51.091,932.581,,
-51.726,932.581,,
-51.027,932.581,,
-51.506,931.450,,
-51.664,931.450,,
-50.999,931.450,,
-51.843,931.450,,
-51.326,930.295,,
-51.426,930.295,,
-51.732,930.295,,
-50.829,930.295,,
-51.553,929.125,,
-51.300,929.125,,
-51.291,929.125,,
-52.186,929.125,,
-51.756,927.564,,
-52.830,927.564,,
-53.127,927.564,,
-52.955,927.564,,
-53.862,925.571,,
-53.105,925.571,,
-53.324,925.571,,
-53.219,925.571,,
-52.269,923.819,,
-52.737,923.819,,
-51.623,923.819,,
-51.001,923.819,,
-50.562,922.255,,
-48.697,922.255,,
-48.071,922.255,,
-46.195,922.255,,
-44.511,920.709,,
-43.817,920.709,,
-42.099,920.709,,
-42.172,920.709,,
-41.883,919.172,,
-41.518,919.172,,
-42.452,919.172,,
-41.968,919.172,,
-42.821,917.580,,
-43.625,917.580,,
-43.724,917.580,,
-45.247,917.580,,
-45.364,916.188,,
-46.057,916.188,,
-47.013,916.188,,
-46.704,916.188,,
-47.995,914.951,,
-48.172,914.951,,
-48.440,914.951,,
-49.377,914.951,,
-48.735,913.791,,
-49.438,913.791,,
-49.371,913.791,,
-48.926,913.791,,
-49.648,912.676,,
-49.030,912.676,,
-49.691,912.676,,
-50.136,912.676,,
-49.678,911.328,,
-50.705,911.328,,
-50.375,911.328,,
-50.762,911.328,,
-51.418,910.143,,
-50.711,910.143,,
-51.589,910.143,,
-51.340,910.143,,
-51.233,909.155,,
-51.856,909.155,,
-50.849,909.155,,
-51.187,909.155,,
-50.720,908.114,,
-49.823,908.114,,
-50.306,908.114,,
-49.353,908.114,,
-49.618,907.110,,
-49.865,907.110,,
-49.325,907.110,,
-50.420,907.110,,
-50.391,906.024,,
-51.072,906.024,,
-52.075,906.024,,
-51.650,906.024,,
-52.567,904.829,,
-52.229,904.829,,
-51.910,904.829,,
-52.470,904.829,,
-51.512,903.820,,
-51.973,903.820,,
-51.795,903.820,,
-51.119,903.820,,
-51.586,902.987,,
-50.603,902.987,,
-50.974,902.987,,
-51.444,902.987,,
-51.081,902.137,,
-52.160,902.137,,
-51.764,902.137,,
-51.843,902.137,,
-52.190,901.353,,
-51.251,901.353,,
-51.807,901.353,,
-51.285,901.353,,
-50.838,900.479,,
-51.185,900.479,,
-50.109,900.479,,
-50.636,900.479,,
-50.716,899.727,,
-50.498,899.727,,
-51.418,899.727,,
-50.782,899.727,,
-51.242,899.008,,
-51.417,899.008,,
-50.709,899.008,,
-51.451,899.008,,
-50.766,898.302,,
-50.638,898.302,,
-50.878,898.302,,
-49.943,898.302,,
-50.753,897.852,,
-50.698,897.852,,
-50.879,897.852,,
-51.959,897.852,,
-51.556,897.662,,
-52.528,897.662,,
-52.711,897.662,,
-52.320,897.662,,
-53.052,897.284,,
-52.204,897.284,,
-52.304,897.284,,
-52.175,897.284,,
-51.185,896.437,,
-51.821,896.437,,
-51.190,896.437,,
-51.178,896.437,,
-51.426,895.274,,
-50.159,895.274,,
-50.108,895.274,,
-48.681,895.274,,
-47.088,893.909,,
-46.288,893.909,,
-44.162,893.909,,
-43.509,893.909,,
-42.347,893.267,,
-40.944,893.267,,
-41.083,893.267,,
-40.117,893.267,,
-40.620,892.778,,
-41.274,892.778,,
-41.203,892.778,,
-42.737,892.778,,
-43.065,892.539,,
-44.078,892.539,,
-45.561,892.539,,
-45.774,892.539,,
-47.314,892.269,,
-47.552,892.269,,
-47.734,892.269,,
-48.685,892.269,,
-48.132,891.909,,
-48.837,891.909,,
-48.803,891.909,,
-48.254,891.909,,
-48.914,891.762,,
-48.208,891.762,,
-48.673,891.762,,
-49.213,891.762,,
-49.011,891.548,,
-50.212,891.548,,
-50.040,891.548,,
-50.389,891.548,,
-51.115,891.319,,
-50.579,891.319,,
-51.462,891.319,,
-51.273,891.319,,
-51.181,891.096,,
-51.840,891.096,,
-50.985,891.096,,
-51.612,891.096,,
-51.568,890.911,,
-50.998,890.911,,
-51.670,890.911,,
-50.893,890.911,,
-51.139,890.842,,
-51.260,890.842,,
-50.601,890.842,,
-51.470,890.842,,
-50.973,890.739,,
-50.958,890.739,,
-51.309,890.739,,
-50.367,890.739,,
-51.009,890.655,,
-50.725,890.655,,
-50.584,890.655,,
-51.328,890.655,,
-50.691,890.637,,
-51.497,890.637,,
-51.665,890.637,,
-51.282,890.637,,
-52.149,890.544,,
-51.627,890.544,,
-52.042,890.544,,
-52.208,890.544,,
-51.424,890.479,,
-52.166,890.479,,
-51.705,890.479,,
-51.880,890.479,,
-52.615,890.459,,
-51.965,890.459,,
-52.629,890.459,,
-52.225,890.459,,
-51.905,890.384,,
-52.617,890.384,,
-51.867,890.384,,
-52.415,890.384,,
-52.245,890.449,,
-51.586,890.449,,
-52.252,890.449,,
-51.591,890.449,,
-51.978,890.350,,
-52.337,890.350,,
-51.675,890.350,,
-52.355,890.350,,
-51.654,890.182,,
-51.485,890.182,,
-51.857,890.182,,
-51.038,890.182,,
-51.742,890.171,,
-51.482,890.171,,
-51.206,890.171,,
-51.864,890.171,,
-51.138,890.115,,
-51.816,890.115,,
-51.955,890.115,,
-51.619,890.115,,
-52.598,890.346,,
-52.016,890.346,,
-52.297,890.346,,
-52.544,890.346,,
-51.850,890.483,,
-52.522,890.483,,
-51.863,890.483,,
-51.784,890.483,,
-52.157,890.175,,
-51.268,890.175,,
-51.995,890.175,,
-51.679,890.175,,
-51.326,889.719,,
-51.668,889.719,,
-50.133,889.719,,
-49.661,889.719,,
-48.381,889.269,,
-46.353,889.269,,
-45.489,889.269,,
-43.307,889.269,,
-42.361,888.946,,
-41.593,888.946,,
-40.176,888.946,,
-40.604,888.946,,
-40.175,888.804,,
-40.594,888.804,,
-41.608,888.804,,
-41.474,888.804,,
-43.001,888.728,,
-43.558,888.728,,
-43.978,888.728,,
-45.252,888.728,,
-45.019,888.674,,
-46.010,888.674,,
-46.388,888.674,,
-46.217,888.674,,
-47.290,888.553,,
-46.899,888.553,,
-47.432,888.553,,
-47.805,888.553,,
-47.117,888.478,,
-47.892,888.478,,
-47.485,888.478,,
-47.689,888.478,,
-48.439,888.551,,
-47.922,888.551,,
-48.924,888.551,,
-49.010,888.551,,
-49.028,888.455,,
-50.054,888.455,,
-49.748,888.455,,
-50.637,888.455,,
-50.769,888.392,,
-50.275,888.392,,
-51.031,888.392,,
-50.398,888.392,,
-50.748,888.424,,
-51.034,888.424,,
-50.335,888.424,,
-51.051,888.424,,
-50.431,888.359,,
-50.218,888.359,,
-50.570,888.359,,
-49.718,888.359,,
-50.350,888.439,,
-50.087,888.439,,
-49.825,888.439,,
-50.577,888.439,,
-50.019,888.465,,
-50.759,888.465,,
-51.029,888.465,,
-50.767,888.465,,
-51.713,888.495,,
-51.052,888.495,,
-51.217,888.495,,
-51.391,888.495,,
-50.672,888.598,,
-51.397,888.598,,
-50.914,888.598,,
-50.891,888.598,,
-51.426,888.643,,
-50.780,888.643,,
-51.700,888.643,,
-51.633,888.643,,
-51.357,888.678,,
-51.911,888.678,,
-50.954,888.678,,
-51.388,888.678,,
-51.410,888.723,,
-50.850,888.723,,
-51.488,888.723,,
-50.726,888.723,,
-50.956,888.676,,
-51.237,888.676,,
-50.631,888.676,,
-51.544,888.676,,
-51.172,888.689,,
-51.244,888.689,,
-51.747,888.689,,
-50.905,888.689,,
-51.640,888.590,,
-51.497,888.590,,
-51.220,888.590,,
-51.840,888.590,,
-50.969,888.441,,
-51.372,888.441,,
-51.371,888.441,,
-50.895,888.441,,
-51.797,888.372,,
-51.328,888.372,,
-51.712,888.372,,
-51.931,888.372,,
-51.069,888.268,,
-51.811,888.268,,
-51.426,888.268,,
-51.452,888.268,,
-52.032,888.353,,
-51.267,888.353,,
-51.995,888.353,,
-51.878,888.353,,
-51.637,888.556,,
-52.382,888.556,,
-51.690,888.556,,
-52.200,888.556,,
-52.191,888.441,,
-51.553,888.441,,
-52.253,888.441,,
-51.556,888.441,,
-51.724,888.044,,
-51.964,888.044,,
-51.039,888.044,,
-51.291,888.044,,
-50.028,887.435,,
-48.863,887.435,,
-48.125,887.435,,
-46.037,887.435,,
-45.451,887.031,,
-44.001,887.031,,
-42.531,887.031,,
-42.249,887.031,,
-40.884,886.779,,
-41.136,886.779,,
-41.182,886.779,,
-40.724,886.779,,
-41.775,886.581,,
-41.594,886.581,,
-42.463,886.581,,
-43.539,886.581,,
-43.676,886.466,,
-45.247,886.466,,
-45.503,886.466,,
-46.072,886.466,,
-47.151,886.280,,
-46.902,886.280,,
-47.968,886.280,,
-48.049,886.280,,
-47.835,886.069,,
-48.443,886.069,,
-47.501,886.069,,
-47.803,886.069,,
-47.839,886.056,,
-47.467,886.056,,
-48.535,886.056,,
-48.255,886.056,,
-48.861,885.890,,
-49.526,885.890,,
-49.167,885.890,,
-50.269,885.890,,
-50.106,885.763,,
-50.201,885.763,,
-50.847,885.763,,
-50.062,885.763,,
-50.708,885.685,,
-50.586,885.685,,
-50.265,885.685,,
-50.824,885.685,,
-49.919,885.571,,
-50.322,885.571,,
-50.435,885.571,,
-49.985,885.571,,
-50.839,885.591,,
-50.263,885.591,,
-50.601,885.591,,
-51.019,885.591,,
-50.251,885.576,,
-51.050,885.576,,
-50.774,885.576,,
-50.793,885.576,,
-51.312,885.614,,
-50.462,885.614,,
-51.198,885.614,,
-51.163,885.614,,
-51.074,885.670,,
-52.072,885.670,,
-51.586,885.670,,
-52.134,885.670,,
-52.080,885.624,,
-51.245,885.624,,
-51.841,885.624,,
-51.213,885.624,,
-51.451,885.597,,
-51.857,885.597,,
-51.129,885.597,,
-51.881,885.597,,
-51.531,885.554,,
-51.578,885.554,,
-52.265,885.554,,
-51.578,885.554,,
-52.303,885.493,,
-52.075,885.493,,
-51.544,885.493,,
-52.193,885.493,,
-51.471,885.498,,
-51.987,885.498,,
-52.202,885.498,,
-51.662,885.498,,
-52.541,885.448,,
-52.040,885.448,,
-52.220,885.448,,
-52.541,885.448,,
-51.745,885.416,,
-52.483,885.416,,
-52.045,885.416,,
-51.784,885.416,,
-52.176,885.450,,
-51.239,885.450,,
-51.807,885.450,,
-51.644,885.450,,
-51.242,885.320,,
-51.991,885.320,,
-51.409,885.320,,
-52.194,885.320,,
-52.747,885.292,,
-52.547,885.292,,
-53.716,885.292,,
-53.352,885.292,,
-53.620,885.285,,
-54.061,885.285,,
-53.255,885.285,,
-53.953,885.285,,
-53.475,885.347,,
-53.185,885.347,,
-53.606,885.347,,
-52.652,885.347,,
-53.270,885.610,,
-53.159,885.610,,
-52.745,885.610,,
-53.429,885.610,,
-52.549,885.569,,
-52.839,885.569,,
-52.853,885.569,,
-52.035,885.569,,
-52.646,885.321,,
-51.837,885.321,,
-51.653,885.321,,
-51.518,885.321,,
-50.119,884.912,,
-50.056,884.912,,
-48.722,884.912,,
-47.448,884.912,,
-46.687,884.629,,
-44.475,884.629,,
-43.856,884.629,,
-42.648,884.629,,
-41.429,884.507,,
-41.676,884.507,,
-40.801,884.507,,
-41.367,884.507,,
-41.856,884.500,,
-41.775,884.500,,
-43.324,884.500,,
-43.640,884.500,,
-44.626,884.598,,
-45.765,884.598,,
-45.616,884.598,,
-46.921,884.598,,
-47.070,884.726,,
-47.301,884.726,,
-48.167,884.726,,
-47.521,884.726,,
-48.249,884.829,,
-48.201,884.829,,
-47.828,884.829,,
-48.644,884.829,,
-48.193,885.117,,
-48.911,885.117,,
-49.259,885.117,,
-48.810,885.117,,
-49.939,885.412,,
-49.738,885.412,,
-50.153,885.412,,
-50.797,885.412,,
-50.252,885.739,,
-51.155,885.739,,
-50.909,885.739,,
-50.876,885.739,,
-51.767,886.251,,
-51.202,886.251,,
-51.897,886.251,,
-51.649,886.251,,
-50.951,886.797,,
-51.518,886.797,,
-50.690,886.797,,
-50.990,886.797,,
-51.071,887.521,,
-50.313,887.521,,
-51.041,887.521,,
-50.521,887.521,,
-50.710,888.279,,
-51.267,888.279,,
-50.586,888.279,,
-51.385,888.279,,
-51.130,889.079,,
-51.150,889.079,,
-51.962,889.079,,
-51.291,889.079,,
-51.964,890.111,,
-51.957,890.111,,
-51.528,890.111,,
-52.235,890.111,,
-51.488,891.124,,
-51.869,891.124,,
-52.095,891.124,,
-51.481,891.124,,
-52.330,892.126,,
-51.792,892.126,,
-51.957,892.126,,
-52.545,892.126,,
-51.831,893.100,,
-52.537,893.100,,
-52.204,893.100,,
-51.918,893.100,,
-52.453,893.983,,
-51.566,893.983,,
-52.075,893.983,,
-51.933,893.983,,
-51.390,894.923,,
-52.152,894.923,,
-51.419,894.923,,
-51.758,894.923,,
-51.924,895.874,,
-51.279,895.874,,
-52.090,895.874,,
-51.561,895.874,,
-51.630,896.810,,
-52.029,896.810,,
-51.157,896.810,,
-52.020,896.810,,
-51.911,897.858,,
-51.865,897.858,,
-52.611,897.858,,
-51.870,897.858,,
-52.531,898.801,,
-52.459,898.801,,
-51.941,898.801,,
-52.629,898.801,,
-51.813,899.728,,
-52.095,899.728,,
-52.298,899.728,,
-51.609,899.728,,
-52.415,900.774,,
-51.932,900.774,,
-51.962,900.774,,
-52.231,900.774,,
-51.203,901.808,,
-51.827,901.808,,
-51.419,901.808,,
-51.080,901.808,,
-51.729,902.987,,
-50.971,902.987,,
-51.599,902.987,,
-51.593,902.987,,
-51.156,903.796,,
-52.032,903.796,,
-51.472,903.796,,
-51.951,903.796,,
-52.222,904.233,,
-51.471,904.233,,
-52.205,904.233,,
-51.541,904.233,,
-51.338,904.830,,
-51.375,904.830,,
-49.814,904.830,,
-49.457,904.830,,
-47.909,905.822,,
-46.427,905.822,,
-46.013,905.822,,
-44.202,905.822,,
-43.822,907.030,,
-42.984,907.030,,
-41.899,907.030,,
-42.288,907.030,,
-41.544,908.018,,
-42.101,908.018,,
-42.736,908.018,,
-42.632,908.018,,
-44.176,909.008,,
-44.433,909.008,,
-45.210,909.008,,
-46.535,909.008,,
-46.586,910.022,,
-48.057,910.022,,
-48.363,910.022,,
-48.552,910.022,,
-49.519,911.037,,
-48.970,911.037,,
-49.677,911.037,,
-49.734,911.037,,
-49.225,912.244,,
-50.060,912.244,,
-49.457,912.244,,
-49.947,912.244,,
-50.452,913.289,,
-50.069,913.289,,
-51.359,913.289,,
-51.301,913.289,,
-51.591,914.188,,
-52.180,914.188,,
-51.320,914.188,,
-51.778,914.188,,
-51.275,915.285,,
-50.771,915.285,,
-51.241,915.285,,
-50.246,915.285,,
-50.689,916.372,,
-50.710,916.372,,
-50.281,916.372,,
-51.161,916.372,,
-50.513,917.641,,
-50.771,917.641,,
-50.995,917.641,,
-50.304,917.641,,
-51.116,919.033,,
-50.683,919.033,,
-50.743,919.033,,
-51.390,919.033,,
-50.749,920.269,,
-51.608,920.269,,
-51.440,920.269,,
-51.316,920.269,,
-52.272,921.633,,
-51.682,921.633,,
-52.292,921.633,,
-52.296,921.633,,
-51.727,922.817,,
-52.510,922.817,,
-51.802,922.817,,
-52.024,922.817,,
-52.197,924.018,,
-51.365,924.018,,
-52.156,924.018,,
-51.771,924.018,,
-51.818,925.174,,
-52.297,925.174,,
-51.371,925.174,,
-52.021,925.174,,
-51.746,926.211,,
-51.389,926.211,,
-52.060,926.211,,
-51.151,926.211,,
-51.515,927.374,,
-51.479,927.374,,
-50.868,927.374,,
-51.627,927.374,,
-51.007,928.438,,
-51.285,928.438,,
-51.477,928.438,,
-50.652,928.438,,
-51.354,929.402,,
-50.830,929.402,,
-50.778,929.402,,
-51.433,929.402,,
-50.835,930.417,,
-51.719,930.417,,
-51.536,930.417,,
-51.226,930.417,,
-51.928,931.353,,
-51.185,931.353,,
-51.725,931.353,,
-51.726,931.353,,
-51.080,932.365,,
-51.872,932.365,,
-51.321,932.365,,
-51.758,932.365,,
-52.336,933.498,,
-51.713,933.498,,
-52.587,933.498,,
-52.164,933.498,,
-52.003,934.380,,
-52.371,934.380,,
-51.353,934.380,,
-51.894,934.380,,
-51.596,935.051,,
-51.225,935.051,,
-51.996,935.051,,
-51.359,935.051,,
-51.968,935.364,,
-52.113,935.364,,
-51.560,935.364,,
-52.338,935.364,,
-51.610,935.771,,
-51.604,935.771,,
-51.462,935.771,,
-49.901,935.771,,
-49.550,936.175,,
-47.673,936.175,,
-46.098,936.175,,
-45.257,936.175,,
-43.291,936.515,,
-42.930,936.515,,
-41.895,936.515,,
-41.055,936.515,,
-41.639,937.021,,
-41.067,937.021,,
-42.096,937.021,,
-42.986,937.021,,
-43.408,938.009,,
-45.177,938.009,,
-45.303,938.009,,
-46.211,938.009,,
-47.214,939.910,,
-47.114,939.910,,
-48.486,939.910,,
-48.584,939.910,,
-49.060,940.918,,
-50.086,940.918,,
-49.712,940.918,,
-50.652,940.918,,
-50.563,941.680,,
-50.255,941.680,,
-50.984,941.680,,
-50.179,941.680,,
-50.749,942.062,,
-50.989,942.062,,
-50.541,942.062,,
-51.497,942.062,,
-50.918,942.228,,
-51.300,942.228,,
-51.854,942.228,,
-51.209,942.228,,
-52.035,942.356,,
-51.430,942.356,,
-51.030,942.356,,
-51.224,942.356,,
-49.966,942.557,,
-50.278,942.557,,
-49.929,942.557,,
-49.412,942.557,,
-49.970,942.732,,
-48.986,942.732,,
-49.304,942.732,,
-49.287,942.732,,
-48.839,943.050,,
-49.919,943.050,,
-49.673,943.050,,
-50.351,943.050,,
-51.189,943.309,,
-50.691,943.309,,
-51.565,943.309,,
-51.100,943.309,,
-50.894,943.458,,
-51.291,943.458,,
-50.300,943.458,,
-50.969,943.458,,
-50.946,943.498,,
-50.737,943.498,,
-51.713,943.498,,
-51.210,943.498,,
-51.841,943.141,,
-51.906,943.141,,
-51.090,943.141,,
-51.771,943.141,,
-51.032,942.712,,
-51.062,942.712,,
-51.241,942.712,,
-50.271,942.712,,
-51.140,942.304,,
-50.886,942.304,,
-50.945,942.304,,
-51.711,942.304,,
-50.997,941.915,,
-51.649,941.915,,
-51.316,941.915,,
-50.776,941.915,,
-51.626,941.564,,
-50.994,941.564,,
-51.509,941.564,,
-51.530,941.564,,
-50.701,940.929,,
-51.360,940.929,,
-50.601,940.929,,
-50.630,940.929,,
-50.936,940.361,,
-50.112,940.361,,
-50.958,940.361,,
-50.760,940.361,,
-50.959,939.888,,
-52.097,939.888,,
-51.690,939.888,,
-52.536,939.888,,
-52.387,939.381,,
-51.782,939.381,,
-52.347,939.381,,
-51.396,939.381,,
-51.662,938.893,,
-51.722,938.893,,
-50.994,938.893,,
-51.804,938.893,,
-51.163,938.050,,
-51.443,938.050,,
-52.156,938.050,,
-51.682,938.050,,
-52.699,937.051,,
-52.285,937.051,,
-52.044,937.051,,
-52.522,937.051,,
-51.475,936.253,,
-51.604,936.253,,
-50.554,936.253,,
-48.849,936.253,,
-48.125,935.446,,
-45.859,935.446,,
-44.897,935.446,,
-43.864,935.446,,
-42.229,934.678,,
-42.334,934.678,,
-41.278,934.678,,
-41.247,934.678,,
-41.733,933.985,,
-41.255,933.985,,
-42.387,933.985,,
-42.421,933.985,,
-42.810,933.176,,
-44.076,933.176,,
-43.902,933.176,,
-45.272,933.176,,
-45.968,932.266,,
-46.371,932.266,,
-47.880,932.266,,
-47.643,932.266,,
-48.475,931.236,,
-48.915,931.236,,
-48.396,931.236,,
-49.276,931.236,,
-48.738,930.461,,
-48.873,930.461,,
-49.262,930.461,,
-48.470,930.461,,
-49.390,929.462,,
-49.209,929.462,,
-49.276,929.462,,
-50.246,929.462,,
-49.643,928.158,,
-50.449,928.158,,
-50.547,928.158,,
-50.220,928.158,,
-51.076,926.950,,
-50.363,926.950,,
-50.787,926.950,,
-50.908,926.950,,
-50.089,925.604,,
-50.738,925.604,,
-49.921,925.604,,
-49.718,925.604,,
-49.651,924.315,,
-48.336,924.315,,
-48.856,924.315,,
-48.563,924.315,,
-48.573,922.994,,
-49.615,922.994,,
-49.263,922.994,,
-50.373,922.994,,
-50.699,921.656,,
-50.586,921.656,,
-51.559,921.656,,
-50.854,921.656,,
-51.258,920.458,,
-51.376,920.458,,
-50.576,920.458,,
-51.419,920.458,,
-50.916,919.258,,
-51.013,919.258,,
-51.376,919.258,,
-50.522,919.258,,
-51.289,918.052,,
-51.002,918.052,,
-50.926,918.052,,
-51.614,918.052,,
-50.886,916.839,,
-51.639,916.839,,
-51.605,916.839,,
-51.139,916.839,,
-52.066,915.727,,
-51.382,915.727,,
-51.729,915.727,,
-51.918,915.727,,
-51.192,914.759,,
-51.966,914.759,,
-51.397,914.759,,
-51.438,914.759,,
-51.888,913.689,,
-51.124,913.689,,
-51.884,913.689,,
-51.609,913.689,,
-51.443,912.529,,
-52.145,912.529,,
-51.319,912.529,,
-51.871,912.529,,
-51.760,911.418,,
-51.255,911.418,,
-52.120,911.418,,
-51.560,911.418,,
-52.190,910.128,,
-52.659,910.128,,
-52.110,910.128,,
-52.953,910.128,,
-52.220,908.938,,
-52.112,908.938,,
-52.617,908.938,,
-51.794,908.938,,
-52.592,907.928,,
-52.379,907.928,,
-52.284,907.928,,
-53.081,907.928,,
-52.256,907.022,,
-52.797,907.022,,
-52.581,907.022,,
-51.839,907.022,,
-52.395,905.789,,
-51.417,905.789,,
-51.503,905.789,,
-51.514,905.789,,
-50.528,903.681,,
-51.009,903.681,,
-50.061,903.681,,
-49.612,903.681,,
-49.322,902.017,,
-47.542,902.017,,
-47.135,902.017,,
-45.560,902.017,,
-44.017,900.850,,
-43.500,900.850,,
-41.613,900.850,,
-41.576,900.850,,
-41.311,899.889,,
-40.756,899.889,,
-41.781,899.889,,
-41.422,899.889,,
-42.239,899.185,,
-43.089,899.185,,
-43.131,899.185,,
-44.761,899.185,,
-44.977,898.449,,
-45.637,898.449,,
-46.625,898.449,,
-46.089,898.449,,
-47.142,897.858,,
-47.230,897.858,,
-47.305,897.858,,
-48.293,897.858,,
-47.667,897.494,,
-48.360,897.494,,
-48.414,897.494,,
-47.959,897.494,,
-48.793,897.487,,
-48.092,897.487,,
-48.386,897.487,,
-48.622,897.487,,
-48.105,897.987,,
-49.361,897.987,,
-49.423,897.987,,
-49.944,897.987,,
-50.733,899.176,,
-50.053,899.176,,
-50.962,899.176,,
-50.899,899.176,,
-50.648,900.352,,
-51.226,900.352,,
-50.265,900.352,,
-50.644,900.352,,
-50.438,900.973,,
-49.790,900.973,,
-50.568,900.973,,
-50.024,900.973,,
-50.621,901.100,,
-51.111,901.100,,
-50.539,901.100,,
-51.477,901.100,,
-51.034,901.048,,
-51.122,901.048,,
-51.718,901.048,,
-50.856,901.048,,
-51.409,900.912,,
-50.807,900.912,,
-50.150,900.912,,
-50.553,900.912,,
-49.517,900.844,,
-49.883,900.844,,
-49.668,900.844,,
-48.951,900.844,,
-49.749,901.079,,
-49.114,901.079,,
-49.396,901.079,,
-49.531,901.079,,
-48.682,901.173,,
-49.449,901.173,,
-48.996,901.173,,
-49.083,901.173,,
-49.725,901.264,,
-49.020,901.264,,
-49.793,901.264,,
-49.481,901.264,,
-48.971,901.281,,
-49.500,901.281,,
-48.601,901.281,,
-49.161,901.281,,
-49.299,901.520,,
-48.876,901.520,,
-49.874,901.520,,
-49.491,901.520,,
-50.185,901.918,,
-50.870,901.918,,
-50.391,901.918,,
-51.294,901.918,,
-50.675,902.238,,
-50.520,902.238,,
-50.983,902.238,,
-50.126,902.238,,
-50.844,902.588,,
-50.629,902.588,,
-50.370,902.588,,
-51.026,902.588,,
-50.239,902.611,,
-50.830,902.611,,
-50.830,902.611,,
-50.186,902.611,,
-50.824,902.640,,
-49.942,902.640,,
-50.028,902.640,,
-50.351,902.640,,
-49.756,902.771,,
-50.817,902.771,,
-50.681,902.771,,
-51.077,902.771,,
-52.034,902.692,,
-51.450,902.692,,
-52.247,902.692,,
-52.047,902.692,,
-51.686,902.657,,
-52.200,902.657,,
-51.075,902.657,,
-51.370,902.657,,
-51.259,902.185,,
-50.478,902.185,,
-51.028,902.185,,
-50.141,902.185,,
-50.279,901.249,,
-50.443,901.249,,
-49.597,901.249,,
-50.366,901.249,,
-49.776,900.215,,
-49.247,900.215,,
-48.874,900.215,,
-46.793,900.215,,
-46.120,899.278,,
-44.615,899.278,,
-43.029,899.278,,
-42.455,899.278,,
-40.564,898.526,,
-40.305,898.526,,
-39.924,898.526,,
-39.326,898.526,,
-40.282,897.493,,
-40.047,897.493,,
-40.894,897.493,,
-41.912,897.493,,
-42.103,896.373,,
-43.918,896.373,,
-44.421,896.373,,
-45.374,896.373,,
-46.813,895.154,,
-46.729,895.154,,
-47.995,895.154,,
-48.068,895.154,,
-47.896,893.572,,
-48.738,893.572,,
-48.027,893.572,,
-48.567,893.572,,
-48.592,892.688,,
-48.033,892.688,,
-48.973,892.688,,
-48.500,892.688,,
-49.028,892.025,,
-49.621,892.025,,
-49.054,892.025,,
-50.084,892.025,,
-49.937,891.363,,
-50.139,891.363,,
-50.866,891.363,,
-50.111,891.363,,
-50.902,890.751,,
-50.853,890.751,,
-50.639,890.751,,
-51.482,890.751,,
-50.852,890.096,,
-51.454,890.096,,
-51.362,890.096,,
-50.510,890.096,,
-51.213,889.615,,
-50.556,889.615,,
-50.774,889.615,,
-51.159,889.615,,
-50.375,889.071,,
-51.198,889.071,,
-50.847,889.071,,
-50.865,889.071,,
-51.479,888.471,,
-50.678,888.471,,
-51.388,888.471,,
-51.148,888.471,,
-50.674,887.788,,
-51.474,887.788,,
-50.866,887.788,,
-51.474,887.788,,
-51.621,886.833,,
-51.025,886.833,,
-51.757,886.833,,
-51.136,886.833,,
-51.406,885.763,,
-51.733,885.763,,
-50.976,885.763,,
-51.640,885.763,,
-51.007,884.879,,
-50.724,884.879,,
-51.121,884.879,,
-50.264,884.879,,
-50.985,884.287,,
-50.828,884.287,,
-50.466,884.287,,
-51.167,884.287,,
-50.391,883.915,,
-50.956,883.915,,
-51.095,883.915,,
-50.493,883.915,,
-51.281,883.463,,
-50.552,883.463,,
-50.688,883.463,,
-51.078,883.463,,
-50.407,883.080,,
-51.322,883.080,,
-50.955,883.080,,
-50.857,883.080,,
-51.413,882.804,,
-50.549,882.804,,
-51.226,882.804,,
-51.056,882.804,,
-50.620,882.527,,
-51.265,882.527,,
-50.358,882.527,,
-50.824,882.527,,
-51.083,882.341,,
-50.694,882.341,,
-51.701,882.341,,
-51.155,882.341,,
-51.397,882.058,,
-51.775,882.058,,
-50.975,882.058,,
-51.718,882.058,,
-51.286,881.966,,
-51.141,881.966,,
-51.711,881.966,,
-50.942,881.966,,
-51.847,881.957,,
-52.021,881.957,,
-51.902,881.957,,
-52.735,881.957,,
-51.805,882.062,,
-52.114,882.062,,
-52.088,882.062,,
-51.353,882.062,,
-52.124,882.117,,
-51.401,882.117,,
-51.432,882.117,,
-51.597,882.117,,
-50.687,881.779,,
-51.421,881.779,,
-50.986,881.779,,
-50.750,881.779,,
-50.944,881.398,,
-49.344,881.398,,
-49.060,881.398,,
-47.698,881.398,,
-45.808,881.015,,
-44.941,881.015,,
-42.705,881.015,,
-41.995,881.015,,
-41.182,880.709,,
-39.891,880.709,,
-40.477,880.709,,
-39.992,880.709,,
-40.518,880.655,,
-41.489,880.655,,
-41.391,880.655,,
-42.985,880.655,,
-43.553,880.644,,
-44.252,880.644,,
-45.474,880.644,,
-45.093,880.644,,
-46.074,880.620,,
-46.209,880.620,,
-46.134,880.620,,
-47.234,880.620,,
-46.798,880.544,,
-47.409,880.544,,
-47.507,880.544,,
-46.825,880.544,,
-47.686,880.524,,
-47.230,880.524,,
-47.583,880.524,,
-48.088,880.524,,
-47.484,880.557,,
-48.632,880.557,,
-48.653,880.557,,
-48.922,880.557,,
-49.810,880.522,,
-49.189,880.522,,
-49.949,880.522,,
-49.823,880.522,,
-49.390,880.592,,
-50.182,880.592,,
-49.588,880.592,,
-50.304,880.592,,
-50.727,880.880,,
-50.252,880.880,,
-51.162,880.880,,
-50.563,880.880,,
-50.655,881.223,,
-50.926,881.223,,
-49.979,881.223,,
-50.617,881.223,,
-50.165,881.753,,
-50.068,881.753,,
-51.000,881.753,,
-50.527,881.753,,
-51.332,882.292,,
-51.207,882.292,,
-50.712,882.292,,
-51.393,882.292,,
-50.717,883.003,,
-51.334,883.003,,
-51.786,883.003,,
-51.277,883.003,,
-52.046,883.915,,
-51.391,883.915,,
-51.542,883.915,,
-52.198,883.915,,
-51.689,884.871,,
-52.637,884.871,,
-52.238,884.871,,
-52.014,884.871,,
-52.564,886.063,,
-51.627,886.063,,
-52.108,886.063,,
-51.886,886.063,,
-51.339,887.071,,
-52.107,887.071,,
-51.274,887.071,,
-51.621,887.071,,
-51.756,888.157,,
-51.100,888.157,,
-51.894,888.157,,
-51.180,888.157,,
-51.150,889.258,,
-51.525,889.258,,
-50.712,889.258,,
-51.487,889.258,,
-51.112,890.299,,
-50.839,890.299,,
-51.351,890.299,,
-50.383,890.299,,
-51.214,891.573,,
-51.325,891.573,,
-50.854,891.573,,
-51.525,891.573,,
-50.549,892.802,,
-50.803,892.802,,
-51.003,892.802,,
-50.361,892.802,,
-51.248,894.049,,
-50.666,894.049,,
-50.738,894.049,,
-51.241,894.049,,
-50.578,895.359,,
-51.551,895.359,,
-51.362,895.359,,
-51.274,895.359,,
-51.848,896.747,,
-50.737,896.747,,
-51.052,896.747,,
-50.634,896.747,,
-49.980,898.325,,
-50.661,898.325,,
-49.784,898.325,,
-50.050,898.325,,
-50.113,899.698,,
-49.509,899.698,,
-50.546,899.698,,
-50.179,899.698,,
-50.366,901.040,,
-50.867,901.040,,
-50.045,901.040,,
-50.972,901.040,,
-50.798,902.113,,
-50.728,902.113,,
-51.488,902.113,,
-50.659,902.113,,
-51.308,902.794,,
-51.322,902.794,,
-50.965,902.794,,
-51.760,902.794,,
-50.761,903.757,,
-50.617,903.757,,
-49.980,903.757,,
-48.041,903.757,,
-47.305,904.942,,
-45.180,904.942,,
-43.740,904.942,,
-42.758,904.942,,
-40.761,906.313,,
-40.667,906.313,,
-39.922,906.313,,
-39.751,906.313,,
-40.761,907.985,,
-40.557,907.985,,
-41.870,907.985,,
-42.491,907.985,,
-42.819,909.617,,
-44.494,909.617,,
-44.600,909.617,,
-45.680,909.617,,
-46.436,911.157,,
-46.308,911.157,,
-47.740,911.157,,
-47.689,911.157,,
-48.109,912.464,,
-48.691,912.464,,
-47.775,912.464,,
-48.357,912.464,,
-47.923,913.855,,
-47.645,913.855,,
-48.409,913.855,,
-47.883,913.855,,
-48.928,914.827,,
-49.347,914.827,,
-49.225,914.827,,
-50.301,914.827,,
-49.880,915.497,,
-50.482,915.497,,
-50.800,915.497,,
-50.109,915.497,,
-50.882,916.166,,
-50.236,916.166,,
-50.175,916.166,,
-50.437,916.166,,
-49.400,916.587,,
-49.863,916.587,,
-49.121,916.587,,
-48.634,916.587,,
-49.299,916.874,,
-48.534,916.874,,
-49.271,916.874,,
-49.466,916.874,,
-49.167,916.949,,
-50.047,916.949,,
-49.409,916.949,,
-49.958,916.949,,
-50.384,916.732,,
-49.876,916.732,,
-50.667,916.732,,
-49.990,916.732,,
-50.089,916.401,,
-50.767,916.401,,
-50.240,916.401,,
-51.135,916.401,,
-50.831,915.922,,
-50.600,915.922,,
-51.318,915.922,,
-50.659,915.922,,
-51.551,915.483,,
-51.825,915.483,,
-51.482,915.483,,
-52.309,915.483,,
-51.382,915.042,,
-51.508,915.042,,
-51.669,915.042,,
-50.989,915.042,,
-51.782,914.516,,
-51.202,914.516,,
-51.315,914.516,,
-51.910,914.516,,
-51.168,914.050,,
-51.885,914.050,,
-51.409,914.050,,
-50.891,914.050,,
-51.363,913.532,,
-50.376,913.532,,
-50.887,913.532,,
-50.812,913.532,,
-50.232,913.122,,
-50.822,913.122,,
-49.820,913.122,,
-49.945,913.122,,
-50.018,912.717,,
-49.268,912.717,,
-50.035,912.717,,
-49.491,912.717,,
-49.594,912.269,,
-50.133,912.269,,
-49.394,912.269,,
-50.361,912.269,,
-50.367,912.066,,
-50.425,912.066,,
-51.313,912.066,,
-50.491,912.066,,
-51.016,911.840,,
-50.837,911.840,,
-50.073,911.840,,
-50.671,911.840,,
-49.924,911.606,,
-50.239,911.606,,
-50.444,911.606,,
-49.850,911.606,,
-51.025,911.358,,
-50.931,911.358,,
-51.267,911.358,,
-51.935,911.358,,
-51.099,910.716,,
-51.806,910.716,,
-51.469,910.716,,
-51.131,910.716,,
-51.719,909.940,,
-50.747,909.940,,
-51.005,909.940,,
-50.384,909.940,,
-48.991,909.095,,
-48.849,909.095,,
-47.065,909.095,,
-46.130,909.095,,
-44.980,908.408,,
-42.868,908.408,,
-42.535,908.408,,
-41.236,908.408,,
-40.838,907.484,,
-41.197,907.484,,
-40.407,907.484,,
-41.477,907.484,,
-41.732,906.417,,
-42.172,906.417,,
-43.580,906.417,,
-43.511,906.417,,
-44.856,905.285,,
-45.625,905.285,,
-45.789,905.285,,
-47.298,905.285,,
-47.300,904.068,,
-48.183,904.068,,
-48.763,904.068,,
-48.255,904.068,,
-49.345,903.176,,
-49.082,903.176,,
-49.333,903.176,,
-50.009,903.176,,
-49.214,902.223,,
-49.978,902.223,,
-49.709,902.223,,
-49.431,902.223,,
-50.253,901.190,,
-49.566,901.190,,
-50.151,901.190,,
-50.028,901.190,,
-49.352,900.387,,
-50.055,900.387,,
-49.351,900.387,,
-49.698,900.387,,
-50.024,899.648,,
-49.338,899.648,,
-50.181,899.648,,
-49.585,899.648,,
-49.445,898.939,,
-49.934,898.939,,
-49.108,898.939,,
-49.748,898.939,,
-49.279,898.188,,
-48.864,898.188,,
-49.485,898.188,,
-48.667,898.188,,
-49.361,897.435,,
-49.551,897.435,,
-49.130,897.435,,
-49.965,897.435,,
-49.446,896.746,,
-50.115,896.746,,
-50.779,896.746,,
-50.345,896.746,,
-51.387,895.985,,
-51.112,895.985,,
-51.303,895.985,,
-51.856,895.985,,
-51.046,895.369,,
-51.830,895.369,,
-51.530,895.369,,
-51.006,895.369,,
-51.438,894.767,,
-50.520,894.767,,
-51.069,894.767,,
-51.178,894.767,,
-50.762,894.192,,
-51.632,894.192,,
-50.871,894.192,,
-51.075,894.192,,
-51.238,893.639,,
-50.443,893.639,,
-51.252,893.639,,
-50.694,893.639,,
-50.557,892.878,,
-50.986,892.878,,
-50.163,892.878,,
-50.953,892.878,,
-50.733,892.280,,
-50.411,892.280,,
-50.962,892.280,,
-49.938,892.280,,
-50.372,891.628,,
-50.447,891.628,,
-49.944,891.628,,
-50.831,891.628,,
-50.281,890.879,,
-50.767,890.879,,
-51.198,890.879,,
-50.595,890.879,,
-51.479,890.147,,
-50.946,890.147,,
-50.834,890.147,,
-51.291,890.147,,
-50.432,889.348,,
-51.234,889.348,,
-51.122,889.348,,
-51.011,889.348,,
-51.887,888.900,,
-51.104,888.900,,
-51.615,888.900,,
-51.544,888.900,,
-50.850,888.561,,
-51.347,888.561,,
-50.253,888.561,,
-50.077,888.561,,
-49.924,887.878,,
-48.932,887.878,,
-49.676,887.878,,
-49.272,887.878,,
-49.437,886.568,,
-50.136,886.568,,
-49.450,886.568,,
-50.169,886.568,,
-49.559,884.587,,
-48.389,884.587,,
-47.769,884.587,,
-45.486,884.587,,
-44.466,883.452,,
-42.969,883.452,,
-41.184,883.452,,
-41.140,883.452,,
-40.008,882.533,,
-40.106,882.533,,
-40.372,882.533,,
-39.893,882.533,,
-41.325,881.773,,
-41.612,881.773,,
-42.405,881.773,,
-43.752,881.773,,
-43.765,880.987,,
-45.169,880.987,,
-45.574,880.987,,
-45.884,880.987,,
-47.056,880.060,,
-46.587,880.060,,
-47.355,880.060,,
-47.455,880.060,,
-46.998,879.312,,
-48.007,879.312,,
-47.616,879.312,,
-48.064,879.312,,
-48.438,878.379,,
-47.761,878.379,,
-48.663,878.379,,
-48.330,878.379,,
-48.485,877.870,,
-49.112,877.870,,
-48.483,877.870,,
-49.433,877.870,,
-49.442,878.032,,
-49.301,878.032,,
-50.158,878.032,,
-49.619,878.032,,
-50.220,878.445,,
-50.112,878.445,,
-49.341,878.445,,
-49.922,878.445,,
-49.237,879.012,,
-49.540,879.012,,
-49.860,879.012,,
-49.101,879.012,,
-49.838,879.546,,
-49.185,879.546,,
-48.869,879.546,,
-49.279,879.546,,
-48.484,880.139,,
-49.227,880.139,,
-49.134,880.139,,
-48.997,880.139,,
-49.799,880.727,,
-49.213,880.727,,
-49.857,880.727,,
-50.043,880.727,,
-49.535,881.129,,
-50.215,881.129,,
-49.478,881.129,,
-49.605,881.129,,
-49.913,881.533,,
-49.312,881.533,,
-50.199,881.533,,
-49.877,881.533,,
-49.960,881.810,,
-50.618,881.810,,
-49.966,881.810,,
-50.641,881.810,,
-50.491,881.994,,
-50.276,881.994,,
-51.069,881.994,,
-50.436,881.994,,
-51.207,882.217,,
-51.603,882.217,,
-51.303,882.217,,
-52.148,882.217,,
-51.533,882.175,,
-51.801,882.175,,
-52.128,882.175,,
-51.401,882.175,,
-52.017,881.896,,
-51.509,881.896,,
-51.486,881.896,,
-52.094,881.896,,
-51.404,881.363,,
-52.114,881.363,,
-51.933,881.363,,
-51.622,881.363,,
-52.325,880.983,,
-51.648,880.983,,
-52.247,880.983,,
-52.529,880.983,,
-52.205,880.735,,
-53.159,880.735,,
-52.744,880.735,,
-52.971,880.735,,
-52.981,880.755,,
-51.798,880.755,,
-51.901,880.755,,
-50.621,880.755,,
-49.638,880.483,,
-49.176,880.483,,
-47.540,880.483,,
-47.940,880.483,,
-48.072,879.645,,
-48.319,879.645,,
-49.298,879.645,,
-48.458,879.645,,
-48.562,878.970,,
-48.024,878.970,,
-46.775,878.970,,
-46.805,878.970,,
-45.495,878.449,,
-45.046,878.449,,
-44.699,878.449,,
-43.481,878.449,,
-44.122,877.731,,
-44.186,877.731,,
-44.985,877.731,,
-46.651,877.731,,
-47.314,876.824,,
-49.707,876.824,,
-51.367,876.824,,
-52.882,876.824,,
-55.167,875.710,,
-55.670,875.710,,
-56.907,875.710,,
-57.399,875.710,,
-56.831,874.683,,
-57.073,874.683,,
-55.754,874.683,,
-55.194,874.683,,
-54.625,873.883,,
-52.891,873.883,,
-52.536,873.883,,
-51.174,873.883,,
-50.273,873.426,,
-50.236,873.426,,
-49.101,873.426,,
-49.584,873.426,,
-49.462,873.215,,
-49.269,873.215,,
-50.124,873.215,,
-49.608,873.215,,
-50.251,873.192,,
-50.425,873.192,,
-49.907,873.192,,
-50.603,873.192,,
-50.014,873.414,,
-50.175,873.414,,
-50.382,873.414,,
-49.541,873.414,,
-50.171,873.586,,
-49.699,873.586,,
-49.517,873.586,,
-50.027,873.586,,
-49.325,873.519,,
-50.036,873.519,,
-49.816,873.519,,
-49.536,873.519,,
-50.477,873.106,,
-50.005,873.106,,
-50.722,873.106,,
-51.048,873.106,,
-50.632,872.508,,
-51.414,872.508,,
-50.858,872.508,,
-51.164,872.508,,
-51.598,872.190,,
-50.966,872.190,,
-51.658,872.190,,
-51.090,872.190,,
-50.792,871.709,,
-51.103,871.709,,
-50.220,871.709,,
-50.814,871.709,,
-50.647,871.359,,
-50.370,871.359,,
-51.098,871.359,,
-50.575,871.359,,
-51.478,871.157,,
-52.015,871.157,,
-51.885,871.157,,
-52.860,871.157,,
-52.238,870.787,,
-52.241,870.787,,
-52.388,870.787,,
-51.534,870.787,,
-52.087,870.573,,
-51.480,870.573,,
-51.277,870.573,,
-51.750,870.573,,
-51.106,870.458,,
-52.130,870.458,,
-52.245,870.458,,
-51.967,870.458,,
-52.659,870.501,,
-51.758,870.501,,
-52.096,870.501,,
-52.136,870.501,,
-51.563,870.133,,
-52.275,870.133,,
-51.589,870.133,,
-51.805,870.133,,
-52.094,869.530,,
-51.189,869.530,,
-51.658,869.530,,
-50.669,869.530,,
-49.722,868.737,,
-49.091,868.737,,
-46.936,868.737,,
-46.275,868.737,,
-44.873,867.718,,
-43.410,867.718,,
-43.222,867.718,,
-41.860,867.718,,
-42.083,866.952,,
-42.133,866.952,,
-41.722,866.952,,
-42.848,866.952,,
-42.635,866.283,,
-43.235,866.283,,
-43.919,866.283,,
-43.662,866.283,,
-45.031,865.686,,
-45.364,865.686,,
-46.182,865.686,,
-47.517,865.686,,
-47.332,865.116,,
-48.401,865.116,,
-48.525,865.116,,
-48.315,865.116,,
-48.925,864.647,,
-47.988,864.647,,
-48.345,864.647,,
-48.414,864.647,,
-48.020,864.203,,
-49.222,864.203,,
-49.107,864.203,,
-49.797,864.203,,
-50.625,863.618,,
-50.292,863.618,,
-51.412,863.618,,
-51.120,863.618,,
-50.828,863.176,,
-51.029,863.176,,
-49.982,863.176,,
-50.587,863.176,,
-50.399,863.020,,
-49.999,863.020,,
-50.634,863.020,,
-49.813,863.020,,
-50.115,862.852,,
-49.991,862.852,,
-49.121,862.852,,
-49.688,862.852,,
-49.087,862.809,,
-49.330,862.809,,
-49.714,862.809,,
-49.027,862.809,,
-49.859,862.674,,
-49.575,862.674,,
-49.621,862.674,,
-50.318,862.674,,
-49.653,862.491,,
-50.365,862.491,,
-50.120,862.491,,
-49.594,862.491,,
-50.151,862.323,,
-49.410,862.323,,
-50.013,862.323,,
-50.312,862.323,,
-50.003,862.176,,
-51.096,862.176,,
-50.835,862.176,,
-51.316,862.176,,
-51.877,862.233,,
-51.268,862.233,,
-52.018,862.233,,
-51.439,862.233,,
-51.075,862.193,,
-51.426,862.193,,
-50.544,862.193,,
-50.997,862.193,,
-50.554,862.414,,
-50.120,862.414,,
-50.946,862.414,,
-50.400,862.414,,
-50.911,862.646,,
-51.052,862.646,,
-50.427,862.646,,
-51.113,862.646,,
-50.442,862.867,,
-50.658,862.867,,
-51.119,862.867,,
-50.438,862.867,,
-51.125,863.054,,
-50.506,863.054,,
-50.255,863.054,,
-50.693,863.054,,
-49.819,862.892,,
-50.397,862.892,,
-50.054,862.892,,
-49.379,862.892,,
-49.714,862.634,,
-48.442,862.634,,
-48.314,862.634,,
-47.573,862.634,,
-45.927,862.165,,
-45.506,862.165,,
-43.585,862.165,,
-42.722,862.165,,
-42.243,861.745,,
-40.796,861.745,,
-40.986,861.745,,
-40.239,861.745,,
-40.137,861.384,,
-40.939,861.384,,
-40.666,861.384,,
-42.095,861.384,,
-42.865,861.183,,
-43.574,861.183,,
-45.224,861.183,,
-45.162,861.183,,
-46.338,861.154,,
-47.029,861.154,,
-46.863,861.154,,
-48.014,861.154,,
-47.639,861.190,,
-47.944,861.190,,
-48.283,861.190,,
-47.544,861.190,,
-48.469,861.469,,
-48.261,861.469,,
-48.418,861.469,,
-49.187,861.469,,
-48.511,861.818,,
-49.423,861.818,,
-49.542,861.818,,
-49.506,861.818,,
-50.516,862.318,,
-49.907,862.318,,
-50.456,862.318,,
-50.486,862.318,,
-49.897,862.510,,
-50.667,862.510,,
-49.836,862.510,,
-49.746,862.510,,
-49.701,862.224,,
-48.510,862.224,,
-48.989,862.224,,
-48.406,862.224,,
-48.276,861.804,,
-48.922,861.804,,
-48.305,861.804,,
-49.221,861.804,,
-49.301,861.390,,
-49.214,861.390,,
-50.096,861.390,,
-49.514,861.390,,
-50.182,860.940,,
-50.513,860.940,,
-50.140,860.940,,
-51.181,860.940,,
-50.907,860.749,,
-51.441,860.749,,
-51.907,860.749,,
-51.141,860.749,,
-51.902,860.400,,
-51.473,860.400,,
-51.392,860.400,,
-51.959,860.400,,
-51.109,859.845,,
-51.662,859.845,,
-51.460,859.845,,
-51.145,859.845,,
-51.932,858.758,,
-51.204,858.758,,
-51.676,858.758,,
-51.798,858.758,,
-51.190,857.715,,
-51.941,857.715,,
-51.283,857.715,,
-51.383,857.715,,
-51.814,856.839,,
-51.237,856.839,,
-52.230,856.839,,
-52.097,856.839,,
-52.375,855.901,,
-53.432,855.901,,
-53.201,855.901,,
-54.421,855.901,,
-54.751,855.823,,
-54.851,855.823,,
-56.104,855.823,,
-55.766,855.823,,
-56.382,856.299,,
-56.495,856.299,,
-55.718,856.299,,
-56.255,856.299,,
-55.429,857.022,,
-55.495,857.022,,
-55.876,857.022,,
-55.203,857.022,,
-56.109,857.486,,
-55.809,857.486,,
-55.652,857.486,,
-56.099,857.486,,
-55.107,857.450,,
-55.571,857.450,,
-55.371,857.450,,
-54.978,857.450,,
-55.673,857.614,,
-54.836,857.614,,
-54.986,857.614,,
-54.407,857.614,,
-52.722,858.001,,
-52.101,858.001,,
-49.606,858.001,,
-47.689,858.001,,
-46.056,858.971,,
-43.539,858.971,,
-42.874,858.971,,
-41.523,858.971,,
-40.973,860.335,,
-41.402,860.335,,
-40.756,860.335,,
-41.662,860.335,,
-41.835,861.817,,
-41.829,861.817,,
-42.964,861.817,,
-42.665,861.817,,
-43.562,863.364,,
-44.188,863.364,,
-44.179,863.364,,
-45.586,863.364,,
-45.482,864.753,,
-46.074,864.753,,
-46.775,864.753,,
-46.319,864.753,,
-47.391,866.482,,
-47.206,866.482,,
-47.139,866.482,,
-47.723,866.482,,
-47.071,867.899,,
-48.032,867.899,,
-48.329,867.899,,
-48.600,867.899,,
-49.968,868.894,,
-49.661,868.894,,
-50.567,868.894,,
-51.198,868.894,,
-51.127,870.022,,
-52.466,870.022,,
-52.372,870.022,,
-52.892,870.022,,
-53.457,871.423,,
-52.858,871.423,,
-53.768,871.423,,
-53.459,871.423,,
-53.508,873.026,,
-54.272,873.026,,
-53.700,873.026,,
-54.773,873.026,,
-55.104,874.501,,
-55.422,874.501,,
-57.063,874.501,,
-57.126,874.501,,
-58.312,875.793,,
-59.106,875.793,,
-59.345,875.793,,
-61.169,875.793,,
-61.404,876.892,,
-62.111,876.892,,
-62.524,876.892,,
-61.362,876.892,,
-61.741,877.814,,
-60.899,877.814,,
-60.019,877.814,,
-59.626,877.814,,
-57.636,878.934,,
-57.036,878.934,,
-55.602,878.934,,
-54.075,878.934,,
-54.049,880.082,,
-52.765,880.082,,
-52.862,880.082,,
-52.548,880.082,,
-51.498,881.340,,
-51.959,881.340,,
-51.139,881.340,,
-51.264,881.340,,
-51.625,882.910,,
-50.866,882.910,,
-51.890,882.910,,
-51.941,882.910,,
-52.313,884.339,,
-53.430,884.339,,
-53.149,884.339,,
-54.225,884.339,,
-54.285,885.841,,
-53.911,885.841,,
-54.666,885.841,,
-53.914,885.841,,
-54.377,887.464,,
-54.533,887.464,,
-53.908,887.464,,
-54.619,887.464,,
-53.869,889.253,,
-54.015,889.253,,
-54.332,889.253,,
-53.495,889.253,,
-54.284,890.903,,
-53.640,890.903,,
-52.965,890.903,,
-53.088,890.903,,
-52.037,892.274,,
-52.551,892.274,,
-52.277,892.274,,
-51.773,892.274,,
-52.547,893.163,,
-51.840,893.163,,
-52.434,893.163,,
-52.631,893.163,,
-51.851,893.838,,
-52.154,893.838,,
-50.836,893.838,,
-50.222,893.838,,
-49.581,894.840,,
-47.607,894.840,,
-47.052,894.840,,
-45.231,894.840,,
-43.884,895.911,,
-43.447,895.911,,
-41.753,895.911,,
-41.892,895.911,,
-41.428,897.020,,
-40.925,897.020,,
-41.728,897.020,,
-41.274,897.020,,
-42.256,898.162,,
-43.105,898.162,,
-43.418,898.162,,
-45.278,898.162,,
-45.574,899.016,,
-46.628,899.016,,
-47.794,899.016,,
-47.702,899.016,,
-48.841,899.969,,
-48.537,899.969,,
-48.545,899.969,,
-49.324,899.969,,
-48.705,900.978,,
-49.496,900.978,,
-49.533,900.978,,
-49.384,900.978,,
-50.184,901.713,,
-49.314,901.713,,
-49.819,901.713,,
-50.081,901.713,,
-49.599,902.312,,
-50.496,902.312,,
-49.990,902.312,,
-50.385,902.312,,
-50.890,903.001,,
-50.151,903.001,,
-51.140,903.001,,
-50.823,903.001,,
-50.530,903.753,,
-50.884,903.753,,
-49.671,903.753,,
-50.034,903.753,,
-49.758,904.495,,
-49.165,904.495,,
-49.581,904.495,,
-48.410,904.495,,
-48.756,905.260,,
-49.027,905.260,,
-48.755,905.260,,
-49.962,905.260,,
-49.633,905.841,,
-49.921,905.841,,
-50.401,905.841,,
-49.790,905.841,,
-50.735,906.296,,
-50.347,906.296,,
-50.123,906.296,,
-50.486,906.296,,
-49.469,906.728,,
-50.092,906.728,,
-49.942,906.728,,
-49.519,906.728,,
-50.029,907.109,,
-49.050,907.109,,
-49.377,907.109,,
-49.290,907.109,,
-48.489,907.461,,
-49.158,907.461,,
-48.522,907.461,,
-48.826,907.461,,
-49.367,907.574,,
-48.802,907.574,,
-49.909,907.574,,
-49.883,907.574,,
-50.218,907.685,,
-51.175,907.685,,
-50.505,907.685,,
-51.216,907.685,,
-51.050,908.061,,
-50.838,908.061,,
-51.935,908.061,,
-51.591,908.061,,
-52.354,908.548,,
-52.473,908.548,,
-51.766,908.548,,
-52.463,908.548,,
-51.764,909.124,,
-51.900,909.124,,
-52.240,909.124,,
-51.430,909.124,,
-52.154,909.358,,
-51.603,909.358,,
-51.310,909.358,,
-51.593,909.358,,
-50.586,909.179,,
-51.144,909.179,,
-50.885,909.179,,
-50.396,909.179,,
-51.028,909.073,,
-50.201,909.073,,
-50.400,909.073,,
-49.812,909.073,,
-48.187,909.101,,
-47.730,909.101,,
-45.655,909.101,,
-44.335,909.101,,
-43.234,909.414,,
-41.230,909.414,,
-40.921,909.414,,
-39.723,909.414,,
-39.239,909.676,,
-39.799,909.676,,
-39.400,909.676,,
-40.745,909.676,,
-41.502,910.038,,
-42.153,910.038,,
-43.877,910.038,,
-44.154,910.038,,
-45.623,910.232,,
-46.436,910.232,,
-46.424,910.232,,
-47.659,910.232,,
-47.252,910.592,,
-47.570,910.592,,
-48.049,910.592,,
-47.532,910.592,,
-48.553,911.183,,
-48.301,911.183,,
-48.278,911.183,,
-48.961,911.183,,
-48.452,911.470,,
-49.614,911.470,,
-49.977,911.470,,
-50.196,911.470,,
-51.420,911.992,,
-51.079,911.992,,
-51.897,911.992,,
-52.270,911.992,,
-51.818,912.468,,
-52.402,912.468,,
-51.331,912.468,,
-51.051,912.468,,
-50.877,913.245,,
-49.729,913.245,,
-50.156,913.245,,
-49.435,913.245,,
-49.142,914.277,,
-49.538,914.277,,
-48.670,914.277,,
-49.355,914.277,,
-49.245,914.973,,
-49.136,914.973,,
-49.996,914.973,,
-49.322,914.973,,
-49.990,915.604,,
-50.160,915.604,,
-49.614,915.604,,
-50.494,915.604,,
-50.096,916.121,,
-50.619,916.121,,
-51.272,916.121,,
-50.670,916.121,,
-51.440,916.699,,
-50.975,916.699,,
-50.880,916.699,,
-51.462,916.699,,
-50.714,917.157,,
-51.606,917.157,,
-51.679,917.157,,
-51.444,917.157,,
-52.119,917.754,,
-51.392,917.754,,
-51.995,917.754,,
-52.147,917.754,,
-51.686,918.548,,
-52.641,918.548,,
-51.976,918.548,,
-52.213,918.548,,
-52.497,919.436,,
-51.576,919.436,,
-52.285,919.436,,
-51.751,919.436,,
-51.563,920.783,,
-52.070,920.783,,
-51.336,920.783,,
-52.101,920.783,,
-51.711,922.037,,
-51.154,922.037,,
-51.880,922.037,,
-51.298,922.037,,
-51.920,923.295,,
-51.916,923.295,,
-51.237,923.295,,
-52.098,923.295,,
-51.504,924.236,,
-51.647,924.236,,
-51.892,924.236,,
-51.272,924.236,,
-52.300,924.513,,
-51.973,924.513,,
-51.957,924.513,,
-52.505,924.513,,
-51.722,924.873,,
-52.286,924.873,,
-51.582,924.873,,
-50.286,924.873,,
-49.850,925.224,,
-47.830,925.224,,
-47.045,925.224,,
-45.767,925.224,,
-43.854,925.574,,
-43.323,925.574,,
-41.608,925.574,,
-41.105,925.574,,
-40.894,925.923,,
-39.972,925.923,,
-40.774,925.923,,
-40.599,925.923,,
-41.061,926.091,,
-42.428,926.091,,
-42.698,926.091,,
-44.428,926.091,,
-45.001,926.111,,
-45.371,926.111,,
-46.700,926.111,,
-46.487,926.111,,
-47.551,925.891,,
-48.286,925.891,,
-48.331,925.891,,
-49.550,925.891,,
-49.204,925.837,,
-49.680,925.837,,
-49.968,925.837,,
-49.182,925.837,,
-49.917,925.449,,
-49.352,925.449,,
-49.336,925.449,,
-49.927,925.449,,
-49.279,924.888,,
-50.351,924.888,,
-50.454,924.888,,
-50.363,924.888,,
-51.157,924.284,,
-50.345,924.284,,
-50.823,924.284,,
-50.969,924.284,,
-50.608,923.621,,
-51.335,923.621,,
-50.330,923.621,,
-50.273,923.621,,
-50.201,923.296,,
-49.005,923.296,,
-49.353,923.296,,
-48.626,923.296,,
-48.500,922.948,,
-49.131,922.948,,
-48.652,922.948,,
-49.694,922.948,,
-49.853,922.751,,
-49.790,922.751,,
-50.599,922.751,,
-49.920,922.751,,
-50.567,922.446,,
-50.604,922.446,,
-50.056,922.446,,
-50.849,922.446,,
-50.093,922.202,,
-50.302,922.202,,
-50.612,922.202,,
-50.079,922.202,,
-51.131,921.901,,
-50.873,921.901,,
-50.877,921.901,,
-51.297,921.901,,
-50.300,921.452,,
-50.941,921.452,,
-50.665,921.452,,
-50.493,921.452,,
-51.496,921.278,,
-50.958,921.278,,
-51.781,921.278,,
-51.969,921.278,,
-51.513,921.022,,
-52.427,921.022,,
-51.797,921.022,,
-51.994,921.022,,
-52.052,920.852,,
-50.914,920.852,,
-51.352,920.852,,
-50.707,920.852,,
-50.666,920.847,,
-51.149,920.847,,
-50.259,920.847,,
-50.944,920.847,,
-50.667,920.871,,
-50.341,920.871,,
-51.027,920.871,,
-50.138,920.871,,
-50.662,921.066,,
-50.741,921.066,,
-50.291,921.066,,
-51.377,921.066,,
-50.912,920.758,,
-51.438,920.758,,
-51.745,920.758,,
-50.858,920.758,,
-51.626,920.068,,
-51.328,920.068,,
-51.626,920.068,,
-52.281,920.068,,
-51.380,919.191,,
-51.573,919.191,,
-50.252,919.191,,
-48.588,919.191,,
-47.958,918.618,,
-45.760,918.618,,
-44.743,918.618,,
-43.314,918.618,,
-41.637,918.282,,
-41.576,918.282,,
-40.264,918.282,,
-40.144,918.282,,
-40.236,918.066,,
-39.696,918.066,,
-41.060,918.066,,
-41.518,918.066,,
-42.680,917.985,,
-44.297,917.985,,
-44.588,917.985,,
-46.388,917.985,,
-47.019,917.744,,
-47.303,917.744,,
-48.357,917.744,,
-47.941,917.744,,
-48.864,917.596,,
-49.031,917.596,,
-48.375,917.596,,
-48.798,917.596,,
-47.760,917.654,,
-48.101,917.654,,
-48.780,917.654,,
-48.369,917.654,,
-49.185,917.704,,
-48.470,917.704,,
-48.382,917.704,,
-48.980,917.704,,
-48.577,917.698,,
-49.693,917.698,,
-49.713,917.698,,
-49.679,917.698,,
-50.472,917.649,,
-49.865,917.649,,
-50.520,917.649,,
-50.443,917.649,,
-49.738,917.752,,
-50.509,917.752,,
-49.890,917.752,,
-50.290,917.752,,
-50.583,917.781,,
-49.759,917.781,,
-50.377,917.781,,
-49.562,917.781,,
-49.364,917.796,,
-49.707,917.796,,
-48.891,917.796,,
-49.677,917.796,,
-49.472,917.851,,
-49.391,917.851,,
-50.263,917.851,,
-49.666,917.851,,
-50.458,917.870,,
-50.539,917.870,,
-50.156,917.870,,
-51.064,917.870,,
-50.412,917.965,,
-50.715,917.965,,
-50.923,917.965,,
-50.270,917.965,,
-51.058,917.923,,
-50.494,917.923,,
-50.579,917.923,,
-51.229,917.923,,
-50.500,917.954,,
-51.513,917.954,,
-51.515,917.954,,
-51.334,917.954,,
-51.827,918.001,,
-50.856,918.001,,
-51.351,918.001,,
-51.157,918.001,,
-50.469,918.017,,
-51.203,918.017,,
-50.654,918.017,,
-51.297,918.017,,
-51.610,918.152,,
-50.678,918.152,,
-51.229,918.152,,
-50.573,918.152,,
-50.424,918.127,,
-50.559,918.127,,
-49.523,918.127,,
-50.280,918.127,,
-50.032,918.124,,
-49.863,918.124,,
-50.648,918.124,,
-50.015,918.124,,
-50.630,918.000,,
-50.572,918.000,,
-50.039,918.000,,
-51.032,918.000,,
-50.745,918.018,,
-51.536,918.018,,
-51.947,918.018,,
-51.313,918.018,,
-51.997,918.103,,
-51.209,918.103,,
-50.993,918.103,,
-51.253,918.103,,
-50.339,918.294,,
-50.961,918.294,,
-50.548,918.294,,
-50.174,918.294,,
-50.752,918.117,,
-50.106,918.117,,
-50.931,918.117,,
-51.056,918.117,,
-50.642,917.359,,
-51.311,917.359,,
-50.203,917.359,,
-49.819,917.359,,
-49.064,916.551,,
-47.237,916.551,,
-46.686,916.551,,
-44.633,916.551,,
-43.210,915.900,,
-42.262,915.900,,
-40.382,915.900,,
-40.397,915.900,,
-39.537,915.467,,
-38.954,915.467,,
-39.363,915.467,,
-38.806,915.467,,
-40.009,915.300,,
-40.842,915.300,,
-41.375,915.300,,
-43.075,915.300,,
-43.350,915.143,,
-44.724,915.143,,
-45.715,915.143,,
-45.618,915.143,,
-46.911,915.080,,
-46.790,915.080,,
-47.216,915.080,,
-47.848,915.080,,
-47.077,914.921,,
-47.553,914.921,,
-46.955,914.921,,
-46.605,914.921,,
-47.246,914.944,,
-46.546,914.944,,
-47.239,914.944,,
-47.273,914.944,,
-47.077,914.774,,
-48.068,914.774,,
-47.676,914.774,,
-48.508,914.774,,
-49.130,914.164,,
-48.820,914.164,,
-49.914,914.164,,
-49.722,914.164,,
-50.251,913.417,,
-51.066,913.417,,
-50.595,913.417,,
-51.348,913.417,,
-50.735,912.710,,
-50.105,912.710,,
-50.282,912.710,,
-49.074,912.710,,
-49.276,912.418,,
-48.918,912.418,,
-48.459,912.418,,
-49.474,912.418,,
-49.326,912.205,,
-50.268,912.205,,
-50.666,912.205,,
-50.198,912.205,,
-51.030,911.979,,
-50.416,911.979,,
-50.608,911.979,,
-51.101,911.979,,
-50.442,911.793,,
-51.651,911.793,,
-51.859,911.793,,
-52.019,911.793,,
-52.802,911.809,,
-52.001,911.809,,
-52.430,911.809,,
-52.001,911.809,,
-51.287,911.974,,
-51.854,911.974,,
-51.115,911.974,,
-51.595,911.974,,
-51.866,912.153,,
-51.105,912.153,,
-51.786,912.153,,
-51.149,912.153,,
-51.124,912.568,,
-51.374,912.568,,
-50.354,912.568,,
-50.895,912.568,,
-50.494,912.953,,
-50.426,912.953,,
-51.195,912.953,,
-50.365,912.953,,
-50.995,913.148,,
-50.910,913.148,,
-50.579,913.148,,
-51.365,913.148,,
-50.690,912.856,,
-51.358,912.856,,
-51.722,912.856,,
-51.018,912.856,,
-51.527,912.089,,
-50.647,912.089,,
-50.588,912.089,,
-50.919,912.089,,
-50.196,911.231,,
-51.138,911.231,,
-50.872,911.231,,
-50.769,911.231,,
-51.605,910.177,,
-51.051,910.177,,
-51.806,910.177,,
-51.636,910.177,,
-51.122,909.050,,
-52.040,909.050,,
-51.529,909.050,,
-51.980,909.050,,
-52.154,907.864,,
-51.502,907.864,,
-52.051,907.864,,
-51.073,907.864,,
-50.868,906.698,,
-50.833,906.698,,
-49.787,906.698,,
-50.417,906.698,,
-50.010,905.642,,
-49.912,905.642,,
-50.582,905.642,,
-49.874,905.642,,
-50.581,904.584,,
-50.520,904.584,,
-50.055,904.584,,
-50.756,904.584,,
-50.052,903.223,,
-50.694,903.223,,
-51.079,903.223,,
-50.656,903.223,,
-51.536,901.189,,
-50.838,901.189,,
-50.975,901.189,,
-51.304,901.189,,
-50.234,899.156,,
-50.317,899.156,,
-48.933,899.156,,
-47.563,899.156,,
-46.709,897.448,,
-44.305,897.448,,
-43.401,897.448,,
-41.832,897.448,,
-40.422,895.791,,
-40.433,895.791,,
-39.159,895.791,,
-39.532,895.791,,
-39.930,894.483,,
-39.840,894.483,,
-41.380,894.483,,
-41.708,894.483,,
-42.980,893.257,,
-44.342,893.257,,
-44.527,893.257,,
-46.137,893.257,,
-46.371,892.057,,
-46.805,892.057,,
-47.830,892.057,,
-47.235,892.057,,
-47.913,890.779,,
-47.669,890.779,,
-47.206,890.779,,
-47.907,890.779,,
-47.038,889.754,,
-47.321,889.754,,
-47.274,889.754,,
-46.676,889.754,,
-47.561,888.942,,
-47.154,888.942,,
-47.639,888.942,,
-48.347,888.942,,
-47.980,887.943,,
-49.278,887.943,,
-49.391,887.943,,
-49.817,887.943,,
-50.862,887.125,,
-50.356,887.125,,
-51.114,887.125,,
-50.887,887.125,,
-50.356,886.228,,
-50.689,886.228,,
-49.402,886.228,,
-49.430,886.228,,
-49.218,885.511,,
-48.423,885.511,,
-49.026,885.511,,
-48.352,885.511,,
-48.542,884.936,,
-48.987,884.936,,
-48.484,884.936,,
-49.539,884.936,,
-49.374,884.362,,
-49.521,884.362,,
-50.254,884.362,,
-49.571,884.362,,
-50.241,883.881,,
-50.059,883.881,,
-49.767,883.881,,
-50.673,883.881,,
-50.215,883.318,,
-50.871,883.318,,
-51.052,883.318,,
-50.653,883.318,,
-51.646,882.967,,
-51.152,882.967,,
-51.412,882.967,,
-51.612,882.967,,
-50.777,882.500,,
-51.448,882.500,,
-50.860,882.500,,
-50.664,882.500,,
-51.128,882.085,,
-50.435,882.085,,
-51.305,882.085,,
-51.308,882.085,,
-51.157,881.724,,
-52.203,881.724,,
-51.816,881.724,,
-52.535,881.724,,
-52.603,881.361,,
-51.735,881.361,,
-52.036,881.361,,
-50.910,881.361,,
-51.026,881.075,,
-51.383,881.075,,
-50.675,881.075,,
-51.394,881.075,,
-50.882,880.761,,
-50.768,880.761,,
-51.459,880.761,,
-50.874,880.761,,
-51.668,880.581,,
-51.519,880.581,,
-51.279,880.581,,
-52.105,880.581,,
-51.359,880.319,,
-51.965,880.319,,
-52.266,880.319,,
-52.032,880.319,,
-53.002,880.014,,
-52.301,880.014,,
-52.474,880.014,,
-52.836,880.014,,
-52.252,879.615,,
-53.267,879.615,,
-53.192,879.615,,
-53.411,879.615,,
-54.119,879.202,,
-53.456,879.202,,
-54.282,879.202,,
-54.481,879.202,,
-54.846,879.037,,
-56.337,879.037,,
-56.302,879.037,,
-57.578,879.037,,
-58.386,879.094,,
-58.590,879.094,,
-59.994,879.094,,
-59.608,879.094,,
-59.961,879.049,,
-60.196,879.049,,
-59.370,879.049,,
-60.153,879.049,,
-59.634,878.672,,
-59.400,878.672,,
-59.258,878.672,,
-57.168,878.672,,
-56.384,878.082,,
-54.368,878.082,,
-51.993,878.082,,
-50.396,878.082,,
-47.203,877.578,,
-45.436,877.578,,
-43.398,877.578,,
-41.270,877.578,,
-40.888,877.146,,
-39.448,877.146,,
-39.456,877.146,,
-39.650,877.146,,
-39.043,876.965,,
-40.283,876.965,,
-40.573,876.965,,
-41.603,876.965,,
-43.176,876.833,,
-43.280,876.833,,
-44.934,876.833,,
-45.607,876.833,,
-46.163,876.714,,
-47.530,876.714,,
-47.178,876.714,,
-48.043,876.714,,
-48.248,876.680,,
-47.683,876.680,,
-48.427,876.680,,
-47.872,876.680,,
-48.472,876.755,,
-49.017,876.755,,
-48.433,876.755,,
-49.555,876.755,,
-49.451,876.943,,
-49.988,876.943,,
-51.018,876.943,,
-50.426,876.943,,
-51.230,877.016,,
-50.958,877.016,,
-50.512,877.016,,
-50.948,877.016,,
-49.970,877.276,,
-50.503,877.276,,
-50.539,877.276,,
-50.197,877.276,,
-51.100,877.594,,
-50.325,877.594,,
-50.282,877.594,,
-50.004,877.594,,
-48.718,877.995,,
-49.083,877.995,,
-48.352,877.995,,
-48.462,877.995,,
-49.322,878.560,,
-48.891,878.560,,
-49.944,878.560,,
-49.886,878.560,,
-49.742,878.994,,
-50.481,878.994,,
-49.680,878.994,,
-50.279,878.994,,
-50.290,879.521,,
-49.530,879.521,,
-50.007,879.521,,
-49.116,879.521,,
-49.356,879.849,,
-49.715,879.849,,
-49.342,879.849,,
-50.406,879.849,,
-50.039,880.211,,
-50.239,880.211,,
-50.880,880.211,,
-50.163,880.211,,
-50.783,880.491,,
-50.505,880.491,,
-50.439,880.491,,
-51.263,880.491,,
-50.475,880.784,,
-51.154,880.784,,
-51.264,880.784,,
-50.900,880.784,,
-51.706,881.229,,
-50.975,881.229,,
-51.335,881.229,,
-51.633,881.229,,
-51.019,881.699,,
-51.862,881.699,,
-51.342,881.699,,
-51.366,881.699,,
-51.847,882.330,,
-51.078,882.330,,
-51.947,882.330,,
-51.898,882.330,,
-51.841,882.798,,
-52.522,882.798,,
-51.404,882.798,,
-51.607,882.798,,
-51.404,883.429,,
-50.916,883.429,,
-51.711,883.429,,
-51.059,883.429,,
-51.243,883.955,,
-51.123,883.955,,
-50.256,883.955,,
-51.019,883.955,,
-50.557,884.482,,
-50.801,884.482,,
-51.309,884.482,,
-50.384,884.482,,
-51.119,885.351,,
-50.911,885.351,,
-50.890,885.351,,
-51.721,885.351,,
-51.015,886.268,,
-51.826,886.268,,
-52.148,886.268,,
-51.874,886.268,,
-52.658,887.470,,
-51.945,887.470,,
-52.310,887.470,,
-52.370,887.470,,
-51.630,888.229,,
-52.454,888.229,,
-51.837,888.229,,
-51.780,888.229,,
-52.076,888.817,,
-51.108,888.817,,
-51.885,888.817,,
-51.582,888.817,,
-51.168,889.644,,
-51.363,889.644,,
-49.724,889.644,,
-49.142,889.644,,
-47.608,890.906,,
-45.451,890.906,,
-44.621,890.906,,
-42.487,890.906,,
-41.803,892.273,,
-41.172,892.273,,
-39.948,892.273,,
-40.657,892.273,,
-40.418,893.631,,
-40.985,893.631,,
-42.007,893.631,,
-41.826,893.631,,
-43.132,895.219,,
-43.363,895.219,,
-43.854,895.219,,
-45.292,895.219,,
-45.464,896.722,,
-47.156,896.722,,
-47.862,896.722,,
-47.938,896.722,,
-49.145,898.469,,
-48.725,898.469,,
-49.569,898.469,,
-50.140,898.469,,
-49.512,900.357,,
-50.156,900.357,,
-49.417,900.357,,
-49.400,900.357,,
-49.902,901.885,,
-49.285,901.885,,
-50.165,901.885,,
-49.818,901.885,,
-49.671,903.340,,
-50.525,903.340,,
-50.048,903.340,,
-51.008,903.340,,
-51.157,904.850,,
-50.655,904.850,,
-51.177,904.850,,
-50.067,904.850,,
-50.360,906.486,,
-50.571,906.486,,
-49.678,906.486,,
-50.042,906.486,,
-48.990,908.145,,
-48.807,908.145,,
-48.960,908.145,,
-47.831,908.145,,
-48.348,909.894,,
-47.977,909.894,,
-47.952,909.894,,
-48.762,909.894,,
-48.351,911.751,,
-49.487,911.751,,
-49.772,911.751,,
-49.647,911.751,,
-50.714,913.801,,
-50.208,913.801,,
-50.912,913.801,,
-51.628,913.801,,
-51.741,915.646,,
-53.260,915.646,,
-52.911,915.646,,
-53.010,915.646,,
-53.319,917.194,,
-52.394,917.194,,
-52.679,917.194,,
-51.604,917.194,,
-50.750,918.752,,
-50.964,918.752,,
-49.936,918.752,,
-50.530,918.752,,
-50.372,920.320,,
-49.870,920.320,,
-50.550,920.320,,
-49.822,920.320,,
-50.509,922.014,,
-51.015,922.014,,
-50.705,922.014,,
-51.827,922.014,,
-51.245,923.510,,
-51.285,923.510,,
-51.596,923.510,,
-50.596,923.510,,
-50.918,924.985,,
-49.835,924.985,,
-49.083,924.985,,
-49.158,924.985,,
-48.095,926.321,,
-48.995,926.321,,
-49.261,926.321,,
-49.211,926.321,,
-50.300,927.456,,
-49.779,927.456,,
-50.288,927.456,,
-50.405,927.456,,
-49.768,928.910,,
-50.693,928.910,,
-50.152,928.910,,
-50.322,928.910,,
-50.683,930.673,,
-49.708,930.673,,
-50.373,930.673,,
-49.918,930.673,,
-49.819,932.033,,
-50.401,932.033,,
-49.570,932.033,,
-50.419,932.033,,
-50.595,932.672,,
-50.546,932.672,,
-51.759,932.672,,
-51.432,932.672,,
-52.187,932.661,,
-52.228,932.661,,
-51.288,932.661,,
-51.901,932.661,,
-51.530,932.666,,
-52.092,932.666,,
-52.776,932.666,,
-52.054,932.666,,
-52.586,932.455,,
-51.381,932.455,,
-49.807,932.455,,
-48.491,932.455,,
-45.762,932.109,,
-44.733,932.109,,
-42.930,932.109,,
-41.163,932.109,,
-40.961,931.595,,
-39.430,931.595,,
-39.365,931.595,,
-39.376,931.595,,
-39.232,930.996,,
-40.981,930.996,,
-41.614,930.996,,
-43.030,930.996,,
-44.403,930.395,,
-44.351,930.395,,
-45.795,930.395,,
-45.973,930.395,,
-46.444,929.700,,
-47.681,929.700,,
-47.592,929.700,,
-48.882,929.700,,
-49.102,929.303,,
-48.978,929.303,,
-49.846,929.303,,
-49.319,929.303,,
-50.204,928.714,,
-50.719,928.714,,
-50.490,928.714,,
-51.439,928.714,,
-50.878,928.108,,
-51.200,928.108,,
-51.742,928.108,,
-51.167,928.108,,
-52.144,927.498,,
-51.710,927.498,,
-51.552,927.498,,
-52.060,927.498,,
-51.209,926.797,,
-51.798,926.797,,
-51.443,926.797,,
-50.899,926.797,,
-51.474,926.161,,
-50.516,926.161,,
-50.956,926.161,,
-50.987,926.161,,
-50.311,925.422,,
-50.868,925.422,,
-49.785,925.422,,
-49.780,925.422,,
-50.176,924.687,,
-49.692,924.687,,
-50.858,924.687,,
-50.667,924.687,,
-50.969,923.799,,
-51.893,923.799,,
-51.321,923.799,,
-52.152,923.799,,
-51.996,923.123,,
-51.587,923.123,,
-52.214,923.123,,
-51.258,923.123,,
-51.849,922.418,,
-52.162,922.418,,
-51.688,922.418,,
-52.512,922.418,,
-51.631,921.635,,
-51.664,921.635,,
-51.919,921.635,,
-51.217,921.635,,
-52.111,920.867,,
-51.678,920.867,,
-51.536,920.867,,
-51.980,920.867,,
-51.088,919.960,,
-51.803,919.960,,
-51.610,919.960,,
-51.200,919.960,,
-51.831,919.100,,
-50.844,919.100,,
-51.312,919.100,,
-51.453,919.100,,
-51.028,917.971,,
-51.807,917.971,,
-50.980,917.971,,
-51.101,917.971,,
-51.076,916.954,,
-49.819,916.954,,
-50.351,916.954,,
-49.838,916.954,,
-50.008,915.890,,
-50.771,915.890,,
-50.086,915.890,,
-50.923,915.890,,
-50.810,914.749,,
-50.539,914.749,,
-51.237,914.749,,
-50.472,914.749,,
-51.064,913.447,,
-51.322,913.447,,
-51.178,913.447,,
-52.240,913.447,,
-51.543,911.661,,
-51.635,911.661,,
-51.807,911.661,,
-51.080,911.661,,
-51.990,909.727,,
-51.508,909.727,,
-51.202,909.727,,
-51.175,909.727,,
-49.595,907.852,,
-49.338,907.852,,
-47.869,907.852,,
-46.126,907.852,,
-45.377,906.360,,
-43.254,906.360,,
-42.841,906.360,,
-42.068,906.360,,
-40.950,905.024,,
-41.421,905.024,,
-40.676,905.024,,
-41.067,905.024,,
-41.546,903.864,,
-41.049,903.864,,
-42.255,903.864,,
-42.437,903.864,,
-43.436,902.699,,
-44.996,902.699,,
-45.190,902.699,,
-46.633,902.699,,
-46.797,901.443,,
-46.683,901.443,,
-47.362,901.443,,
-46.743,901.443,,
-47.498,900.480,,
-47.526,900.480,,
-47.031,900.480,,
-47.795,900.480,,
-47.160,899.553,,
-47.845,899.553,,
-48.631,899.553,,
-48.381,899.553,,
-49.525,898.586,,
-49.234,898.586,,
-49.570,898.586,,
-50.275,898.586,,
-49.490,897.493,,
-50.328,897.493,,
-50.223,897.493,,
-50.055,897.493,,
-50.840,896.550,,
-50.168,896.550,,
-50.832,896.550,,
-50.673,896.550,,
-49.743,895.616,,
-49.838,895.616,,
-48.365,895.616,,
-48.181,895.616,,
-48.047,894.660,,
-47.190,894.660,,
-47.951,894.660,,
-47.606,894.660,,
-48.121,893.769,,
-49.121,893.769,,
-48.853,893.769,,
-49.952,893.769,,
-49.767,892.815,,
-49.402,892.815,,
-49.919,892.815,,
-49.118,892.815,,
-49.911,892.056,,
-50.034,892.056,,
-49.881,892.056,,
-51.103,892.056,,
-50.906,891.331,,
-51.746,891.331,,
-52.300,891.331,,
-51.812,891.331,,
-52.724,890.668,,
-52.150,890.668,,
-51.957,890.668,,
-52.077,890.668,,
-50.978,890.031,,
-51.582,890.031,,
-51.170,890.031,,
-51.065,890.031,,
-51.981,889.394,,
-51.395,889.394,,
-52.286,889.394,,
-52.476,889.394,,
-52.070,888.852,,
-52.892,888.852,,
-52.218,888.852,,
-52.630,888.852,,
-52.606,888.291,,
-51.610,888.291,,
-52.283,888.291,,
-51.457,888.291,,
-51.375,887.869,,
-51.574,887.869,,
-50.297,887.869,,
-50.884,887.869,,
-50.676,887.326,,
-50.612,887.326,,
-51.212,887.326,,
-50.226,887.326,,
-50.721,886.838,,
-50.543,886.838,,
-50.133,886.838,,
-50.956,886.838,,
-50.130,886.450,,
-50.384,886.450,,
-50.502,886.450,,
-49.946,886.450,,
-51.294,886.107,,
-51.295,886.107,,
-51.661,886.107,,
-51.924,886.107,,
-50.721,886.040,,
-51.254,886.040,,
-50.890,886.040,,
-50.990,886.040,,
-52.016,885.647,,
-51.398,885.647,,
-52.098,885.647,,
-51.949,885.647,,
-51.200,884.915,,
-51.650,884.915,,
-50.332,884.915,,
-49.756,884.915,,
-48.590,883.492,,
-46.447,883.492,,
-45.646,883.492,,
-43.504,883.492,,
-42.257,882.362,,
-41.423,882.362,,
-39.581,882.362,,
-39.744,882.362,,
-39.086,881.824,,
-38.890,881.824,,
-39.791,881.824,,
-39.399,881.824,,
-40.553,881.443,,
-40.870,881.443,,
-40.995,881.443,,
-42.667,881.443,,
-43.101,881.235,,
-44.951,881.235,,
-46.389,881.235,,
-46.488,881.235,,
-47.777,880.941,,
-47.490,880.941,,
-47.758,880.941,,
-48.239,880.941,,
-47.328,880.735,,
-47.785,880.735,,
-47.164,880.735,,
-46.800,880.735,,
-47.194,880.557,,
-46.480,880.557,,
-47.388,880.557,,
-47.490,880.557,,
-47.063,880.422,,
-47.779,880.422,,
-47.240,880.422,,
-48.195,880.422,,
-49.063,880.257,,
-48.993,880.257,,
-50.133,880.257,,
-49.550,880.257,,
-49.658,880.051,,
-50.083,880.051,,
-49.308,880.051,,
-50.119,880.051,,
-49.701,879.983,,
-49.679,879.983,,
-50.428,879.983,,
-49.503,879.983,,
-49.968,879.822,,
-49.659,879.822,,
-49.139,879.822,,
-49.828,879.822,,
-48.882,879.784,,
-49.140,879.784,,
-49.047,879.784,,
-48.380,879.784,,
-49.370,879.696,,
-49.067,879.696,,
-49.646,879.696,,
-50.135,879.696,,
-49.500,879.643,,
-50.766,879.643,,
-50.869,879.643,,
-51.083,879.643,,
-51.835,879.599,,
-50.823,879.599,,
-51.291,879.599,,
-51.000,879.599,,
-50.442,879.544,,
-50.941,879.544,,
-49.889,879.544,,
-50.150,879.544,,
-50.200,879.557,,
-49.575,879.557,,
-50.467,879.557,,
-49.952,879.557,,
-50.276,879.397,,
-50.772,879.397,,
-50.086,879.397,,
-50.997,879.397,,
-50.826,879.344,,
-50.983,879.344,,
-51.485,879.344,,
-50.181,879.344,,
-50.311,879.226,,
-49.985,879.226,,
-49.850,879.226,,
-50.860,879.226,,
-50.205,879.195,,
-50.735,879.195,,
-50.985,879.195,,
-50.512,879.195,,
-51.562,879.182,,
-51.206,879.182,,
-51.551,879.182,,
-51.935,879.182,,
-50.979,879.224,,
-51.579,879.224,,
-51.044,879.224,,
-50.855,879.224,,
-51.434,879.343,,
-50.677,879.343,,
-51.289,879.343,,
-50.924,879.343,,
-50.508,879.285,,
-51.169,879.285,,
-50.229,879.285,,
-50.716,879.285,,
-50.745,879.373,,
-49.891,879.373,,
-50.732,879.373,,
-50.388,879.373,,
-50.859,879.406,,
-51.343,879.406,,
-50.550,879.406,,
-51.273,879.406,,
-50.720,879.638,,
-50.492,879.638,,
-50.955,879.638,,
-50.300,879.638,,
-51.316,879.866,,
-51.456,879.866,,
-51.320,879.866,,
-52.067,879.866,,
-51.158,879.692,,
-51.521,879.692,,
-51.278,879.692,,
-50.303,879.692,,
-50.686,879.315,,
-49.541,879.315,,
-49.299,879.315,,
-49.079,879.315,,
-47.196,878.818,,
-46.191,878.818,,
-43.641,878.818,,
-41.638,878.818,,
-40.721,878.617,,
-38.738,878.617,,
-38.504,878.617,,
-37.494,878.617,,
-36.632,878.365,,
-37.051,878.365,,
-36.320,878.365,,
-37.383,878.365,,
-38.382,878.369,,
-39.098,878.369,,
-41.524,878.369,,
-42.578,878.369,,
-44.261,878.341,,
-45.442,878.341,,
-45.137,878.341,,
-46.148,878.341,,
-45.597,878.257,,
-45.410,878.257,,
-45.884,878.257,,
-45.036,878.257,,
-45.763,878.280,,
-45.677,878.280,,
-45.639,878.280,,
-46.435,878.280,,
-45.720,878.344,,
-46.440,878.344,,
-46.602,878.344,,
-46.274,878.344,,
-47.205,878.499,,
-46.737,878.499,,
-47.413,878.499,,
-48.220,878.499,,
-48.037,878.423,,
-49.238,878.423,,
-48.971,878.423,,
-49.195,878.423,,
-49.957,878.552,,
-49.568,878.552,,
-50.670,878.552,,
-50.609,878.552,,
-50.175,878.614,,
-50.497,878.614,,
-49.179,878.614,,
-49.441,878.614,,
-49.449,878.718,,
-48.943,878.718,,
-49.818,878.718,,
-49.265,878.718,,
-49.720,878.841,,
-50.083,878.841,,
-49.530,878.841,,
-50.599,878.841,,
-50.183,878.858,,
-50.071,878.858,,
-50.351,878.858,,
-49.356,878.858,,
-50.127,878.960,,
-49.836,878.960,,
-49.258,878.960,,
-49.505,878.960,,
-48.344,878.919,,
-48.763,878.919,,
-48.825,878.919,,
-48.592,878.919,,
-49.964,879.013,,
-50.020,879.013,,
-50.935,879.013,,
-51.660,879.013,,
-51.224,878.932,,
-52.119,878.932,,
-51.406,878.932,,
-50.964,878.932,,
-50.782,878.842,,
-49.296,878.842,,
-49.671,878.842,,
-49.361,878.842,,
-49.221,878.768,,
-50.099,878.768,,
-49.276,878.768,,
-49.526,878.768,,
-49.123,878.726,,
-48.411,878.726,,
-49.155,878.726,,
-48.667,878.726,,
-49.499,878.729,,
-50.315,878.729,,
-50.245,878.729,,
-51.610,878.729,,
-51.317,878.549,,
-51.405,878.549,,
-51.998,878.549,,
-51.084,878.549,,
-51.763,878.506,,
-51.073,878.506,,
-50.389,878.506,,
-50.586,878.506,,
-49.277,878.395,,
-49.331,878.395,,
-48.729,878.395,,
-47.626,878.395,,
-48.198,878.315,,
-47.672,878.315,,
-48.458,878.315,,
-49.144,878.315,,
-49.105,878.148,,
-50.581,878.148,,
-50.542,878.148,,
-50.995,878.148,,
-51.751,878.022,,
-51.041,878.022,,
-51.791,878.022,,
-51.386,878.022,,
-51.075,878.042,,
-51.649,878.042,,
-50.516,878.042,,
-50.577,878.042,,
-49.851,878.111,,
-49.016,878.111,,
-49.709,878.111,,
-49.027,878.111,,
-49.601,878.604,,
-49.974,878.604,,
-49.466,878.604,,
-50.509,878.604,,
-50.166,878.792,,
-50.385,878.792,,
-51.069,878.792,,
-50.571,878.792,,
-51.591,878.690,,
-51.327,878.690,,
-50.933,878.690,,
-51.085,878.690,,
-49.262,878.454,,
-48.411,878.454,,
-46.510,878.454,,
-44.054,878.454,,
-42.862,878.572,,
-40.535,878.572,,
-39.849,878.572,,
-39.153,878.572,,
-37.950,878.927,,
-38.544,878.927,,
-37.962,878.927,,
-38.255,878.927,,
-38.974,879.417,,
-38.673,879.417,,
-40.162,879.417,,
-40.747,879.417,,
-41.657,879.990,,
-43.339,879.990,,
-43.561,879.990,,
-45.057,879.990,,
-45.725,880.458,,
-45.827,880.458,,
-46.731,880.458,,
-46.098,880.458,,
-46.620,881.129,,
-46.840,881.129,,
-46.400,881.129,,
-47.443,881.129,,
-47.042,881.907,,
-47.529,881.907,,
-48.391,881.907,,
-47.981,881.907,,
-48.800,882.682,,
-48.259,882.682,,
-47.926,882.682,,
-48.343,882.682,,
-47.490,883.496,,
-48.244,883.496,,
-48.363,883.496,,
-48.208,883.496,,
-49.325,884.276,,
-48.908,884.276,,
-49.561,884.276,,
-49.827,884.276,,
-49.266,885.166,,
-50.092,885.166,,
-49.500,885.166,,
-49.650,885.166,,
-49.917,885.998,,
-49.178,885.998,,
-49.843,885.998,,
-49.192,885.998,,
-48.835,886.934,,
-49.193,886.934,,
-48.186,886.934,,
-48.741,886.934,,
-48.561,887.908,,
-48.282,887.908,,
-49.349,887.908,,
-48.929,887.908,,
-49.540,888.822,,
-49.704,888.822,,
-49.222,888.822,,
-50.304,888.822,,
-49.943,889.704,,
-50.394,889.704,,
-51.013,889.704,,
-50.233,889.704,,
-50.836,890.668,,
-50.122,890.668,,
-49.744,890.668,,
-50.151,890.668,,
-49.213,891.770,,
-49.792,891.770,,
-49.530,891.770,,
-49.079,891.770,,
-49.649,892.806,,
-48.618,892.806,,
-48.778,892.806,,
-48.490,892.806,,
-47.639,894.080,,
-48.343,894.080,,
-47.813,894.080,,
-48.203,894.080,,
-48.729,895.142,,
-48.242,895.142,,
-49.337,895.142,,
-49.026,895.142,,
-49.240,896.265,,
-50.323,896.265,,
-50.009,896.265,,
-50.957,896.265,,
-50.974,897.548,,
-50.697,897.548,,
-51.555,897.548,,
-50.954,897.548,,
-51.621,898.851,,
-51.859,898.851,,
-51.418,898.851,,
-52.306,898.851,,
-51.663,900.376,,
-51.841,900.376,,
-52.281,900.376,,
-51.545,900.376,,
-52.035,901.807,,
-51.319,901.807,,
-51.110,901.807,,
-51.565,901.807,,
-50.574,903.199,,
-51.217,903.199,,
-50.924,903.199,,
-50.413,903.199,,
-50.815,904.520,,
-49.711,904.520,,
-49.951,904.520,,
-49.875,904.520,,
-49.449,905.902,,
-50.513,905.902,,
-50.067,905.902,,
-50.463,905.902,,
-50.996,907.256,,
-50.463,907.256,,
-51.370,907.256,,
-50.867,907.256,,
-50.664,908.339,,
-50.898,908.339,,
-49.867,908.339,,
-50.562,908.339,,
-50.481,908.873,,
-50.301,908.873,,
-51.166,908.873,,
-50.560,908.873,,
-51.148,909.411,,
-50.954,909.411,,
-49.872,909.411,,
-49.980,909.411,,
-48.493,910.470,,
-47.669,910.470,,
-46.750,910.470,,
-44.694,910.470,,
-44.134,911.671,,
-42.194,911.671,,
-40.798,911.671,,
-40.394,911.671,,
-39.173,912.963,,
-39.677,912.963,,
-39.422,912.963,,
-39.399,912.963,,
-40.769,914.383,,
-40.775,914.383,,
-42.011,914.383,,
-42.656,914.383,,
-42.787,915.900,,
-44.363,915.900,,
-44.494,915.900,,
-45.699,915.900,,
-46.907,917.423,,
-46.929,917.423,,
-48.144,917.423,,
-47.734,917.423,,
-47.628,919.491,,
-48.068,919.491,,
-47.247,919.491,,
-48.148,919.491,,
-48.251,921.384,,
-48.351,921.384,,
-49.293,921.384,,
-48.599,921.384,,
-49.380,922.729,,
-49.646,922.729,,
-49.299,922.729,,
-50.216,922.729,,
-49.589,924.062,,
-49.996,924.062,,
-50.236,924.062,,
-49.370,924.062,,
-49.948,925.334,,
-49.217,925.334,,
-49.072,925.334,,
-49.357,925.334,,
-48.202,926.672,,
-48.869,926.672,,
-48.792,926.672,,
-48.766,926.672,,
-49.488,928.214,,
-48.565,928.214,,
-48.951,928.214,,
-48.710,928.214,,
-47.999,929.769,,
-48.726,929.769,,
-48.113,929.769,,
-48.831,929.769,,
-49.540,931.356,,
-49.245,931.356,,
-50.654,931.356,,
-50.791,931.356,,
-51.233,932.769,,
-51.706,932.769,,
-50.565,932.769,,
-50.959,932.769,,
-50.494,934.174,,
-50.128,934.174,,
-50.752,934.174,,
-49.809,934.174,,
-50.312,935.462,,
-50.272,935.462,,
-49.848,935.462,,
-50.754,935.462,,
-50.029,936.860,,
-50.399,936.860,,
-50.551,936.860,,
-49.508,936.860,,
-50.102,938.067,,
-49.562,938.067,,
-49.539,938.067,,
-49.863,938.067,,
-48.672,939.432,,
-49.119,939.432,,
-48.741,939.432,,
-48.707,939.432,,
-49.624,940.808,,
-48.956,940.808,,
-49.525,940.808,,
-49.450,940.808,,
-49.079,941.855,,
-50.160,941.855,,
-49.691,941.855,,
-50.366,941.855,,
-50.853,943.092,,
-50.301,943.092,,
-51.118,943.092,,
-50.409,943.092,,
-50.192,944.295,,
-50.508,944.295,,
-49.745,944.295,,
-50.601,944.295,,
-50.396,945.536,,
-50.230,945.536,,
-51.263,945.536,,
-50.831,945.536,,
-51.537,946.481,,
-51.334,946.481,,
-50.539,946.481,,
-51.106,946.481,,
-50.314,946.979,,
-50.776,946.979,,
-51.192,946.979,,
-50.773,946.979,,
-52.004,946.944,,
-51.828,946.944,,
-52.068,946.944,,
-52.569,946.944,,
-51.646,946.908,,
-52.219,946.908,,
-51.536,946.908,,
-50.707,946.908,,
-50.557,947.002,,
-48.834,947.002,,
-48.387,947.002,,
-47.162,947.002,,
-45.478,946.785,,
-45.103,946.785,,
-43.157,946.785,,
-42.355,946.785,,
-41.557,946.423,,
-39.983,946.423,,
-40.045,946.423,,
-39.090,946.423,,
-39.141,945.711,,
-39.784,945.711,,
-39.362,945.711,,
-40.795,945.711,,
-41.285,944.861,,
-42.089,944.861,,
-43.774,944.861,,
-44.031,944.861,,
-45.648,943.827,,
-46.439,943.827,,
-46.534,943.827,,
-47.624,943.827,,
-47.102,942.925,,
-47.718,942.925,,
-48.008,942.925,,
-47.411,942.925,,
-48.418,942.112,,
-47.982,942.112,,
-48.194,942.112,,
-48.952,942.112,,
-48.541,940.951,,
-49.648,940.951,,
-49.794,940.951,,
-50.202,940.951,,
-51.298,939.852,,
-50.840,939.852,,
-51.643,939.852,,
-51.375,939.852,,
-50.610,938.544,,
-50.912,938.544,,
-49.670,938.544,,
-49.664,938.544,,
-49.540,937.270,,
-48.619,937.270,,
-49.069,937.270,,
-48.243,937.270,,
-48.497,935.829,,
-49.116,935.829,,
-48.492,935.829,,
-49.345,935.829,,
-48.893,934.423,,
-48.558,934.423,,
-49.123,934.423,,
-48.579,934.423,,
-49.654,933.055,,
-49.992,933.055,,
-49.898,933.055,,
-50.823,933.055,,
-50.086,931.632,,
-50.544,931.632,,
-50.792,931.632,,
-50.190,931.632,,
-50.924,930.252,,
-49.974,930.252,,
-49.740,930.252,,
-49.903,930.252,,
-49.007,928.662,,
-49.810,928.662,,
-49.746,928.662,,
-50.089,928.662,,
-51.038,927.153,,
-50.160,927.153,,
-50.659,927.153,,
-50.354,927.153,,
-49.993,925.559,,
-50.987,925.559,,
-50.381,925.559,,
-51.225,925.559,,
-51.703,924.081,,
-51.274,924.081,,
-52.217,924.081,,
-51.542,924.081,,
-51.488,922.365,,
-51.535,922.365,,
-50.500,922.365,,
-51.246,922.365,,
-50.885,920.619,,
-50.830,920.619,,
-51.612,920.619,,
-50.907,920.619,,
-51.693,919.094,,
-51.439,919.094,,
-50.643,919.094,,
-50.905,919.094,,
-49.902,917.689,,
-50.294,917.689,,
-50.461,917.689,,
-50.077,917.689,,
-51.511,916.292,,
-51.514,916.292,,
-52.184,916.292,,
-52.738,916.292,,
-51.999,914.167,,
-52.834,914.167,,
-52.480,914.167,,
-52.348,914.167,,
-52.789,911.990,,
-51.620,911.990,,
-51.815,911.990,,
-50.822,911.990,,
-49.266,910.037,,
-48.753,910.037,,
-46.738,910.037,,
-46.003,910.037,,
-44.732,908.303,,
-42.742,908.303,,
-42.497,908.303,,
-41.206,908.303,,
-40.889,906.561,,
-40.712,906.561,,
-39.816,906.561,,
-40.985,906.561,,
-41.306,904.964,,
-42.059,904.964,,
-43.441,904.964,,
-43.444,904.964,,
-44.916,903.544,,
-45.211,903.544,,
-45.091,903.544,,
-45.889,903.544,,
-45.054,902.039,,
-45.493,902.039,,
-45.653,902.039,,
-45.118,902.039,,
-46.259,900.733,,
-45.991,900.733,,
-46.537,900.733,,
-47.334,900.733,,
-47.068,899.293,,
-48.181,899.293,,
-47.926,899.293,,
-48.081,899.293,,
-48.907,897.804,,
-48.527,897.804,,
-49.740,897.804,,
-49.744,897.804,,
-49.363,896.114,,
-50.073,896.114,,
-49.123,896.114,,
-49.225,896.114,,
-48.904,894.819,,
-48.231,894.819,,
-49.088,894.819,,
-48.365,894.819,,
-48.658,893.709,,
-49.357,893.709,,
-48.896,893.709,,
-49.820,893.709,,
-49.319,892.643,,
-49.062,892.643,,
-49.463,892.643,,
-48.554,892.643,,
-49.026,891.674,,
-48.540,891.674,,
-48.066,891.674,,
-48.630,891.674,,
-47.747,890.755,,
-48.245,890.755,,
-48.444,890.755,,
-48.070,890.755,,
-49.288,890.092,,
-49.182,890.092,,
-50.040,890.092,,
-50.698,890.092,,
-50.158,889.388,,
-51.239,889.388,,
-50.937,889.388,,
-50.878,889.388,,
-51.313,888.891,,
-50.398,888.891,,
-51.007,888.891,,
-50.898,888.891,,
-50.773,888.349,,
-51.539,888.349,,
-50.858,888.349,,
-51.486,888.349,,
-51.628,887.861,,
-51.121,887.861,,
-51.788,887.861,,
-50.817,887.861,,
-50.895,887.397,,
-50.915,887.397,,
-49.893,887.397,,
-50.455,887.397,,
-49.654,886.922,,
-49.488,886.922,,
-49.875,886.922,,
-49.088,886.922,,
-50.023,886.489,,
-50.072,886.489,,
-49.956,886.489,,
-50.738,886.489,,
-50.051,885.825,,
-50.656,885.825,,
-50.633,885.825,,
-50.049,885.825,,
-51.114,885.466,,
-50.616,885.466,,
-51.003,885.466,,
-51.335,885.466,,
-50.576,885.077,,
-51.306,885.077,,
-50.864,885.077,,
-50.912,885.077,,
-51.515,884.914,,
-50.976,884.914,,
-51.998,884.914,,
-51.786,884.914,,
-51.380,884.637,,
-52.001,884.637,,
-51.118,884.637,,
-51.632,884.637,,
-51.679,884.060,,
-51.094,884.060,,
-51.575,884.060,,
-50.417,884.060,,
-50.132,883.267,,
-49.655,883.267,,
-48.075,883.267,,
-47.836,883.267,,
-46.026,882.014,,
-44.480,882.014,,
-43.218,882.014,,
-40.727,882.014,,
-40.141,880.815,,
-38.910,880.815,,
-38.146,880.815,,
-38.536,880.815,,
-37.817,880.227,,
-39.034,880.227,,
-39.966,880.227,,
-40.520,880.227,,
-42.298,880.009,,
-42.554,880.009,,
-43.695,880.009,,
-44.687,880.009,,
-44.698,879.669,,
-46.094,879.669,,
-45.995,879.669,,
-46.490,879.669,,
-47.212,879.374,,
-46.530,879.374,,
-47.385,879.374,,
-47.061,879.374,,
-46.560,879.091,,
-46.816,879.091,,
-45.590,879.091,,
-45.822,879.091,,
-45.595,878.954,,
-45.249,878.954,,
-46.497,878.954,,
-46.397,878.954,,
-47.450,878.833,,
-48.334,878.833,,
-48.091,878.833,,
-49.348,878.833,,
-49.317,878.528,,
-49.759,878.528,,
-50.289,878.528,,
-49.524,878.528,,
-50.356,878.429,,
-50.086,878.429,,
-49.905,878.429,,
-50.503,878.429,,
-49.605,878.197,,
-50.039,878.197,,
-49.667,878.197,,
-48.953,878.197,,
-49.688,878.106,,
-48.856,878.106,,
-49.007,878.106,,
-48.884,878.106,,
-47.947,877.913,,
-48.700,877.913,,
-48.440,877.913,,
-49.125,877.913,,
-50.192,877.761,,
-49.802,877.761,,
-50.766,877.761,,
-50.402,877.761,,
-50.020,877.654,,
-50.549,877.654,,
-49.680,877.654,,
-50.313,877.654,,
-50.263,877.541,,
-49.933,877.541,,
-50.914,877.541,,
-50.329,877.541,,
-50.735,877.524,,
-50.921,877.524,,
-50.259,877.524,,
-51.054,877.524,,
-50.710,877.354,,
-51.256,877.354,,
-52.274,877.354,,
-51.643,877.354,,
-52.161,877.321,,
-51.419,877.321,,
-50.745,877.321,,
-51.096,877.321,,
-50.184,877.183,,
-50.789,877.183,,
-50.576,877.183,,
-49.889,877.183,,
-50.453,877.154,,
-49.617,877.154,,
-49.861,877.154,,
-49.978,877.154,,
-49.306,877.025,,
-50.220,877.025,,
-49.942,877.025,,
-50.541,877.025,,
-51.344,876.877,,
-50.648,876.877,,
-51.241,876.877,,
-50.650,876.877,,
-50.112,876.812,,
-50.301,876.812,,
-49.170,876.812,,
-49.618,876.812,,
-49.658,876.711,,
-49.563,876.711,,
-50.882,876.711,,
-50.732,876.711,,
-51.564,876.841,,
-51.768,876.841,,
-51.066,876.841,,
-51.884,876.841,,
-51.144,876.935,,
-51.057,876.935,,
-51.290,876.935,,
-50.519,876.935,,
-51.448,876.833,,
-51.266,876.833,,
-51.149,876.833,,
-51.552,876.833,,
-50.330,876.360,,
-50.414,876.360,,
-49.691,876.360,,
-48.478,876.360,,
-47.997,875.921,,
-45.663,875.921,,
-44.575,875.921,,
-43.448,875.921,,
-41.825,875.549,,
-41.776,875.549,,
-40.377,875.549,,
-39.974,875.549,,
-40.139,875.345,,
-39.366,875.345,,
-40.201,875.345,,
-40.225,875.345,,
-40.648,875.297,,
-41.896,875.297,,
-41.896,875.297,,
-43.503,875.297,,
-44.373,875.205,,
-44.863,875.205,,
-46.340,875.205,,
-45.983,875.205,,
-46.565,875.182,,
-46.813,875.182,,
-46.277,875.182,,
-47.005,875.182,,
-46.278,874.999,,
-46.348,874.999,,
-46.694,874.999,,
-46.141,874.999,,
-47.359,875.084,,
-47.487,875.084,,
-47.650,875.084,,
-48.384,875.084,,
-47.707,875.094,,
-48.741,875.094,,
-49.086,875.094,,
-49.127,875.094,,
-50.058,875.049,,
-49.466,875.049,,
-50.080,875.049,,
-50.071,875.049,,
-49.383,875.004,,
-50.147,875.004,,
-49.420,875.004,,
-49.234,875.004,,
-49.094,874.987,,
-47.951,874.987,,
-48.557,874.987,,
-47.968,874.987,,
-47.822,875.058,,
-48.385,875.058,,
-47.577,875.058,,
-48.368,875.058,,
-48.426,875.095,,
-48.365,875.095,,
-49.241,875.095,,
-48.382,875.095,,
-48.849,875.322,,
-49.184,875.322,,
-49.117,875.322,,
-50.684,875.322,,
-50.920,875.454,,
-51.720,875.454,,
-52.371,875.454,,
-51.552,875.454,,
-52.219,875.731,,
-51.823,875.731,,
-51.895,875.731,,
-52.468,875.731,,
-51.368,875.926,,
-51.714,875.926,,
-51.128,875.926,,
-50.274,875.926,,
-50.698,876.187,,
-49.817,876.187,,
-50.183,876.187,,
-50.176,876.187,,
-49.452,876.466,,
-50.215,876.466,,
-49.629,876.466,,
-49.984,876.466,,
-50.279,876.744,,
-49.213,876.744,,
-49.808,876.744,,
-49.444,876.744,,
-49.520,877.124,,
-50.158,877.124,,
-49.494,877.124,,
-50.268,877.124,,
-49.990,877.521,,
-49.384,877.521,,
-49.836,877.521,,
-49.095,877.521,,
-49.705,878.144,,
-49.881,878.144,,
-49.343,878.144,,
-50.156,878.144,,
-49.555,878.592,,
-49.879,878.592,,
-50.263,878.592,,
-49.495,878.592,,
-50.267,879.115,,
-49.926,879.115,,
-50.174,879.115,,
-51.142,879.115,,
-50.772,879.734,,
-51.859,879.734,,
-51.950,879.734,,
-51.738,879.734,,
-52.546,880.518,,
-51.747,880.518,,
-51.987,880.518,,
-51.420,880.518,,
-50.217,881.415,,
-50.652,881.415,,
-49.779,881.415,,
-49.931,881.415,,
-50.038,882.205,,
-49.077,882.205,,
-49.767,882.205,,
-49.355,882.205,,
-49.516,882.643,,
-50.280,882.643,,
-49.655,882.643,,
-50.465,882.643,,
-50.320,882.791,,
-49.687,882.791,,
-49.806,882.791,,
-48.246,882.791,,
-47.799,883.248,,
-46.577,883.248,,
-44.578,883.248,,
-43.689,883.248,,
-41.458,883.877,,
-40.553,883.877,,
-39.879,883.877,,
-38.565,883.877,,
-39.211,884.734,,
-39.149,884.734,,
-40.114,884.734,,
-41.906,884.734,,
-42.231,885.671,,
-43.636,885.671,,
-43.846,885.671,,
-43.937,885.671,,
-44.949,886.653,,
-44.714,886.653,,
-45.903,886.653,,
-46.517,886.653,,
-46.496,887.537,,
-47.589,887.537,,
-47.163,887.537,,
-47.705,887.537,,
-48.280,888.521,,
-47.702,888.521,,
-48.661,888.521,,
-48.479,888.521,,
-48.790,889.646,,
-49.604,889.646,,
-48.976,889.646,,
-49.935,889.646,,
-50.132,890.550,,
-50.486,890.550,,
-51.888,890.550,,
-51.381,890.550,,
-51.950,891.510,,
-51.985,891.510,,
-51.475,891.510,,
-52.151,891.510,,
-51.059,892.448,,
-50.791,892.448,,
-50.397,892.448,,
-49.131,892.448,,
-49.588,893.597,,
-48.739,893.597,,
-48.563,893.597,,
-49.144,893.597,,
-48.437,894.773,,
-49.164,894.773,,
-48.799,894.773,,
-48.622,894.773,,
-49.538,895.919,,
-49.040,895.919,,
-50.021,895.919,,
-50.541,895.919,,
-50.493,897.057,,
-51.470,897.057,,
-50.823,897.057,,
-51.210,897.057,,
-51.590,898.134,,
-51.057,898.134,,
-51.969,898.134,,
-51.563,898.134,,
-51.547,899.301,,
-51.936,899.301,,
-50.973,899.301,,
-51.310,899.301,,
-50.616,900.532,,
-49.957,900.532,,
-50.160,900.532,,
-49.019,900.532,,
-49.587,901.942,,
-49.654,901.942,,
-49.341,901.942,,
-50.312,901.942,,
-49.720,903.274,,
-50.014,903.274,,
-50.180,903.274,,
-49.413,903.274,,
-50.107,904.660,,
-49.402,904.660,,
-49.270,904.660,,
-49.751,904.660,,
-49.226,905.937,,
-50.458,905.937,,
-50.641,905.937,,
-50.468,905.937,,
-51.041,907.203,,
-50.094,907.203,,
-50.802,907.203,,
-51.143,907.203,,
-51.111,908.430,,
-52.248,908.430,,
-51.691,908.430,,
-51.902,908.430,,
-51.799,909.472,,
-50.731,909.472,,
-51.235,909.472,,
-50.655,909.472,,
-50.913,910.438,,
-51.620,910.438,,
-51.077,910.438,,
-52.061,910.438,,
-52.010,911.435,,
-52.115,911.435,,
-53.093,911.435,,
-52.497,911.435,,
-53.204,912.603,,
-52.945,912.603,,
-52.059,912.603,,
-52.337,912.603,,
-51.179,913.521,,
-51.303,913.521,,
-51.245,913.521,,
-50.161,913.521,,
-50.689,914.181,,
-50.049,914.181,,
-50.220,914.181,,
-50.884,914.181,,
-50.327,914.792,,
-51.144,914.792,,
-50.563,914.792,,
-49.891,914.792,,
-50.126,915.650,,
-48.701,915.650,,
-48.617,915.650,,
-47.693,915.650,,
-46.028,916.655,,
-45.290,916.655,,
-43.146,916.655,,
-42.276,916.655,,
-41.400,917.773,,
-39.874,917.773,,
-40.101,917.773,,
-39.421,917.773,,
-40.089,919.453,,
-41.629,919.453,,
-42.111,919.453,,
-44.089,919.453,,
-44.705,920.770,,
-45.399,920.770,,
-46.871,920.770,,
-46.554,920.770,,
-47.723,921.842,,
-48.013,921.842,,
-47.789,921.842,,
-48.752,921.842,,
-48.157,922.912,,
-48.605,922.912,,
-48.816,922.912,,
-48.288,922.912,,
-49.096,924.055,,
-48.548,924.055,,
-48.776,924.055,,
-49.269,924.055,,
-48.557,924.925,,
-49.452,924.925,,
-49.263,924.925,,
-49.194,924.925,,
-50.007,925.658,,
-49.575,925.658,,
-50.476,925.658,,
-50.497,925.658,,
-49.969,926.314,,
-50.529,926.314,,
-49.512,926.314,,
-49.552,926.314,,
-49.282,927.107,,
-48.430,927.107,,
-49.262,927.107,,
-48.841,927.107,,
-49.160,928.138,,
-49.754,928.138,,
-49.016,928.138,,
-49.858,928.138,,
-49.775,929.188,,
-49.730,929.188,,
-50.403,929.188,,
-49.662,929.188,,
-50.477,930.409,,
-50.522,930.409,,
-50.325,930.409,,
-51.471,930.409,,
-50.824,931.180,,
-51.159,931.180,,
-51.002,931.180,,
-50.075,931.180,,
-50.700,932.020,,
-50.007,932.020,,
-50.264,932.020,,
-50.723,932.020,,
-49.854,932.598,,
-50.301,932.598,,
-49.599,932.598,,
-49.263,932.598,,
-49.772,933.088,,
-48.851,933.088,,
-49.657,933.088,,
-49.755,933.088,,
-49.708,933.377,,
-50.923,933.377,,
-50.453,933.377,,
-51.009,933.377,,
-51.104,933.462,,
-50.335,933.462,,
-50.980,933.462,,
-50.193,933.462,,
-50.090,933.355,,
-50.339,933.355,,
-49.461,933.355,,
-50.305,933.355,,
-50.114,932.915,,
-50.100,932.915,,
-50.688,932.915,,
-49.864,932.915,,
-50.655,932.487,,
-50.743,932.487,,
-50.403,932.487,,
-51.174,932.487,,
-50.434,931.901,,
-50.961,931.901,,
-50.869,931.901,,
-49.922,931.901,,
-50.429,931.288,,
-49.729,931.288,,
-50.149,931.288,,
-50.848,931.288,,
-50.313,930.508,,
-51.406,930.508,,
-51.310,930.508,,
-51.337,930.508,,
-51.910,929.636,,
-51.011,929.636,,
-51.558,929.636,,
-51.245,929.636,,
-50.787,928.237,,
-51.497,928.237,,
-50.599,928.237,,
-50.667,928.237,,
-50.369,926.869,,
-49.485,926.869,,
-50.151,926.869,,
-49.411,926.869,,
-49.656,925.651,,
-49.821,925.651,,
-48.211,925.651,,
-47.714,925.651,,
-45.788,924.301,,
-44.361,924.301,,
-43.972,924.301,,
-42.442,924.301,,
-42.720,923.089,,
-42.307,923.089,,
-41.932,923.089,,
-42.963,923.089,,
-42.788,921.883,,
-44.128,921.883,,
-45.151,921.883,,
-45.334,921.883,,
-46.837,920.717,,
-46.702,920.717,,
-47.455,920.717,,
-48.474,920.717,,
-48.005,919.298,,
-48.837,919.298,,
-48.274,919.298,,
-48.198,919.298,,
-48.913,918.214,,
-48.164,918.214,,
-49.064,918.214,,
-49.047,918.214,,
-48.633,917.171,,
-49.388,917.171,,
-48.815,917.171,,
-49.529,917.171,,
-49.765,915.909,,
-49.349,915.909,,
-50.626,915.909,,
-50.482,915.909,,
-50.946,914.658,,
-51.405,914.658,,
-50.677,914.658,,
-51.651,914.658,,
-51.342,913.408,,
-51.312,913.408,,
-51.837,913.408,,
-50.929,913.408,,
-51.695,912.302,,
-51.526,912.302,,
-50.931,912.302,,
-51.426,912.302,,
-50.545,910.971,,
-50.938,910.971,,
-50.926,910.971,,
-50.222,910.971,,
-50.943,909.735,,
-50.219,909.735,,
-50.518,909.735,,
-51.051,909.735,,
-50.327,908.420,,
-51.080,908.420,,
-50.526,908.420,,
-50.314,908.420,,
-50.670,907.119,,
-49.651,907.119,,
-50.405,907.119,,
-50.478,907.119,,
-50.394,905.767,,
-51.371,905.767,,
-50.871,905.767,,
-51.729,905.767,,
-52.201,904.547,,
-51.700,904.547,,
-52.743,904.547,,
-52.359,904.547,,
-52.709,903.305,,
-52.900,903.305,,
-51.799,903.305,,
-52.410,903.305,,
-51.942,901.939,,
-51.765,901.939,,
-52.442,901.939,,
-51.905,901.939,,
-52.591,900.790,,
-52.302,900.790,,
-51.901,900.790,,
-52.340,900.790,,
-51.195,899.516,,
-51.769,899.516,,
-52.257,899.516,,
-51.751,899.516,,
-52.676,898.242,,
-52.168,898.242,,
-52.752,898.242,,
-53.190,898.242,,
-52.256,896.866,,
-52.698,896.866,,
-51.637,896.866,,
-50.971,896.866,,
-51.270,895.852,,
-50.345,895.852,,
-50.949,895.852,,
-50.755,895.852,,
-50.546,894.868,,
-51.441,894.868,,
-50.660,894.868,,
-51.062,894.868,,
-51.007,894.181,,
-50.221,894.181,,
-50.958,894.181,,
-50.404,894.181,,
-50.957,893.503,,
-51.687,893.503,,
-51.058,893.503,,
-51.876,893.503,,
-51.251,892.025,,
-51.166,892.025,,
-51.714,892.025,,
-50.769,892.025,,
-51.239,890.474,,
-50.594,890.474,,
-49.541,890.474,,
-49.292,890.474,,
-47.322,889.216,,
-46.725,889.216,,
-45.675,889.216,,
-43.966,889.216,,
-43.890,888.412,,
-42.700,888.412,,
-42.727,888.412,,
-42.924,888.412,,
-42.404,887.706,,
-43.629,887.706,,
-43.569,887.706,,
-43.989,887.706,,
-45.039,887.183,,
-44.715,887.183,,
-46.156,887.183,,
-46.648,887.183,,
-46.722,886.419,,
-47.876,886.419,,
-47.475,886.419,,
-48.240,886.419,,
-48.244,885.739,,
-47.638,885.739,,
-48.451,885.739,,
-47.891,885.739,,
-48.673,885.175,,
-49.646,885.175,,
-49.553,885.175,,
-50.884,885.175,,
-50.530,884.573,,
-50.359,884.573,,
-50.511,884.573,,
-49.447,884.573,,
-50.245,883.784,,
-50.233,883.784,,
-50.177,883.784,,
-51.252,883.784,,
-50.703,882.810,,
-51.321,882.810,,
-51.371,882.810,,
-50.854,882.810,,
-51.703,881.954,,
-50.934,881.954,,
-51.160,881.954,,
-51.524,881.954,,
-51.034,881.172,,
-52.260,881.172,,
-52.062,881.172,,
-52.160,881.172,,
-52.718,880.716,,
-51.731,880.716,,
-52.097,880.716,,
-51.546,880.716,,
-50.962,880.262,,
-51.451,880.262,,
-50.757,880.262,,
-51.692,880.262,,
-52.099,879.884,,
-51.824,879.884,,
-52.766,879.884,,
-52.020,879.884,,
-52.446,879.461,,
-52.687,879.461,,
-51.700,879.461,,
-52.328,879.461,,
-51.689,879.031,,
-51.612,879.031,,
-52.089,879.031,,
-51.423,879.031,,
-52.517,878.699,,
-52.387,878.699,,
-51.940,878.699,,
-52.555,878.699,,
-51.819,878.350,,
-52.372,878.350,,
-52.369,878.350,,
-51.793,878.350,,
-52.556,878.150,,
-51.772,878.150,,
-52.222,878.150,,
-52.903,878.150,,
-52.583,877.779,,
-53.442,877.779,,
-52.574,877.779,,
-52.240,877.779,,
-52.612,877.642,,
-51.699,877.642,,
-52.470,877.642,,
-52.177,877.642,,
-51.506,877.398,,
-51.743,877.398,,
-50.349,877.398,,
-50.893,877.398,,
-51.072,877.203,,
-50.567,877.203,,
-51.452,877.203,,
-50.979,877.203,,
-51.932,877.014,,
-52.804,877.014,,
-52.373,877.014,,
-53.498,877.014,,
-53.217,876.907,,
-53.248,876.907,,
-53.357,876.907,,
-51.998,876.907,,
-52.385,876.926,,
-52.135,876.926,,
-51.848,876.926,,
-52.529,876.926,,
-51.591,876.981,,
-52.346,876.981,,
-52.589,876.981,,
-52.292,876.981,,
-53.351,876.895,,
-52.559,876.895,,
-52.682,876.895,,
-53.080,876.895,,
-52.388,876.362,,
-53.340,876.362,,
-52.898,876.362,,
-52.561,876.362,,
-52.040,875.879,,
-49.690,875.879,,
-48.784,875.879,,
-46.962,875.879,,
-45.277,875.381,,
-44.736,875.381,,
-42.813,875.381,,
-42.595,875.381,,
-41.887,875.115,,
-40.884,875.115,,
-41.642,875.115,,
-41.145,875.115,,
-41.925,874.928,,
-42.873,874.928,,
-42.846,874.928,,
-44.390,874.928,,
-44.688,874.842,,
-45.610,874.842,,
-47.312,874.842,,
-47.593,874.842,,
-49.367,874.708,,
-49.954,874.708,,
-50.184,874.708,,
-51.014,874.708,,
-49.758,874.477,,
-49.723,874.477,,
-49.220,874.477,,
-48.298,874.477,,
-48.725,874.493,,
-47.774,874.493,,
-48.046,874.493,,
-48.312,874.493,,
-47.531,874.401,,
-48.442,874.401,,
-48.153,874.401,,
-48.440,874.401,,
-49.147,874.406,,
-48.513,874.406,,
-49.660,874.406,,
-50.127,874.406,,
-50.625,874.248,,
-51.897,874.248,,
-50.995,874.248,,
-51.156,874.248,,
-50.787,874.160,,
-50.121,874.160,,
-50.871,874.160,,
-50.017,874.160,,
-50.307,874.018,,
-50.646,874.018,,
-50.106,874.018,,
-50.858,874.018,,
-50.306,873.978,,
-50.484,873.978,,
-51.054,873.978,,
-50.468,873.978,,
-51.653,873.934,,
-51.841,873.934,,
-51.905,873.934,,
-52.507,873.934,,
-51.312,873.896,,
-51.460,873.896,,
-51.336,873.896,,
-50.927,873.896,,
-51.633,873.932,,
-50.841,873.932,,
-51.254,873.932,,
-51.616,873.932,,
-50.995,873.820,,
-52.289,873.820,,
-52.229,873.820,,
-52.377,873.820,,
-52.991,873.846,,
-51.949,873.846,,
-52.592,873.846,,
-52.204,873.846,,
-51.931,873.702,,
-52.647,873.702,,
-51.740,873.702,,
-52.526,873.702,,
-53.092,873.646,,
-53.333,873.646,,
-54.480,873.646,,
-53.604,873.646,,
-53.821,873.473,,
-53.823,873.473,,
-52.578,873.473,,
-52.925,873.473,,
-51.986,873.396,,
-51.751,873.396,,
-52.068,873.396,,
-51.036,873.396,,
-51.789,873.284,,
-51.597,873.284,,
-51.500,873.284,,
-52.487,873.284,,
-51.761,873.180,,
-52.524,873.180,,
-52.743,873.180,,
-52.398,873.180,,
-53.393,873.150,,
-52.787,873.150,,
-53.180,873.150,,
-53.133,873.150,,
-51.878,873.060,,
-52.336,873.060,,
-51.674,873.060,,
-51.764,873.060,,
-52.447,872.968,,
-51.870,872.968,,
-52.968,872.968,,
-52.846,872.968,,
-52.629,872.779,,
-53.338,872.779,,
-52.373,872.779,,
-52.984,872.779,,
-53.198,872.509,,
-52.632,872.509,,
-53.338,872.509,,
-52.614,872.509,,
-52.883,871.906,,
-52.804,871.906,,
-51.679,871.906,,
-51.236,871.906,,
-49.288,871.312,,
-47.909,871.312,,
-46.660,871.312,,
-44.342,871.312,,
-43.473,870.683,,
-42.003,870.683,,
-40.815,870.683,,
-40.527,870.683,,
-39.604,870.313,,
-40.253,870.313,,
-40.673,870.313,,
-41.185,870.313,,
-42.631,870.143,,
-42.915,870.143,,
-44.164,870.143,,
-45.046,870.143,,
-45.151,869.931,,
-46.458,869.931,,
-46.348,869.931,,
-46.555,869.931,,
-47.177,869.728,,
-46.453,869.728,,
-47.302,869.728,,
-47.019,869.728,,
-46.910,869.616,,
-47.983,869.616,,
-47.497,869.616,,
-48.450,869.616,,
-48.857,869.677,,
-48.664,869.677,,
-49.545,869.677,,
-48.722,869.677,,
-49.252,869.462,,
-49.708,869.462,,
-49.304,869.462,,
-50.394,869.462,,
-49.752,869.589,,
-49.577,869.589,,
-49.726,869.589,,
-48.596,869.589,,
-49.235,869.754,,
-48.990,869.754,,
-48.872,869.754,,
-49.933,869.754,,
-49.569,869.910,,
-50.851,869.910,,
-51.496,869.910,,
-51.286,869.910,,
-52.260,870.082,,
-51.665,870.082,,
-51.978,870.082,,
-52.111,870.082,,
-51.417,870.205,,
-52.432,870.205,,
-52.140,870.205,,
-52.449,870.205,,
-53.023,870.411,,
-52.251,870.411,,
-53.051,870.411,,
-52.427,870.411,,
-51.719,870.662,,
-52.214,870.662,,
-51.091,870.662,,
-51.412,870.662,,
-51.197,871.100,,
-50.662,871.100,,
-51.622,871.100,,
-51.081,871.100,,
-51.770,871.536,,
-52.260,871.536,,
-51.526,871.536,,
-52.052,871.536,,
-51.062,872.032,,
-50.676,872.032,,
-51.005,872.032,,
-50.556,872.032,,
-52.075,872.405,,
-52.421,872.405,,
-52.458,872.405,,
-53.061,872.405,,
-51.918,872.923,,
-52.153,872.923,,
-51.628,872.923,,
-50.542,872.923,,
-50.938,873.549,,
-50.152,873.549,,
