Data recorded on Tue Jul 25 10-04-11 CAT 2017
Time: 10:4:23
Time		Millis		IR PPG		Red PPG		Filtered		SSF
4,32	,	25597	,	-25291	,	-23953	,	-27.491583	,	0
4,32	,	25629	,	-25293	,	-23968	,	-31.318073	,	0
4,32	,	25645	,	-25310	,	-23978	,	-34.37397	,	0
4,32	,	25661	,	-25334	,	-23986	,	-36.616512	,	0
4,32	,	25693	,	-25336	,	-23983	,	-38.262627	,	0
4,32	,	25709	,	-25356	,	-23984	,	-39.526123	,	0
4,32	,	25725	,	-25359	,	-23998	,	-40.47567	,	0
4,32	,	25757	,	-25368	,	-24000	,	-41.06331	,	0
4,32	,	25774	,	-25385	,	-24011	,	-41.200363	,	0
4,32	,	25805	,	-25391	,	-24006	,	-40.911194	,	0
4,32	,	25821	,	-25391	,	-24015	,	-40.25171	,	0
4,32	,	25837	,	-25384	,	-23994	,	-39.07267	,	0
4,32	,	25870	,	-25349	,	-23983	,	-36.878723	,	1
4,32	,	25885	,	-25252	,	-23944	,	-32.49015	,	3
4,32	,	25901	,	-25237	,	-23919	,	-24.15323	,	7
4,32	,	25933	,	-25201	,	-23926	,	-10.89139	,	15
4,32	,	25949	,	-25204	,	-23936	,	6.43458	,	28
4,32	,	25982	,	-25177	,	-23923	,	25.577526	,	45
4,32	,	25997	,	-25204	,	-23923	,	43.823456	,	64
4,32	,	26014	,	-25210	,	-23926	,	58.514904	,	82
4,32	,	26045	,	-25215	,	-23936	,	67.574326	,	96
4,32	,	26061	,	-25227	,	-23941	,	70.087234	,	104
4,32	,	26077	,	-25235	,	-23932	,	66.32286	,	104
4,32	,	26109	,	-25230	,	-23955	,	57.4384	,	100
4,32	,	26125	,	-25218	,	-23944	,	45.29802	,	92
4,32	,	26141	,	-25222	,	-23936	,	32.079765	,	79
4,32	,	26173	,	-25217	,	-23935	,	19.653141	,	62
4,32	,	26189	,	-25210	,	-23938	,	9.280994	,	43
4,32	,	26221	,	-25219	,	-23943	,	1.6304436	,	25
4,32	,	26237	,	-25238	,	-23950	,	-3.3483105	,	11
4,32	,	26253	,	-25261	,	-23951	,	-6.4574547	,	2
4,32	,	26285	,	-25263	,	-23961	,	-8.806309	,	0
4,32	,	26301	,	-25283	,	-23976	,	-11.220516	,	0
4,32	,	26317	,	-25298	,	-23948	,	-14.122108	,	0
4,32	,	26349	,	-25311	,	-23971	,	-17.681936	,	0
4,32	,	26365	,	-25345	,	-23986	,	-21.927418	,	0
4,32	,	26397	,	-25342	,	-23991	,	-26.795609	,	0
4,32	,	26413	,	-25362	,	-23998	,	-31.98393	,	0
4,32	,	26429	,	-25366	,	-24001	,	-36.94364	,	0
4,32	,	26461	,	-25379	,	-24011	,	-41.126793	,	0
4,32	,	26477	,	-25393	,	-24019	,	-44.16275	,	0
4,32	,	26493	,	-25403	,	-24013	,	-45.94981	,	0
4,32	,	26525	,	-25415	,	-24018	,	-46.60229	,	0
4,32	,	26541	,	-25422	,	-24039	,	-46.310387	,	0
4,32	,	26557	,	-25427	,	-24024	,	-45.239326	,	0
4,32	,	26589	,	-25421	,	-24031	,	-43.432594	,	1
4,32	,	26605	,	-25398	,	-24005	,	-40.67698	,	2
4,33	,	26637	,	-25348	,	-23992	,	-36.31243	,	4
4,33	,	26653	,	-25288	,	-23971	,	-29.168137	,	8
4,33	,	26669	,	-25261	,	-23969	,	-18.089893	,	15
4,33	,	26701	,	-25263	,	-23965	,	-3.0468636	,	26
4,33	,	26717	,	-25243	,	-23956	,	14.390402	,	41
4,33	,	26733	,	-25210	,	-23948	,	31.992256	,	58
4,33	,	26765	,	-25218	,	-23952	,	47.899525	,	75
4,33	,	26781	,	-25204	,	-23951	,	60.670742	,	89
4,33	,	26813	,	-25226	,	-23938	,	69.14268	,	100
4,33	,	26829	,	-25221	,	-23950	,	72.559784	,	106
4,33	,	26845	,	-25248	,	-23953	,	70.70477	,	105
4,33	,	26877	,	-25237	,	-23943	,	63.990524	,	98
4,33	,	26893	,	-25201	,	-23943	,	53.72806	,	87
4,33	,	26909	,	-25213	,	-23938	,	42.054695	,	72
4,33	,	26941	,	-25216	,	-23939	,	30.903065	,	55
4,33	,	26957	,	-25206	,	-23936	,	21.299662	,	38
4,33	,	26973	,	-25208	,	-23941	,	13.691036	,	23
4,33	,	27005	,	-25228	,	-23950	,	8.110181	,	11
4,33	,	27021	,	-25218	,	-23958	,	4.138712	,	3
4,33	,	27053	,	-25243	,	-23939	,	1.1927061	,	0
4,33	,	27069	,	-25257	,	-23955	,	-1.361028	,	0
4,33	,	27085	,	-25276	,	-23963	,	-4.2167587	,	0
4,33	,	27117	,	-25306	,	-23970	,	-7.9670753	,	0
4,33	,	27133	,	-25309	,	-23970	,	-12.93347	,	0
4,33	,	27149	,	-25321	,	-23969	,	-18.939938	,	0
4,33	,	27181	,	-25323	,	-23963	,	-25.293188	,	0
4,33	,	27197	,	-25338	,	-23973	,	-31.149837	,	0
4,33	,	27229	,	-25348	,	-23990	,	-35.895966	,	0
4,33	,	27245	,	-25360	,	-23997	,	-39.277832	,	0
4,33	,	27261	,	-25369	,	-24008	,	-41.308342	,	0
4,33	,	27293	,	-25373	,	-23991	,	-42.107193	,	0
4,33	,	27308	,	-25384	,	-24016	,	-41.812534	,	0
4,33	,	27324	,	-25374	,	-23998	,	-40.5345	,	0
4,33	,	27356	,	-25340	,	-23980	,	-38.100933	,	1
4,33	,	27372	,	-25287	,	-23962	,	-33.724724	,	3
4,33	,	27389	,	-25240	,	-23934	,	-26.165024	,	7
4,33	,	27421	,	-25205	,	-23923	,	-14.484779	,	14
4,33	,	27437	,	-25174	,	-23926	,	1.2325602	,	25
4,33	,	27469	,	-25167	,	-23913	,	19.718567	,	40
4,33	,	27485	,	-25164	,	-23914	,	38.776955	,	58
4,33	,	27501	,	-25185	,	-23930	,	55.735443	,	77
4,33	,	27533	,	-25167	,	-23913	,	68.16578	,	93
4,33	,	27549	,	-25170	,	-23925	,	74.72992	,	104
4,33	,	27565	,	-25195	,	-23941	,	75.27772	,	108
4,33	,	27597	,	-25206	,	-23938	,	70.22079	,	104
4,33	,	27613	,	-25203	,	-23927	,	60.396214	,	97
4,34	,	27644	,	-25187	,	-23930	,	47.385178	,	86
4,34	,	27660	,	-25184	,	-23924	,	33.34927	,	71
4,34	,	27677	,	-25194	,	-23939	,	20.276117	,	53
4,34	,	27709	,	-25193	,	-23933	,	9.358513	,	34
4,34	,	27725	,	-25219	,	-23938	,	0.91847897	,	18
4,34	,	27741	,	-25198	,	-23938	,	-5.2805166	,	6
4,34	,	27773	,	-25200	,	-23931	,	-9.474615	,	0
4,34	,	27788	,	-25233	,	-23949	,	-11.873407	,	0
4,34	,	27820	,	-25270	,	-23949	,	-13.298304	,	0
4,34	,	27836	,	-25273	,	-23950	,	-15.050922	,	0
4,34	,	27852	,	-25279	,	-23971	,	-17.906757	,	0
4,34	,	27885	,	-25283	,	-23967	,	-21.688747	,	0
4,34	,	27901	,	-25320	,	-23973	,	-25.851267	,	0
4,34	,	27917	,	-25320	,	-23977	,	-30.087551	,	0
4,34	,	27949	,	-25328	,	-23985	,	-34.169872	,	0
4,34	,	27965	,	-25350	,	-23995	,	-37.736797	,	0
4,34	,	27981	,	-25361	,	-24016	,	-40.5757	,	0
4,34	,	28012	,	-25398	,	-24016	,	-42.82072	,	0
4,34	,	28028	,	-25410	,	-24056	,	-44.86628	,	0
4,34	,	28060	,	-25381	,	-24062	,	-46.829803	,	0
4,34	,	28076	,	-25346	,	-24062	,	-47.83845	,	0
4,34	,	28092	,	-25316	,	-24070	,	-46.252907	,	0
4,34	,	28124	,	-25312	,	-24067	,	-40.802406	,	1
4,34	,	28140	,	-25313	,	-24069	,	-31.513344	,	6
4,34	,	28156	,	-25305	,	-24062	,	-19.666065	,	15
4,34	,	28188	,	-25299	,	-24052	,	-7.00054	,	26
4,34	,	28204	,	-25293	,	-24053	,	4.9581633	,	38
4,34	,	28236	,	-25296	,	-24050	,	15.082692	,	49
4,34	,	28252	,	-25302	,	-24028	,	22.580793	,	59
4,34	,	28268	,	-25327	,	-24036	,	26.868511	,	66
4,34	,	28301	,	-25298	,	-24029	,	27.712254	,	70
4,34	,	28316	,	-25272	,	-24015	,	25.79177	,	69
4,34	,	28333	,	-25260	,	-24009	,	22.696384	,	64
4,34	,	28364	,	-25270	,	-24014	,	19.895817	,	55
4,34	,	28380	,	-25274	,	-24006	,	17.908033	,	44
4,34	,	28396	,	-25261	,	-24012	,	16.53327	,	32
4,34	,	28428	,	-25292	,	-24013	,	15.379547	,	21
4,34	,	28444	,	-25304	,	-24013	,	13.852115	,	11
4,34	,	28476	,	-25323	,	-24032	,	11.2067375	,	4
4,34	,	28492	,	-25329	,	-24007	,	6.995465	,	0
4,34	,	28508	,	-25350	,	-24025	,	1.2642264	,	0
4,34	,	28540	,	-25358	,	-24038	,	-5.607483	,	0
4,34	,	28556	,	-25374	,	-24037	,	-13.070608	,	0
4,34	,	28572	,	-25380	,	-24031	,	-20.487553	,	0
4,34	,	28604	,	-25404	,	-24043	,	-27.286509	,	0
4,35	,	28620	,	-25415	,	-24044	,	-33.1528	,	0
4,35	,	28652	,	-25426	,	-24056	,	-37.979214	,	0
4,35	,	28668	,	-25432	,	-24064	,	-41.653015	,	0
4,35	,	28684	,	-25424	,	-24065	,	-43.94091	,	0
4,35	,	28716	,	-25411	,	-24062	,	-44.442947	,	0
4,35	,	28732	,	-25377	,	-24023	,	-42.577267	,	0
4,35	,	28748	,	-25259	,	-23979	,	-37.23484	,	1
4,35	,	28780	,	-25211	,	-23963	,	-26.589642	,	6
4,35	,	28796	,	-25200	,	-23955	,	-9.525906	,	16
4,35	,	28812	,	-25172	,	-23956	,	12.763031	,	33
4,35	,	28844	,	-25171	,	-23951	,	37.242462	,	55
4,35	,	28860	,	-25179	,	-23949	,	60.31569	,	79
4,35	,	28892	,	-25159	,	-23951	,	78.77409	,	102
4,35	,	28908	,	-25193	,	-23949	,	90.49893	,	120
4,35	,	28924	,	-25168	,	-23963	,	94.617355	,	131
4,35	,	28956	,	-25200	,	-23969	,	91.418884	,	134
4,35	,	28972	,	-25209	,	-23940	,	82.00545	,	129
4,35	,	28988	,	-25171	,	-23938	,	68.063126	,	119
4,35	,	29020	,	-25180	,	-23948	,	52.002033	,	102
4,35	,	29036	,	-25200	,	-23940	,	36.18995	,	80
4,35	,	29068	,	-25177	,	-23944	,	22.07949	,	56
4,35	,	29084	,	-25177	,	-23952	,	10.5511875	,	33
4,35	,	29100	,	-25185	,	-23952	,	2.155962	,	15
4,35	,	29132	,	-25219	,	-23975	,	-3.3323507	,	4
4,35	,	29148	,	-25230	,	-23964	,	-6.9833326	,	0
4,35	,	29164	,	-25248	,	-23966	,	-10.058018	,	0
4,35	,	29196	,	-25264	,	-23984	,	-13.416459	,	0
4,35	,	29212	,	-25274	,	-23973	,	-17.420765	,	0
4,35	,	29244	,	-25308	,	-23986	,	-22.106361	,	0
4,35	,	29260	,	-25313	,	-23993	,	-27.384117	,	0
4,35	,	29276	,	-25318	,	-24006	,	-32.937927	,	0
4,35	,	29308	,	-25345	,	-24008	,	-38.188572	,	0
4,35	,	29324	,	-25350	,	-24015	,	-42.671406	,	0
4,35	,	29340	,	-25362	,	-24025	,	-46.141247	,	0
4,35	,	29372	,	-25374	,	-24037	,	-48.42957	,	0
4,35	,	29388	,	-25397	,	-24039	,	-49.5548	,	0
4,35	,	29404	,	-25386	,	-24051	,	-49.700996	,	0
4,35	,	29436	,	-25399	,	-24053	,	-48.915627	,	0
4,35	,	29452	,	-25404	,	-24025	,	-47.137627	,	0
4,35	,	29484	,	-25310	,	-24004	,	-43.98474	,	1
4,35	,	29500	,	-25245	,	-23964	,	-37.966423	,	4
4,35	,	29516	,	-25173	,	-23945	,	-26.887997	,	10
4,35	,	29548	,	-25146	,	-23924	,	-9.531206	,	21
4,35	,	29564	,	-25124	,	-23921	,	13.251337	,	38
4,35	,	29580	,	-25107	,	-23911	,	38.76469	,	60
4,35	,	29612	,	-25092	,	-23907	,	63.59771	,	85
4,36	,	29627	,	-25086	,	-23904	,	84.687096	,	109
4,36	,	29660	,	-25087	,	-23910	,	99.80292	,	130
4,36	,	29676	,	-25089	,	-23908	,	107.69173	,	144
4,36	,	29692	,	-25106	,	-23889	,	108.04776	,	148
4,36	,	29724	,	-25098	,	-23903	,	101.42301	,	142
4,36	,	29740	,	-25093	,	-23888	,	89.25157	,	131
4,36	,	29756	,	-25090	,	-23894	,	73.66615	,	114
4,36	,	29788	,	-25083	,	-23903	,	56.94005	,	92
4,36	,	29803	,	-25088	,	-23916	,	40.98348	,	67
4,36	,	29819	,	-25099	,	-23911	,	27.010479	,	43
4,36	,	29852	,	-25096	,	-23900	,	15.496519	,	22
4,36	,	29868	,	-25111	,	-23908	,	6.452879	,	7
4,36	,	29900	,	-25124	,	-23914	,	-0.44135666	,	0
4,36	,	29916	,	-25132	,	-23921	,	-5.766713	,	0
4,36	,	29932	,	-25149	,	-23911	,	-10.119298	,	0
4,36	,	29963	,	-25200	,	-23928	,	-14.166364	,	0
4,36	,	29979	,	-25200	,	-23935	,	-18.731052	,	0
4,36	,	29996	,	-25222	,	-23943	,	-24.261507	,	0
4,36	,	30028	,	-25236	,	-23952	,	-30.522701	,	0
4,36	,	30044	,	-25252	,	-23953	,	-36.962673	,	0
4,36	,	30076	,	-25270	,	-23957	,	-43.027203	,	0
4,36	,	30092	,	-25275	,	-23960	,	-48.236248	,	0
4,36	,	30107	,	-25285	,	-23942	,	-52.159023	,	0
4,36	,	30139	,	-25295	,	-23973	,	-54.45721	,	0
4,36	,	30155	,	-25317	,	-23996	,	-55.087196	,	0
4,36	,	30171	,	-25345	,	-23973	,	-54.46763	,	0
4,36	,	30204	,	-25365	,	-24010	,	-53.37686	,	0
4,36	,	30220	,	-25364	,	-24024	,	-52.46277	,	1
4,36	,	30251	,	-25387	,	-24022	,	-51.870342	,	1
4,36	,	30268	,	-25391	,	-24021	,	-51.436234	,	1
4,36	,	30284	,	-25360	,	-24009	,	-50.745705	,	1
4,36	,	30315	,	-25295	,	-23976	,	-48.64079	,	1
4,36	,	30332	,	-25215	,	-23941	,	-43.038372	,	3
4,36	,	30347	,	-25168	,	-23925	,	-31.773773	,	8
4,36	,	30380	,	-25143	,	-23915	,	-14.059748	,	19
4,36	,	30396	,	-25126	,	-23928	,	8.733744	,	36
4,36	,	30412	,	-25115	,	-23888	,	33.63518	,	57
4,36	,	30443	,	-25101	,	-23901	,	57.25869	,	81
4,36	,	30459	,	-25095	,	-23897	,	76.768555	,	104
4,36	,	30492	,	-25085	,	-23921	,	90.34492	,	123
4,36	,	30508	,	-25120	,	-23888	,	97.09106	,	136
4,36	,	30524	,	-25114	,	-23909	,	96.72218	,	140
4,36	,	30555	,	-25120	,	-23890	,	89.709465	,	135
4,36	,	30572	,	-25098	,	-23891	,	77.579056	,	124
4,36	,	30587	,	-25107	,	-23909	,	62.59532	,	107
4,36	,	30619	,	-25089	,	-23898	,	47.04552	,	85
4,37	,	30635	,	-25107	,	-23909	,	32.703175	,	61
4,37	,	30667	,	-25111	,	-23887	,	20.539747	,	38
4,37	,	30683	,	-25119	,	-23911	,	10.751148	,	19
4,37	,	30699	,	-25142	,	-23904	,	3.0285435	,	6
4,37	,	30731	,	-25154	,	-23916	,	-3.2521276	,	0
4,37	,	30747	,	-25160	,	-23919	,	-8.728483	,	0
4,37	,	30763	,	-25172	,	-23919	,	-13.712955	,	0
4,37	,	30795	,	-25189	,	-23937	,	-18.275284	,	0
4,37	,	30811	,	-25224	,	-23938	,	-22.59453	,	0
4,37	,	30827	,	-25242	,	-23939	,	-27.087118	,	0
4,37	,	30859	,	-25237	,	-23940	,	-31.983906	,	0
4,37	,	30875	,	-25265	,	-23981	,	-36.963783	,	0
4,37	,	30907	,	-25261	,	-23947	,	-41.456966	,	0
4,37	,	30923	,	-25298	,	-23967	,	-45.070793	,	0
4,37	,	30939	,	-25305	,	-23982	,	-47.76181	,	0
4,37	,	30971	,	-25312	,	-23976	,	-49.6538	,	0
4,37	,	30987	,	-25333	,	-23981	,	-50.763626	,	0
4,37	,	31003	,	-25339	,	-24003	,	-51.111446	,	0
4,37	,	31035	,	-25362	,	-23998	,	-50.8404	,	0
4,37	,	31051	,	-25369	,	-24007	,	-50.158447	,	0
4,37	,	31083	,	-25381	,	-24013	,	-49.24353	,	0
4,37	,	31099	,	-25353	,	-24006	,	-47.978233	,	0
4,37	,	31115	,	-25316	,	-23987	,	-45.606987	,	1
4,37	,	31147	,	-25251	,	-23941	,	-40.695457	,	3
4,37	,	31163	,	-25173	,	-23918	,	-31.473442	,	7
4,37	,	31179	,	-25157	,	-23905	,	-16.68014	,	16
4,37	,	31211	,	-25146	,	-23923	,	3.2055912	,	30
4,37	,	31227	,	-25173	,	-23909	,	25.551983	,	49
4,37	,	31259	,	-25171	,	-23904	,	46.545807	,	71
4,37	,	31275	,	-25146	,	-23918	,	62.903286	,	91
4,37	,	31291	,	-25175	,	-23920	,	72.94932	,	107
4,37	,	31323	,	-25214	,	-23926	,	76.06712	,	116
4,37	,	31339	,	-25198	,	-23947	,	72.15077	,	117
4,37	,	31355	,	-25195	,	-23948	,	62.222622	,	113
4,37	,	31387	,	-25179	,	-23918	,	48.58833	,	104
4,37	,	31403	,	-25176	,	-23920	,	33.967293	,	90
4,37	,	31419	,	-25173	,	-23920	,	20.619217	,	71
4,37	,	31451	,	-25193	,	-23928	,	9.827562	,	49
4,37	,	31467	,	-25201	,	-23937	,	1.7850895	,	29
4,37	,	31499	,	-25236	,	-23936	,	-4.142622	,	13
4,37	,	31515	,	-25222	,	-23938	,	-8.880196	,	3
4,37	,	31531	,	-25245	,	-23953	,	-13.029268	,	0
4,37	,	31563	,	-25263	,	-23950	,	-16.84507	,	0
4,37	,	31579	,	-25271	,	-23968	,	-20.561281	,	0
4,37	,	31595	,	-25263	,	-23978	,	-24.192564	,	0
4,38	,	31627	,	-25297	,	-23944	,	-27.443195	,	0
4,38	,	31643	,	-25329	,	-23976	,	-30.306065	,	0
4,38	,	31675	,	-25338	,	-23980	,	-33.252724	,	0
4,38	,	31691	,	-25357	,	-23988	,	-36.63063	,	0
4,38	,	31707	,	-25366	,	-23996	,	-40.339523	,	0
4,38	,	31739	,	-25366	,	-23999	,	-43.940376	,	0
4,38	,	31755	,	-25390	,	-24007	,	-46.862926	,	0
4,38	,	31771	,	-25396	,	-24006	,	-48.755386	,	0
4,38	,	31803	,	-25404	,	-24019	,	-49.547028	,	0
4,38	,	31819	,	-25404	,	-24021	,	-49.206314	,	0
4,38	,	31835	,	-25362	,	-24014	,	-47.45687	,	0
4,38	,	31867	,	-25311	,	-23964	,	-43.415504	,	1
4,38	,	31883	,	-25197	,	-23934	,	-35.410896	,	5
4,38	,	31915	,	-25218	,	-23939	,	-21.815622	,	13
4,38	,	31931	,	-25178	,	-23925	,	-2.7796135	,	26
4,38	,	31947	,	-25164	,	-23921	,	19.472828	,	45
4,38	,	31979	,	-25177	,	-23916	,	41.884968	,	67
4,38	,	31995	,	-25184	,	-23917	,	61.29609	,	89
4,38	,	32011	,	-25209	,	-23921	,	74.92169	,	108
4,38	,	32043	,	-25203	,	-23942	,	81.05677	,	121
4,38	,	32059	,	-25237	,	-23950	,	79.39804	,	126
4,38	,	32090	,	-25246	,	-23958	,	70.745544	,	122
4,38	,	32107	,	-25201	,	-23925	,	56.88392	,	114
4,38	,	32123	,	-25190	,	-23925	,	40.747326	,	101
4,38	,	32155	,	-25194	,	-23930	,	25.50478	,	82
4,38	,	32171	,	-25223	,	-23941	,	13.049641	,	60
4,38	,	32187	,	-25242	,	-23945	,	3.5623722	,	38
4,38	,	32219	,	-25242	,	-23938	,	-3.7142067	,	19
4,38	,	32234	,	-25228	,	-23947	,	-9.366539	,	6
4,38	,	32251	,	-25265	,	-23953	,	-13.548658	,	0
4,38	,	32283	,	-25252	,	-23960	,	-16.499508	,	0
4,38	,	32299	,	-25282	,	-23964	,	-18.636328	,	0
4,38	,	32331	,	-25305	,	-23977	,	-20.464699	,	0
4,38	,	32347	,	-25314	,	-23968	,	-22.587788	,	0
4,38	,	32363	,	-25348	,	-23990	,	-25.451372	,	0
4,38	,	32395	,	-25346	,	-23988	,	-29.183659	,	0
4,38	,	32411	,	-25368	,	-23997	,	-33.54642	,	0
4,38	,	32426	,	-25374	,	-24000	,	-38.015594	,	0
4,38	,	32458	,	-25387	,	-24009	,	-42.036858	,	0
4,38	,	32474	,	-25403	,	-24007	,	-45.197926	,	0
4,38	,	32506	,	-25404	,	-24023	,	-47.287415	,	0
4,38	,	32522	,	-25420	,	-24029	,	-48.22013	,	0
4,38	,	32539	,	-25421	,	-24038	,	-47.9955	,	0
4,38	,	32571	,	-25429	,	-24051	,	-46.691628	,	0
4,38	,	32587	,	-25411	,	-24018	,	-44.321526	,	1
4,38	,	32602	,	-25296	,	-23966	,	-40.187386	,	3
4,39	,	32634	,	-25214	,	-23941	,	-32.200195	,	7
4,39	,	32650	,	-25172	,	-23922	,	-17.966908	,	14
4,39	,	32666	,	-25170	,	-23916	,	2.898531	,	28
4,39	,	32698	,	-25149	,	-23908	,	28.032406	,	48
4,39	,	32714	,	-25132	,	-23903	,	53.697235	,	73
4,39	,	32746	,	-25143	,	-23895	,	76.32551	,	98
4,39	,	32762	,	-25118	,	-23894	,	93.22358	,	120
4,39	,	32778	,	-25120	,	-23897	,	102.99026	,	135
4,39	,	32810	,	-25127	,	-23917	,	105.47632	,	142
4,39	,	32827	,	-25142	,	-23896	,	101.22368	,	140
4,39	,	32842	,	-25145	,	-23912	,	91.19392	,	133
4,39	,	32874	,	-25119	,	-23892	,	76.96422	,	119
4,39	,	32890	,	-25112	,	-23890	,	60.80364	,	99
4,39	,	32922	,	-25107	,	-23879	,	45.08462	,	74
4,39	,	32938	,	-25112	,	-23904	,	31.479332	,	49
4,39	,	32954	,	-25130	,	-23894	,	20.625055	,	27
4,39	,	32986	,	-25146	,	-23912	,	12.221664	,	11
4,39	,	33002	,	-25145	,	-23902	,	5.519993	,	2
4,39	,	33018	,	-25153	,	-23909	,	-0.06468296	,	0
4,39	,	33050	,	-25159	,	-23930	,	-4.7909527	,	0
4,39	,	33066	,	-25211	,	-23914	,	-8.9946	,	0
4,39	,	33098	,	-25217	,	-23933	,	-13.38661	,	0
4,39	,	33114	,	-25231	,	-23941	,	-18.556698	,	0
4,39	,	33130	,	-25262	,	-23946	,	-24.527456	,	0
4,39	,	33162	,	-25262	,	-23954	,	-30.989595	,	0
4,39	,	33178	,	-25290	,	-23952	,	-37.46936	,	0
4,39	,	33194	,	-25298	,	-23955	,	-43.43849	,	0
4,39	,	33226	,	-25312	,	-23966	,	-48.471184	,	0
4,39	,	33242	,	-25324	,	-23974	,	-52.24104	,	0
4,39	,	33258	,	-25320	,	-23973	,	-54.487915	,	0
4,39	,	33290	,	-25332	,	-23996	,	-54.988342	,	0
4,39	,	33306	,	-25358	,	-23974	,	-53.786064	,	0
4,39	,	33338	,	-25372	,	-23991	,	-51.44889	,	1
4,39	,	33354	,	-25381	,	-24000	,	-48.755245	,	3
4,39	,	33370	,	-25363	,	-23985	,	-46.083256	,	5
4,39	,	33402	,	-25294	,	-23972	,	-42.847237	,	7
4,39	,	33418	,	-25239	,	-23929	,	-37.33732	,	10
4,39	,	33434	,	-25168	,	-23890	,	-27.477098	,	15
4,39	,	33466	,	-25124	,	-23883	,	-11.97271	,	24
4,39	,	33482	,	-25100	,	-23889	,	8.895916	,	39
4,39	,	33514	,	-25091	,	-23872	,	33.076443	,	59
4,39	,	33530	,	-25075	,	-23886	,	57.381493	,	82
4,39	,	33546	,	-25094	,	-23866	,	78.48848	,	104
4,39	,	33578	,	-25070	,	-23877	,	93.72856	,	123
4,39	,	33594	,	-25061	,	-23888	,	101.79071	,	136
4,39	,	33610	,	-25096	,	-23885	,	102.697075	,	141
4,40	,	33642	,	-25097	,	-23895	,	97.00325	,	136
4,40	,	33658	,	-25091	,	-23867	,	85.69826	,	127
4,40	,	33674	,	-25082	,	-23859	,	70.58457	,	112
4,40	,	33706	,	-25057	,	-23866	,	54.072742	,	92
4,40	,	33722	,	-25071	,	-23863	,	38.51363	,	68
4,40	,	33754	,	-25065	,	-23878	,	25.451904	,	44
4,40	,	33770	,	-25084	,	-23887	,	15.3569565	,	23
4,40	,	33786	,	-25111	,	-23867	,	7.795496	,	8
4,40	,	33818	,	-25135	,	-23882	,	1.6896162	,	0
4,40	,	33834	,	-25148	,	-23897	,	-4.125641	,	0
4,40	,	33850	,	-25181	,	-23921	,	-10.405215	,	0
4,40	,	33882	,	-25174	,	-23911	,	-17.370552	,	0
4,40	,	33898	,	-25188	,	-23930	,	-24.632292	,	0
4,40	,	33930	,	-25194	,	-23925	,	-31.393143	,	0
4,40	,	33946	,	-25234	,	-23930	,	-37.07029	,	0
4,40	,	33962	,	-25253	,	-23934	,	-41.713646	,	0
4,40	,	33994	,	-25248	,	-23941	,	-45.63182	,	0
4,40	,	34010	,	-25265	,	-23955	,	-48.761627	,	0
4,40	,	34026	,	-25284	,	-23937	,	-50.8394	,	0
4,40	,	34058	,	-25305	,	-23954	,	-51.918396	,	0
4,40	,	34074	,	-25318	,	-23968	,	-52.338924	,	0
4,40	,	34090	,	-25316	,	-23969	,	-52.33403	,	0
4,40	,	34122	,	-25322	,	-23949	,	-51.7847	,	0
4,40	,	34138	,	-25349	,	-23975	,	-50.50678	,	0
4,40	,	34170	,	-25366	,	-23985	,	-48.717278	,	1
4,40	,	34186	,	-25380	,	-23990	,	-46.940014	,	2
4,40	,	34201	,	-25379	,	-23989	,	-45.509518	,	3
4,40	,	34234	,	-25388	,	-23998	,	-44.33602	,	4
4,40	,	34250	,	-25371	,	-23998	,	-42.99827	,	5
4,40	,	34266	,	-25338	,	-23968	,	-40.743816	,	6
4,40	,	34298	,	-25206	,	-23921	,	-36.01316	,	8
4,40	,	34314	,	-25131	,	-23891	,	-26.18806	,	12
4,40	,	34345	,	-25122	,	-23904	,	-9.203472	,	21
4,40	,	34361	,	-25125	,	-23887	,	14.127312	,	36
4,40	,	34377	,	-25106	,	-23894	,	40.21657	,	58
4,40	,	34409	,	-25107	,	-23876	,	64.79701	,	83
4,40	,	34426	,	-25106	,	-23885	,	84.41958	,	106
4,40	,	34442	,	-25105	,	-23867	,	96.91543	,	124
4,40	,	34474	,	-25119	,	-23875	,	101.442696	,	135
4,40	,	34490	,	-25131	,	-23889	,	98.23132	,	137
4,40	,	34522	,	-25139	,	-23878	,	88.30434	,	133
4,40	,	34538	,	-25111	,	-23877	,	73.49489	,	124
4,40	,	34554	,	-25087	,	-23856	,	56.490334	,	108
4,41	,	34618	,	-25092	,	-23878	,	15.814016	,	35
4,41	,	34649	,	-25116	,	-23885	,	8.4615135	,	16
4,41	,	34665	,	-25125	,	-23881	,	3.5814686	,	4
4,41	,	34681	,	-25139	,	-23901	,	0.082564354	,	0
4,41	,	34713	,	-25143	,	-23899	,	-2.9632869	,	0
4,41	,	34729	,	-25187	,	-23914	,	-6.224906	,	0
4,41	,	34761	,	-25201	,	-23906	,	-10.348578	,	0
4,41	,	34778	,	-25220	,	-23910	,	-15.787218	,	0
4,41	,	34794	,	-25242	,	-23915	,	-22.4775	,	0
4,41	,	34826	,	-25248	,	-23933	,	-29.914192	,	0
4,41	,	34841	,	-25262	,	-23941	,	-37.319695	,	0
4,41	,	34858	,	-25283	,	-23944	,	-43.906666	,	0
4,41	,	34889	,	-25280	,	-23946	,	-49.130993	,	0
4,41	,	34905	,	-25292	,	-23954	,	-52.59899	,	0
4,41	,	34938	,	-25312	,	-23965	,	-54.116096	,	0
4,41	,	34954	,	-25309	,	-23957	,	-53.855305	,	0
4,41	,	34969	,	-25330	,	-23977	,	-52.190216	,	0
4,41	,	35001	,	-25341	,	-23964	,	-49.58851	,	1
4,41	,	35017	,	-25358	,	-23981	,	-46.62705	,	3
4,41	,	35033	,	-25355	,	-23980	,	-43.77704	,	5
4,41	,	35065	,	-25319	,	-23961	,	-40.96926	,	7
4,41	,	35081	,	-25259	,	-23928	,	-37.172386	,	9
4,41	,	35097	,	-25206	,	-23919	,	-30.584658	,	12
4,41	,	35129	,	-25170	,	-23891	,	-19.64576	,	18
4,41	,	35145	,	-25125	,	-23884	,	-3.97406	,	28
4,41	,	35177	,	-25130	,	-23887	,	15.370186	,	43
4,41	,	35193	,	-25111	,	-23877	,	36.08368	,	61
4,41	,	35209	,	-25122	,	-23871	,	55.295334	,	79
4,41	,	35242	,	-25114	,	-23880	,	70.43702	,	96
4,41	,	35257	,	-25149	,	-23915	,	79.68069	,	109
4,41	,	35273	,	-25163	,	-23901	,	81.95562	,	116
4,41	,	35305	,	-25189	,	-23894	,	77.00893	,	115
4,41	,	35321	,	-25150	,	-23908	,	65.79219	,	109
4,41	,	35353	,	-25142	,	-23910	,	50.707333	,	99
4,41	,	35369	,	-25139	,	-23880	,	34.83034	,	84
4,41	,	35385	,	-25161	,	-23879	,	20.51068	,	65
4,41	,	35417	,	-25156	,	-23879	,	8.793211	,	45
4,41	,	35433	,	-25164	,	-23899	,	-0.12840462	,	26
4,41	,	35449	,	-25176	,	-23893	,	-6.4628687	,	11
4,41	,	35481	,	-25187	,	-23905	,	-10.74301	,	2
4,41	,	35497	,	-25209	,	-23903	,	-13.731693	,	0
4,41	,	35529	,	-25220	,	-23915	,	-16.229721	,	0
4,41	,	35545	,	-25236	,	-23924	,	-18.848999	,	0
4,41	,	35561	,	-25254	,	-23931	,	-21.898401	,	0
4,41	,	35593	,	-25262	,	-23930	,	-25.433786	,	0
4,41	,	35609	,	-25287	,	-23939	,	-29.326696	,	0
4,42	,	35625	,	-25298	,	-23945	,	-33.39042	,	0
4,42	,	35657	,	-25317	,	-23956	,	-37.442802	,	0
4,42	,	35673	,	-25318	,	-23951	,	-41.22271	,	0
4,42	,	35689	,	-25333	,	-23955	,	-44.35592	,	0
4,42	,	35721	,	-25352	,	-23967	,	-46.550655	,	0
4,42	,	35737	,	-25365	,	-23976	,	-47.817383	,	0
4,42	,	35769	,	-25370	,	-23987	,	-48.32279	,	0
4,42	,	35785	,	-25379	,	-23996	,	-48.129623	,	0
4,42	,	35801	,	-25401	,	-24003	,	-47.2864	,	0
4,42	,	35833	,	-25404	,	-24012	,	-45.99772	,	0
4,42	,	35849	,	-25419	,	-24018	,	-44.503036	,	1
4,42	,	35865	,	-25410	,	-24000	,	-42.874607	,	2
4,42	,	35897	,	-25365	,	-23983	,	-40.710655	,	3
4,42	,	35913	,	-25301	,	-23952	,	-36.746452	,	5
4,42	,	35945	,	-25208	,	-23918	,	-28.940872	,	8
4,42	,	35961	,	-25198	,	-23910	,	-15.515083	,	15
4,42	,	35978	,	-25137	,	-23889	,	3.6730957	,	28
4,42	,	36009	,	-25137	,	-23893	,	26.894915	,	47
4,42	,	36025	,	-25131	,	-23882	,	51.200405	,	70
4,42	,	36041	,	-25116	,	-23880	,	73.21751	,	93
4,42	,	36073	,	-25136	,	-23883	,	90.08199	,	114
4,42	,	36089	,	-25119	,	-23897	,	99.96751	,	129
4,42	,	36105	,	-25141	,	-23898	,	102.246315	,	136
4,42	,	36137	,	-25164	,	-23901	,	97.25818	,	135
4,42	,	36153	,	-25130	,	-23909	,	86.09088	,	128
4,42	,	36185	,	-25114	,	-23886	,	70.91007	,	115
4,42	,	36201	,	-25112	,	-23891	,	54.58673	,	96
4,42	,	36217	,	-25112	,	-23886	,	39.488014	,	73
4,42	,	36249	,	-25123	,	-23899	,	26.851322	,	49
4,42	,	36265	,	-25125	,	-23883	,	16.939672	,	27
4,42	,	36281	,	-25122	,	-23894	,	9.509029	,	11
4,42	,	36313	,	-25143	,	-23895	,	4.1267014	,	2
4,42	,	36329	,	-25151	,	-23904	,	0.1536808	,	0
4,42	,	36361	,	-25162	,	-23908	,	-3.1412625	,	0
4,42	,	36377	,	-25158	,	-23898	,	-6.236045	,	0
4,42	,	36393	,	-25179	,	-23900	,	-9.264041	,	0
4,42	,	36425	,	-25193	,	-23895	,	-12.299382	,	0
4,42	,	36441	,	-25192	,	-23891	,	-15.450016	,	0
4,42	,	36457	,	-25204	,	-23908	,	-18.626696	,	0
4,42	,	36489	,	-25227	,	-23898	,	-21.65332	,	0
4,42	,	36505	,	-25209	,	-23919	,	-24.429548	,	0
4,42	,	36521	,	-25230	,	-23892	,	-26.720016	,	0
4,42	,	36553	,	-25227	,	-23914	,	-28.229202	,	0
4,42	,	36569	,	-25273	,	-23922	,	-29.02164	,	0
4,42	,	36601	,	-25273	,	-23924	,	-29.636505	,	0
4,42	,	36617	,	-25282	,	-23916	,	-30.591822	,	0
4,43	,	36633	,	-25303	,	-23926	,	-31.977036	,	0
4,43	,	36665	,	-25313	,	-23931	,	-33.698425	,	0
4,43	,	36681	,	-25334	,	-23951	,	-35.695908	,	0
4,43	,	36696	,	-25354	,	-23962	,	-37.940094	,	0
4,43	,	36729	,	-25332	,	-23944	,	-40.257484	,	0
4,43	,	36745	,	-25300	,	-23926	,	-41.84017	,	0
4,43	,	36777	,	-25212	,	-23908	,	-40.935173	,	0
4,43	,	36793	,	-25157	,	-23886	,	-35.204937	,	0
4,43	,	36809	,	-25102	,	-23872	,	-22.867039	,	5
4,43	,	36841	,	-25099	,	-23873	,	-3.958414	,	17
4,43	,	36856	,	-25084	,	-23847	,	19.310566	,	35
4,43	,	36872	,	-25077	,	-23864	,	43.42443	,	58
4,43	,	36905	,	-25070	,	-23834	,	64.90861	,	82
4,43	,	36921	,	-25077	,	-23845	,	81.13433	,	103
4,43	,	36953	,	-25077	,	-23850	,	90.53323	,	119
4,43	,	36969	,	-25088	,	-23845	,	92.623184	,	128
4,43	,	36985	,	-25089	,	-23843	,	87.90996	,	130
4,43	,	37016	,	-25087	,	-23839	,	77.720535	,	125
4,43	,	37032	,	-25085	,	-23853	,	63.959255	,	113
4,43	,	37048	,	-25095	,	-23858	,	48.65551	,	95
4,43	,	37081	,	-25089	,	-23851	,	33.52885	,	72
4,43	,	37097	,	-25106	,	-23862	,	19.807749	,	48
4,43	,	37113	,	-25115	,	-23877	,	8.125418	,	27
4,43	,	37145	,	-25118	,	-23871	,	-1.3973675	,	11
4,43	,	37160	,	-25142	,	-23892	,	-8.918431	,	2
4,43	,	37192	,	-25150	,	-23901	,	-14.820192	,	0
4,43	,	37209	,	-25175	,	-23893	,	-19.635664	,	0
4,43	,	37224	,	-25172	,	-23888	,	-23.803623	,	0
4,43	,	37257	,	-25186	,	-23907	,	-27.454548	,	0
4,43	,	37273	,	-25214	,	-23908	,	-30.57167	,	0
4,43	,	37289	,	-25216	,	-23904	,	-33.290684	,	0
4,43	,	37320	,	-25226	,	-23907	,	-35.71514	,	0
4,43	,	37336	,	-25243	,	-23909	,	-37.75039	,	0
4,43	,	37368	,	-25260	,	-23931	,	-39.358902	,	0
4,43	,	37385	,	-25262	,	-23915	,	-40.614677	,	0
4,43	,	37400	,	-25293	,	-23928	,	-41.578613	,	0
4,43	,	37432	,	-25302	,	-23929	,	-42.390385	,	0
4,43	,	37448	,	-25306	,	-23939	,	-43.17797	,	0
4,43	,	37464	,	-25309	,	-23945	,	-43.775948	,	0
4,43	,	37496	,	-25325	,	-23947	,	-43.856087	,	0
4,43	,	37512	,	-25336	,	-23941	,	-43.29264	,	0
4,43	,	37528	,	-25347	,	-23957	,	-42.225807	,	0
4,43	,	37560	,	-25328	,	-23936	,	-40.742096	,	1
4,43	,	37576	,	-25269	,	-23919	,	-38.29652	,	2
4,43	,	37608	,	-25228	,	-23904	,	-33.493126	,	4
4,44	,	37625	,	-25161	,	-23862	,	-24.719692	,	8
4,44	,	37640	,	-25113	,	-23848	,	-10.95681	,	16
4,44	,	37672	,	-25094	,	-23866	,	7.6422176	,	29
4,44	,	37688	,	-25094	,	-23849	,	29.32756	,	47
4,44	,	37704	,	-25094	,	-23858	,	51.05548	,	68
4,44	,	37736	,	-25089	,	-23867	,	69.59376	,	89
4,44	,	37752	,	-25120	,	-23880	,	82.42897	,	106
4,44	,	37784	,	-25141	,	-23877	,	87.92633	,	117
4,44	,	37801	,	-25140	,	-23870	,	85.49925	,	120
4,44	,	37816	,	-25145	,	-23873	,	75.99614	,	116
4,44	,	37848	,	-25152	,	-23890	,	61.435425	,	108
4,44	,	37864	,	-25124	,	-23847	,	44.361828	,	95
4,44	,	37880	,	-25112	,	-23865	,	27.516956	,	77
4,44	,	37912	,	-25126	,	-23870	,	13.240398	,	56
4,44	,	37928	,	-25134	,	-23864	,	2.6367836	,	35
4,44	,	37960	,	-25130	,	-23872	,	-4.3830194	,	17
4,44	,	37976	,	-25138	,	-23873	,	-8.407599	,	5
4,44	,	37993	,	-25161	,	-23879	,	-10.262396	,	0
4,44	,	38024	,	-25162	,	-23881	,	-10.9924755	,	0
4,44	,	38040	,	-25183	,	-23899	,	-11.553675	,	0
4,44	,	38056	,	-25214	,	-23908	,	-12.699617	,	0
4,44	,	38088	,	-25217	,	-23917	,	-15.034011	,	0
4,44	,	38104	,	-25231	,	-23886	,	-18.708801	,	0
4,44	,	38120	,	-25251	,	-23884	,	-23.362467	,	0
4,44	,	38152	,	-25254	,	-23922	,	-28.462074	,	0
4,44	,	38168	,	-25291	,	-23925	,	-33.5372	,	0
4,44	,	38200	,	-25284	,	-23935	,	-38.273808	,	0
4,44	,	38216	,	-25306	,	-23931	,	-42.386734	,	0
4,44	,	38232	,	-25305	,	-23951	,	-45.52725	,	0
4,44	,	38264	,	-25325	,	-23942	,	-47.44442	,	0
4,44	,	38280	,	-25331	,	-23953	,	-48.116035	,	0
4,44	,	38296	,	-25341	,	-23949	,	-47.706223	,	0
4,44	,	38328	,	-25316	,	-23955	,	-46.27269	,	0
4,44	,	38344	,	-25275	,	-23905	,	-43.336205	,	1
4,44	,	38376	,	-25133	,	-23865	,	-37.34396	,	3
4,44	,	38392	,	-25107	,	-23851	,	-25.868134	,	8
4,44	,	38408	,	-25089	,	-23841	,	-7.6368027	,	19
4,44	,	38440	,	-25088	,	-23854	,	15.757444	,	37
4,44	,	38456	,	-25066	,	-23842	,	40.74276	,	60
4,44	,	38472	,	-25089	,	-23849	,	63.51649	,	84
4,44	,	38504	,	-25077	,	-23854	,	80.95278	,	106
4,44	,	38520	,	-25085	,	-23858	,	91.12842	,	123
4,44	,	38536	,	-25100	,	-23847	,	93.49975	,	132
4,44	,	38568	,	-25119	,	-23862	,	88.5034	,	132
4,44	,	38584	,	-25110	,	-23839	,	77.30837	,	127
4,45	,	38616	,	-25092	,	-23856	,	61.966324	,	116
4,45	,	38632	,	-25075	,	-23848	,	45.230537	,	98
4,45	,	38648	,	-25096	,	-23833	,	29.663181	,	75
4,45	,	38680	,	-25089	,	-23856	,	16.750643	,	51
4,45	,	38696	,	-25083	,	-23840	,	6.9825706	,	29
4,45	,	38712	,	-25107	,	-23862	,	0.2909212	,	12
4,45	,	38744	,	-25109	,	-23875	,	-3.9228587	,	2
4,45	,	38760	,	-25118	,	-23864	,	-6.55436	,	0
4,45	,	38792	,	-25127	,	-23868	,	-8.366418	,	0
4,45	,	38808	,	-25153	,	-23890	,	-9.986273	,	0
4,45	,	38824	,	-25163	,	-23860	,	-12.019241	,	0
4,45	,	38856	,	-25206	,	-23886	,	-15.008198	,	0
4,45	,	38872	,	-25220	,	-23909	,	-19.393818	,	0
4,45	,	38888	,	-25206	,	-23892	,	-25.13934	,	0
4,45	,	38920	,	-25243	,	-23901	,	-31.475365	,	0
4,45	,	38936	,	-25242	,	-23908	,	-37.498108	,	0
4,45	,	38952	,	-25244	,	-23910	,	-42.534218	,	0
4,45	,	38984	,	-25252	,	-23916	,	-45.969673	,	0
4,45	,	39000	,	-25277	,	-23924	,	-47.50792	,	0
4,45	,	39032	,	-25288	,	-23916	,	-47.459908	,	0
4,45	,	39048	,	-25305	,	-23946	,	-46.473522	,	0
4,45	,	39064	,	-25302	,	-23915	,	-45.073048	,	0
4,45	,	39096	,	-25280	,	-23912	,	-43.287548	,	1
4,45	,	39112	,	-25187	,	-23881	,	-40.173355	,	2
4,45	,	39128	,	-25128	,	-23843	,	-33.67132	,	5
4,45	,	39160	,	-25078	,	-23850	,	-21.709417	,	11
4,45	,	39176	,	-25057	,	-23840	,	-3.7809334	,	22
4,45	,	39208	,	-25046	,	-23824	,	18.523663	,	39
4,45	,	39224	,	-25022	,	-23827	,	42.227905	,	61
4,45	,	39240	,	-25000	,	-23828	,	64.26453	,	84
4,45	,	39272	,	-25027	,	-23819	,	82.176254	,	106
4,45	,	39288	,	-25004	,	-23838	,	94.1079	,	122
4,45	,	39304	,	-25019	,	-23799	,	99.093994	,	132
4,45	,	39336	,	-25050	,	-23831	,	97.098114	,	133
4,45	,	39352	,	-25042	,	-23814	,	88.65159	,	127
4,45	,	39383	,	-25030	,	-23810	,	75.10953	,	116
4,45	,	39400	,	-25019	,	-23810	,	58.795845	,	99
4,45	,	39416	,	-25011	,	-23816	,	42.300087	,	77
4,45	,	39448	,	-25020	,	-23807	,	27.642292	,	54
4,45	,	39464	,	-25042	,	-23808	,	15.75544	,	32
4,45	,	39480	,	-25026	,	-23814	,	6.6101227	,	15
4,45	,	39512	,	-25032	,	-23828	,	-0.078531265	,	4
4,45	,	39528	,	-25064	,	-23842	,	-4.6723504	,	0
4,45	,	39544	,	-25078	,	-23821	,	-7.9817023	,	0
4,45	,	39575	,	-25078	,	-23838	,	-10.958688	,	0
4,45	,	39592	,	-25106	,	-23846	,	-14.126342	,	0
4,46	,	39624	,	-25101	,	-23846	,	-17.617273	,	0
4,46	,	39640	,	-25136	,	-23860	,	-21.388971	,	0
4,46	,	39656	,	-25144	,	-23854	,	-25.39961	,	0
4,46	,	39688	,	-25152	,	-23874	,	-29.58584	,	0
4,46	,	39704	,	-25146	,	-23876	,	-33.570274	,	0
4,46	,	39719	,	-25188	,	-23881	,	-36.847534	,	0
4,46	,	39752	,	-25169	,	-23867	,	-39.22535	,	0
4,46	,	39768	,	-25206	,	-23885	,	-40.728703	,	0
4,46	,	39799	,	-25213	,	-23866	,	-41.513542	,	0
4,46	,	39815	,	-25246	,	-23893	,	-41.99035	,	0
4,46	,	39832	,	-25240	,	-23900	,	-42.58435	,	0
4,46	,	39864	,	-25278	,	-23907	,	-43.465893	,	0
4,46	,	39880	,	-25276	,	-23900	,	-44.638935	,	0
4,46	,	39895	,	-25235	,	-23888	,	-45.705322	,	0
4,46	,	39927	,	-25160	,	-23853	,	-45.17829	,	0
4,46	,	39943	,	-25096	,	-23845	,	-40.593254	,	0
4,46	,	39959	,	-25037	,	-23820	,	-29.74943	,	4
4,46	,	39991	,	-25010	,	-23802	,	-12.005489	,	14
4,46	,	40008	,	-25022	,	-23826	,	11.054228	,	31
4,46	,	40039	,	-25009	,	-23781	,	35.957897	,	54
4,46	,	40055	,	-24983	,	-23809	,	58.89025	,	78
4,46	,	40071	,	-24993	,	-23792	,	77.097595	,	100
4,46	,	40103	,	-24998	,	-23791	,	88.94374	,	118
4,46	,	40119	,	-25024	,	-23809	,	93.5188	,	129
4,46	,	40135	,	-25016	,	-23804	,	90.712456	,	133
4,46	,	40167	,	-24983	,	-23800	,	81.66722	,	129
4,46	,	40183	,	-24983	,	-23785	,	68.79459	,	119
4,46	,	40215	,	-24987	,	-23795	,	54.712547	,	102
4,46	,	40231	,	-24979	,	-23782	,	41.263134	,	79
4,46	,	40247	,	-24951	,	-23800	,	29.66357	,	55
4,46	,	40279	,	-24999	,	-23764	,	20.64141	,	33
4,46	,	40295	,	-25020	,	-23814	,	13.848169	,	15
4,46	,	40311	,	-24993	,	-23813	,	8.206942	,	4
4,46	,	40343	,	-24990	,	-23815	,	3.2611876	,	0
4,46	,	40359	,	-25035	,	-23816	,	-0.8705759	,	0
4,46	,	40375	,	-25046	,	-23831	,	-4.555022	,	0
4,46	,	40407	,	-25065	,	-23835	,	-8.557661	,	0
4,46	,	40423	,	-25069	,	-23826	,	-13.2813425	,	0
4,46	,	40455	,	-25087	,	-23829	,	-18.586388	,	0
4,46	,	40471	,	-25095	,	-23844	,	-24.053432	,	0
4,46	,	40487	,	-25105	,	-23862	,	-29.210651	,	0
4,46	,	40519	,	-25112	,	-23838	,	-33.615944	,	0
4,46	,	40535	,	-25117	,	-23871	,	-36.90136	,	0
4,46	,	40551	,	-25156	,	-23876	,	-38.98205	,	0
4,46	,	40583	,	-25171	,	-23874	,	-40.29451	,	0
4,46	,	40599	,	-25182	,	-23862	,	-41.4841	,	0
4,47	,	40631	,	-25176	,	-23896	,	-42.75879	,	0
4,47	,	40647	,	-25193	,	-23875	,	-43.7949	,	0
4,47	,	40663	,	-25202	,	-23881	,	-44.22016	,	0
4,47	,	40695	,	-25199	,	-23873	,	-43.871956	,	0
4,47	,	40711	,	-25130	,	-23842	,	-42.281147	,	0
4,47	,	40727	,	-25079	,	-23834	,	-38.076405	,	1
4,47	,	40759	,	-25035	,	-23802	,	-29.534046	,	5
4,47	,	40775	,	-25012	,	-23804	,	-15.883217	,	13
4,47	,	40791	,	-24982	,	-23796	,	2.0992966	,	26
4,47	,	40823	,	-24997	,	-23780	,	22.341812	,	43
4,47	,	40839	,	-24986	,	-23799	,	42.001297	,	63
4,47	,	40871	,	-24977	,	-23797	,	58.365356	,	82
4,47	,	40887	,	-25020	,	-23807	,	69.503265	,	98
4,47	,	40903	,	-25027	,	-23804	,	74.12819	,	109
4,47	,	40935	,	-25035	,	-23809	,	71.76281	,	112
4,47	,	40951	,	-25017	,	-23806	,	63.284237	,	108
4,47	,	40967	,	-24980	,	-23812	,	50.96659	,	100
4,47	,	40999	,	-24996	,	-23775	,	37.72961	,	87
4,47	,	41015	,	-25004	,	-23799	,	25.776482	,	70
4,47	,	41047	,	-25015	,	-23793	,	15.914629	,	50
4,47	,	41063	,	-25013	,	-23805	,	8.09507	,	31
4,47	,	41079	,	-25017	,	-23813	,	2.085289	,	15
4,47	,	41111	,	-25041	,	-23819	,	-2.4320517	,	4
4,47	,	41127	,	-25050	,	-23818	,	-6.0220394	,	0
4,47	,	41143	,	-25060	,	-23818	,	-9.308993	,	0
4,47	,	41175	,	-25070	,	-23841	,	-12.639685	,	0
4,47	,	41191	,	-25089	,	-23836	,	-16.11866	,	0
4,47	,	41223	,	-25093	,	-23847	,	-19.754858	,	0
4,47	,	41239	,	-25114	,	-23823	,	-23.457857	,	0
4,47	,	41255	,	-25138	,	-23873	,	-27.161955	,	0
4,47	,	41287	,	-25137	,	-23848	,	-30.885231	,	0
4,47	,	41303	,	-25151	,	-23872	,	-34.472614	,	0
4,47	,	41319	,	-25157	,	-23861	,	-37.56345	,	0
4,47	,	41351	,	-25164	,	-23854	,	-39.81717	,	0
4,47	,	41367	,	-25182	,	-23875	,	-41.054092	,	0
4,47	,	41383	,	-25191	,	-23861	,	-41.3546	,	0
4,47	,	41415	,	-25194	,	-23876	,	-40.941853	,	0
4,47	,	41431	,	-25196	,	-23881	,	-39.921677	,	0
4,47	,	41463	,	-25179	,	-23866	,	-38.16685	,	1
4,47	,	41479	,	-25123	,	-23827	,	-35.09497	,	2
4,47	,	41495	,	-25023	,	-23801	,	-29.235262	,	5
4,47	,	41527	,	-25001	,	-23786	,	-18.63619	,	10
4,47	,	41543	,	-24972	,	-23788	,	-2.5188522	,	20
4,47	,	41559	,	-24963	,	-23783	,	17.766964	,	36
4,47	,	41591	,	-24960	,	-23760	,	39.412624	,	56
4,47	,	41607	,	-24963	,	-23776	,	59.209675	,	77
4,48	,	41639	,	-24936	,	-23773	,	74.53061	,	96
4,48	,	41655	,	-24952	,	-23779	,	83.98137	,	110
4,48	,	41671	,	-24982	,	-23792	,	87.05771	,	118
4,48	,	41703	,	-24982	,	-23795	,	83.654945	,	118
4,48	,	41719	,	-24981	,	-23767	,	74.4241	,	113
4,48	,	41735	,	-24951	,	-23772	,	61.161446	,	103
4,48	,	41766	,	-24940	,	-23765	,	46.472794	,	87
4,48	,	41783	,	-24948	,	-23767	,	32.81737	,	67
4,48	,	41799	,	-24979	,	-23768	,	21.46495	,	46
4,48	,	41831	,	-24991	,	-23770	,	12.2876625	,	27
4,48	,	41847	,	-24989	,	-23786	,	4.5911045	,	12
4,48	,	41879	,	-24987	,	-23787	,	-1.9823704	,	3
4,48	,	41895	,	-24991	,	-23799	,	-7.3385353	,	0
4,48	,	41911	,	-25010	,	-23800	,	-11.387289	,	0
4,48	,	41942	,	-25037	,	-23813	,	-14.454578	,	0
4,48	,	41958	,	-25039	,	-23790	,	-17.191547	,	0
4,48	,	41975	,	-25071	,	-23820	,	-20.145845	,	0
4,48	,	42007	,	-25092	,	-23827	,	-23.68071	,	0
4,48	,	42023	,	-25091	,	-23810	,	-27.955103	,	0
4,48	,	42055	,	-25115	,	-23837	,	-32.70117	,	0
4,48	,	42071	,	-25116	,	-23840	,	-37.365738	,	0
4,48	,	42087	,	-25123	,	-23857	,	-41.35958	,	0
4,48	,	42119	,	-25135	,	-23852	,	-44.166565	,	0
4,48	,	42135	,	-25154	,	-23851	,	-45.58999	,	0
4,48	,	42151	,	-25166	,	-23820	,	-45.851967	,	0
4,48	,	42183	,	-25176	,	-23877	,	-45.35116	,	0
4,48	,	42199	,	-25176	,	-23857	,	-44.35434	,	0
4,48	,	42215	,	-25172	,	-23861	,	-42.836803	,	0
4,48	,	42247	,	-25119	,	-23836	,	-40.307266	,	1
4,48	,	42263	,	-25054	,	-23808	,	-35.520245	,	3
4,48	,	42294	,	-24988	,	-23795	,	-26.682486	,	7
4,48	,	42310	,	-24957	,	-23776	,	-12.502594	,	15
4,48	,	42326	,	-24943	,	-23768	,	6.6765995	,	29
4,48	,	42359	,	-24934	,	-23760	,	28.688866	,	48
4,48	,	42375	,	-24904	,	-23751	,	50.529163	,	70
4,48	,	42390	,	-24894	,	-23750	,	69.5896	,	91
4,48	,	42423	,	-24882	,	-23746	,	84.138535	,	110
4,48	,	42438	,	-24897	,	-23744	,	93.13805	,	123
4,48	,	42470	,	-24900	,	-23745	,	96.02991	,	129
4,48	,	42486	,	-24926	,	-23748	,	92.727	,	127
4,48	,	42502	,	-24898	,	-23734	,	83.83443	,	119
4,48	,	42534	,	-24890	,	-23740	,	70.95665	,	105
4,48	,	42550	,	-24887	,	-23742	,	56.38032	,	86
4,48	,	42566	,	-24882	,	-23734	,	42.185062	,	64
4,48	,	42598	,	-24886	,	-23750	,	29.739002	,	43
4,48	,	42614	,	-24913	,	-23748	,	19.548786	,	24
4,49	,	42646	,	-24902	,	-23750	,	11.375406	,	10
4,49	,	42662	,	-24945	,	-23756	,	4.6614876	,	2
4,49	,	42678	,	-24921	,	-23753	,	-1.1618538	,	0
4,49	,	42710	,	-24949	,	-23777	,	-6.4053206	,	0
4,49	,	42727	,	-24966	,	-23787	,	-11.183256	,	0
4,49	,	42742	,	-25009	,	-23789	,	-15.880333	,	0
4,49	,	42774	,	-24998	,	-23794	,	-21.017776	,	0
4,49	,	42790	,	-25031	,	-23803	,	-26.6757	,	0
4,49	,	42806	,	-25026	,	-23808	,	-32.463924	,	0
4,49	,	42839	,	-25049	,	-23813	,	-37.8412	,	0
4,49	,	42854	,	-25058	,	-23811	,	-42.343273	,	0
4,49	,	42886	,	-25063	,	-23826	,	-45.67637	,	0
4,49	,	42902	,	-25081	,	-23824	,	-47.6779	,	0
4,49	,	42918	,	-25102	,	-23825	,	-48.430916	,	0
4,49	,	42950	,	-25127	,	-23833	,	-48.394775	,	0
4,49	,	42966	,	-25123	,	-23849	,	-48.113586	,	0
4,49	,	42982	,	-25143	,	-23844	,	-47.802193	,	0
4,49	,	43014	,	-25154	,	-23855	,	-47.41188	,	0
4,49	,	43030	,	-25166	,	-23862	,	-46.90999	,	0
4,49	,	43062	,	-25190	,	-23857	,	-46.3544	,	0
4,49	,	43078	,	-25176	,	-23854	,	-45.787617	,	0
4,49	,	43094	,	-25137	,	-23834	,	-44.76059	,	0
4,49	,	43126	,	-25068	,	-23808	,	-41.86769	,	1
4,49	,	43142	,	-25005	,	-23780	,	-35.040333	,	3
4,49	,	43158	,	-24952	,	-23762	,	-22.555416	,	9
4,49	,	43190	,	-24909	,	-23750	,	-4.0205345	,	21
4,49	,	43206	,	-24891	,	-23746	,	19.278143	,	39
4,49	,	43222	,	-24890	,	-23740	,	44.593513	,	62
4,49	,	43254	,	-24894	,	-23739	,	68.354706	,	87
4,49	,	43270	,	-24880	,	-23734	,	87.24093	,	110
4,49	,	43302	,	-24897	,	-23750	,	99.09775	,	128
4,49	,	43318	,	-24901	,	-23750	,	103.058975	,	138
4,49	,	43334	,	-24898	,	-23748	,	99.381035	,	139
4,49	,	43366	,	-24892	,	-23729	,	89.41816	,	133
4,49	,	43382	,	-24880	,	-23730	,	75.348976	,	121
4,49	,	43398	,	-24870	,	-23733	,	59.6448	,	103
4,49	,	43430	,	-24872	,	-23735	,	44.497147	,	80
4,49	,	43446	,	-24892	,	-23749	,	31.259323	,	55
4,49	,	43478	,	-24898	,	-23750	,	20.256878	,	32
4,49	,	43494	,	-24913	,	-23741	,	11.17544	,	14
4,49	,	43510	,	-24918	,	-23762	,	3.560916	,	3
4,49	,	43542	,	-24948	,	-23772	,	-3.032628	,	0
4,49	,	43558	,	-24952	,	-23769	,	-9.06685	,	0
4,49	,	43574	,	-24960	,	-23766	,	-14.805633	,	0
4,49	,	43606	,	-24994	,	-23780	,	-20.257017	,	0
4,50	,	43622	,	-24997	,	-23773	,	-25.464005	,	0
4,50	,	43654	,	-25020	,	-23785	,	-30.474306	,	0
4,50	,	43670	,	-25061	,	-23796	,	-35.338123	,	0
4,50	,	43686	,	-25057	,	-23812	,	-40.22893	,	0
4,50	,	43718	,	-25066	,	-23813	,	-45.01835	,	0
4,50	,	43734	,	-25085	,	-23822	,	-49.145134	,	0
4,50	,	43750	,	-25085	,	-23825	,	-52.10264	,	0
4,50	,	43782	,	-25093	,	-23815	,	-53.580017	,	0
4,50	,	43799	,	-25121	,	-23830	,	-53.500088	,	0
4,50	,	43814	,	-25119	,	-23845	,	-52.171265	,	0
4,50	,	43846	,	-25141	,	-23854	,	-50.07103	,	1
4,50	,	43862	,	-25161	,	-23835	,	-47.6855	,	3
4,50	,	43894	,	-25162	,	-23840	,	-45.492992	,	5
4,50	,	43910	,	-25175	,	-23849	,	-43.718826	,	7
4,50	,	43926	,	-25201	,	-23861	,	-42.384956	,	8
4,50	,	43958	,	-25225	,	-23860	,	-41.67301	,	9
4,50	,	43974	,	-25163	,	-23833	,	-41.52323	,	9
4,50	,	43990	,	-25090	,	-23808	,	-40.528015	,	9
4,50	,	44022	,	-25014	,	-23794	,	-35.91465	,	9
4,50	,	44038	,	-24988	,	-23778	,	-25.226877	,	12
4,50	,	44070	,	-24953	,	-23779	,	-7.997875	,	20
4,50	,	44086	,	-24972	,	-23773	,	13.904739	,	35
4,50	,	44102	,	-24970	,	-23761	,	36.972675	,	54
4,50	,	44134	,	-24956	,	-23766	,	57.427727	,	76
4,50	,	44150	,	-24915	,	-23758	,	72.80231	,	95
4,50	,	44166	,	-24956	,	-23779	,	82.26462	,	110
4,50	,	44197	,	-24972	,	-23771	,	85.51544	,	119
4,50	,	44213	,	-24990	,	-23774	,	82.29544	,	122
4,50	,	44230	,	-24938	,	-23755	,	73.27086	,	118
4,50	,	44262	,	-24966	,	-23765	,	60.488716	,	108
4,50	,	44278	,	-24934	,	-23761	,	46.43808	,	91
4,50	,	44310	,	-24927	,	-23754	,	33.230087	,	70
4,50	,	44326	,	-24951	,	-23770	,	22.301239	,	47
4,50	,	44342	,	-24948	,	-23750	,	14.029745	,	27
4,50	,	44374	,	-24966	,	-23773	,	7.946084	,	12
4,50	,	44390	,	-24997	,	-23784	,	3.198309	,	3
4,50	,	44406	,	-25029	,	-23790	,	-1.3597574	,	0
4,50	,	44438	,	-25033	,	-23795	,	-6.769449	,	0
4,50	,	44453	,	-25048	,	-23802	,	-13.341392	,	0
4,50	,	44485	,	-25056	,	-23801	,	-20.619278	,	0
4,50	,	44502	,	-25078	,	-23817	,	-27.875849	,	0
4,50	,	44518	,	-25081	,	-23824	,	-34.483917	,	0
4,50	,	44550	,	-25083	,	-23817	,	-39.895836	,	0
4,50	,	44566	,	-25093	,	-23843	,	-43.603226	,	0
4,50	,	44582	,	-25125	,	-23806	,	-45.467888	,	0
4,50	,	44613	,	-25127	,	-23857	,	-45.919106	,	0
4,51	,	44629	,	-25147	,	-23829	,	-45.56738	,	0
4,51	,	44646	,	-25151	,	-23863	,	-44.833252	,	0
4,51	,	44678	,	-25158	,	-23847	,	-43.895466	,	0
4,51	,	44694	,	-25178	,	-23857	,	-42.796257	,	0
4,51	,	44725	,	-25204	,	-23877	,	-41.72648	,	1
4,51	,	44741	,	-25197	,	-23867	,	-41.005352	,	2
4,51	,	44757	,	-25200	,	-23865	,	-40.604042	,	2
4,51	,	44789	,	-25221	,	-23872	,	-40.148163	,	2
4,51	,	44805	,	-25190	,	-23866	,	-39.263344	,	2
4,51	,	44822	,	-25129	,	-23832	,	-37.16318	,	2
4,51	,	44853	,	-25027	,	-23813	,	-31.997927	,	4
4,51	,	44869	,	-25028	,	-23795	,	-21.624245	,	9
4,51	,	44901	,	-25017	,	-23802	,	-5.630974	,	19
4,51	,	44918	,	-25029	,	-23814	,	13.859639	,	33
4,51	,	44933	,	-24987	,	-23799	,	33.600483	,	51
4,51	,	44965	,	-25025	,	-23804	,	50.76779	,	70
4,51	,	44981	,	-25025	,	-23805	,	63.196186	,	87
4,51	,	44997	,	-25042	,	-23810	,	69.3813	,	99
4,51	,	45029	,	-25070	,	-23827	,	68.77173	,	105
4,51	,	45045	,	-25059	,	-23832	,	61.814003	,	103
4,51	,	45077	,	-25058	,	-23806	,	50.01548	,	98
4,51	,	45094	,	-25036	,	-23813	,	35.78401	,	88
4,51	,	45109	,	-25047	,	-23812	,	21.66991	,	73
4,51	,	45141	,	-25051	,	-23817	,	9.506674	,	54
4,51	,	45157	,	-25066	,	-23828	,	0.039888382	,	35
4,51	,	45173	,	-25064	,	-23819	,	-6.793749	,	18
4,51	,	45205	,	-25074	,	-23826	,	-11.386797	,	6
4,51	,	45221	,	-25092	,	-23838	,	-14.281912	,	0
4,51	,	45237	,	-25109	,	-23840	,	-16.21997	,	0
4,51	,	45269	,	-25108	,	-23846	,	-17.918243	,	0
4,51	,	45285	,	-25136	,	-23870	,	-19.778198	,	0
4,51	,	45317	,	-25134	,	-23834	,	-21.95453	,	0
4,51	,	45333	,	-25158	,	-23853	,	-24.461075	,	0
4,51	,	45349	,	-25177	,	-23872	,	-27.269558	,	0
4,51	,	45381	,	-25205	,	-23866	,	-30.482006	,	0
4,51	,	45397	,	-25193	,	-23876	,	-34.13192	,	0
4,51	,	45413	,	-25204	,	-23893	,	-37.78887	,	0
4,51	,	45445	,	-25242	,	-23876	,	-40.878857	,	0
4,51	,	45461	,	-25243	,	-23884	,	-43.302116	,	0
4,51	,	45493	,	-25243	,	-23896	,	-45.1349	,	0
4,51	,	45509	,	-25258	,	-23890	,	-46.169563	,	0
4,51	,	45525	,	-25259	,	-23924	,	-46.16938	,	0
4,51	,	45557	,	-25288	,	-23889	,	-45.18637	,	0
4,51	,	45573	,	-25283	,	-23901	,	-43.55426	,	0
4,51	,	45589	,	-25253	,	-23891	,	-41.406517	,	1
4,52	,	45621	,	-25175	,	-23866	,	-37.905872	,	3
4,52	,	45637	,	-25122	,	-23844	,	-31.200356	,	6
4,52	,	45653	,	-25070	,	-23837	,	-19.52762	,	12
4,52	,	45685	,	-25049	,	-23818	,	-2.4839134	,	23
4,52	,	45701	,	-25044	,	-23830	,	18.494732	,	40
4,52	,	45733	,	-25036	,	-23817	,	40.562256	,	60
4,52	,	45749	,	-24998	,	-23818	,	60.693268	,	82
4,52	,	45765	,	-25028	,	-23817	,	76.66606	,	102
4,52	,	45797	,	-25030	,	-23790	,	86.91905	,	116
4,52	,	45813	,	-25057	,	-23805	,	90.35105	,	124
4,52	,	45829	,	-25066	,	-23829	,	86.64698	,	124
4,52	,	45861	,	-25061	,	-23827	,	76.56636	,	118
4,52	,	45877	,	-25042	,	-23822	,	62.03001	,	107
4,52	,	45909	,	-25031	,	-23814	,	45.750443	,	90
4,52	,	45925	,	-25022	,	-23801	,	30.39349	,	70
4,52	,	45941	,	-25055	,	-23821	,	17.681467	,	48
4,52	,	45973	,	-25046	,	-23811	,	8.013376	,	28
4,52	,	45989	,	-25056	,	-23816	,	1.0086393	,	13
4,52	,	46005	,	-25062	,	-23851	,	-3.854823	,	3
4,52	,	46037	,	-25074	,	-23809	,	-7.165347	,	0
4,52	,	46053	,	-25098	,	-23859	,	-9.634592	,	0
4,52	,	46069	,	-25109	,	-23844	,	-12.020694	,	0
4,52	,	46101	,	-25118	,	-23844	,	-14.860596	,	0
4,52	,	46117	,	-25156	,	-23849	,	-18.38436	,	0
4,52	,	46149	,	-25155	,	-23856	,	-22.699287	,	0
4,52	,	46165	,	-25159	,	-23841	,	-27.596394	,	0
4,52	,	46181	,	-25198	,	-23866	,	-32.53611	,	0
4,52	,	46213	,	-25186	,	-23890	,	-37.10207	,	0
4,52	,	46229	,	-25182	,	-23891	,	-40.854134	,	0
4,52	,	46245	,	-25214	,	-23897	,	-43.220264	,	0
4,52	,	46277	,	-25238	,	-23884	,	-44.172813	,	0
4,52	,	46293	,	-25261	,	-23896	,	-44.40806	,	0
4,52	,	46325	,	-25280	,	-23912	,	-44.745094	,	0
4,52	,	46341	,	-25260	,	-23902	,	-45.502045	,	0
4,52	,	46357	,	-25285	,	-23909	,	-46.295258	,	0
4,52	,	46389	,	-25313	,	-23926	,	-46.689686	,	0
4,52	,	46405	,	-25303	,	-23915	,	-46.70308	,	0
4,52	,	46421	,	-25290	,	-23908	,	-46.2211	,	0
4,52	,	46453	,	-25227	,	-23883	,	-44.352383	,	0
4,52	,	46469	,	-25132	,	-23861	,	-39.261806	,	1
4,52	,	46500	,	-25082	,	-23832	,	-28.684603	,	6
4,52	,	46517	,	-25040	,	-23802	,	-11.404308	,	16
4,52	,	46533	,	-25018	,	-23812	,	11.672199	,	33
4,52	,	46565	,	-25012	,	-23813	,	37.77864	,	56
4,52	,	46581	,	-25007	,	-23797	,	63.227524	,	82
4,52	,	46597	,	-24983	,	-23806	,	84.59915	,	107
4,53	,	46629	,	-24991	,	-23800	,	99.65015	,	128
4,53	,	46645	,	-25010	,	-23794	,	107.25168	,	143
4,53	,	46661	,	-25028	,	-23796	,	106.960464	,	149
4,53	,	46692	,	-25019	,	-23799	,	99.167465	,	144
4,53	,	46709	,	-25003	,	-23781	,	85.498215	,	134
4,53	,	46741	,	-25006	,	-23817	,	68.54396	,	117
4,53	,	46757	,	-24980	,	-23777	,	51.032013	,	94
4,53	,	46773	,	-25003	,	-23800	,	35.14323	,	68
4,53	,	46805	,	-24991	,	-23801	,	22.095886	,	43
4,53	,	46821	,	-25013	,	-23816	,	12.139175	,	22
4,53	,	46837	,	-25037	,	-23814	,	4.775717	,	7
4,53	,	46868	,	-25037	,	-23807	,	-0.9433031	,	0
4,53	,	46884	,	-25049	,	-23825	,	-5.82342	,	0
4,53	,	46917	,	-25077	,	-23837	,	-10.323292	,	0
4,53	,	46933	,	-25074	,	-23839	,	-14.768831	,	0
4,53	,	46949	,	-25100	,	-23841	,	-19.287725	,	0
4,53	,	46981	,	-25091	,	-23871	,	-23.735628	,	0
4,53	,	46996	,	-25119	,	-23828	,	-27.817318	,	0
4,53	,	47013	,	-25145	,	-23855	,	-31.40653	,	0
4,53	,	47044	,	-25184	,	-23866	,	-34.863586	,	0
4,53	,	47060	,	-25164	,	-23857	,	-38.634968	,	0
4,53	,	47076	,	-25172	,	-23868	,	-42.463223	,	0
4,53	,	47109	,	-25200	,	-23891	,	-45.591953	,	0
4,53	,	47125	,	-25203	,	-23884	,	-47.619804	,	0
4,53	,	47156	,	-25193	,	-23885	,	-48.450737	,	0
4,53	,	47172	,	-25199	,	-23876	,	-47.838383	,	0
4,53	,	47188	,	-25227	,	-23908	,	-45.703224	,	0
4,53	,	47221	,	-25250	,	-23924	,	-42.64447	,	2
4,53	,	47236	,	-25267	,	-23886	,	-39.716393	,	5
4,53	,	47252	,	-25291	,	-23905	,	-37.825626	,	7
4,53	,	47284	,	-25291	,	-23916	,	-37.38627	,	8
4,53	,	47300	,	-25252	,	-23890	,	-37.9644	,	8
4,53	,	47332	,	-25163	,	-23869	,	-37.780895	,	8
4,53	,	47348	,	-25109	,	-23823	,	-33.9765	,	8
4,53	,	47365	,	-25047	,	-23810	,	-24.052397	,	11
4,53	,	47396	,	-25030	,	-23823	,	-7.3057613	,	20
4,53	,	47412	,	-25012	,	-23814	,	14.74604	,	34
4,53	,	47428	,	-24994	,	-23810	,	39.022167	,	53
4,53	,	47460	,	-24992	,	-23820	,	62.077934	,	75
4,53	,	47476	,	-24969	,	-23771	,	81.04768	,	97
4,53	,	47492	,	-24977	,	-23800	,	94.10779	,	115
4,53	,	47524	,	-25016	,	-23803	,	100.25536	,	128
4,53	,	47540	,	-25020	,	-23801	,	98.92229	,	134
4,53	,	47572	,	-25026	,	-23799	,	90.37259	,	131
4,53	,	47588	,	-25014	,	-23787	,	76.14433	,	122
4,53	,	47604	,	-24992	,	-23801	,	58.798958	,	106
4,54	,	47636	,	-24991	,	-23792	,	41.242718	,	84
4,54	,	47652	,	-25009	,	-23790	,	25.736938	,	60
4,54	,	47668	,	-24988	,	-23793	,	13.366329	,	37
4,54	,	47700	,	-25019	,	-23816	,	4.332884	,	19
4,54	,	47716	,	-25026	,	-23787	,	-1.8374901	,	6
4,54	,	47748	,	-25063	,	-23808	,	-6.211061	,	0
4,54	,	47764	,	-25082	,	-23814	,	-10.084751	,	0
4,54	,	47780	,	-25081	,	-23811	,	-14.418188	,	0
4,54	,	47812	,	-25097	,	-23837	,	-19.385847	,	0
4,54	,	47828	,	-25109	,	-23847	,	-24.604378	,	0
4,54	,	47844	,	-25110	,	-23823	,	-29.573544	,	0
4,54	,	47876	,	-25118	,	-23848	,	-33.76279	,	0
4,54	,	47892	,	-25134	,	-23857	,	-36.762215	,	0
4,54	,	47924	,	-25154	,	-23852	,	-38.55648	,	0
4,54	,	47940	,	-25188	,	-23872	,	-39.607395	,	0
4,54	,	47956	,	-25173	,	-23857	,	-40.510338	,	0
4,54	,	47988	,	-25202	,	-23855	,	-41.470673	,	0
4,54	,	48004	,	-25204	,	-23870	,	-42.356842	,	0
4,54	,	48021	,	-25224	,	-23872	,	-43.052734	,	0
4,54	,	48052	,	-25234	,	-23871	,	-43.52662	,	0
4,54	,	48068	,	-25245	,	-23885	,	-43.785126	,	0
4,54	,	48084	,	-25246	,	-23887	,	-43.764954	,	0
4,54	,	48116	,	-25269	,	-23887	,	-43.349533	,	0
4,54	,	48132	,	-25280	,	-23898	,	-42.594994	,	0
4,54	,	48164	,	-25256	,	-23898	,	-41.563396	,	0
4,54	,	48180	,	-25209	,	-23884	,	-39.66634	,	1
4,54	,	48196	,	-25145	,	-23825	,	-35.40072	,	2
4,54	,	48228	,	-25047	,	-23807	,	-26.727034	,	6
4,54	,	48244	,	-25024	,	-23802	,	-11.983025	,	14
4,54	,	48260	,	-25030	,	-23792	,	8.589703	,	28
4,54	,	48292	,	-25026	,	-23795	,	32.213303	,	48
4,54	,	48308	,	-25023	,	-23789	,	54.927246	,	71
4,54	,	48340	,	-25020	,	-23790	,	73.3224	,	93
4,54	,	48356	,	-25023	,	-23810	,	85.2844	,	111
4,54	,	48372	,	-25073	,	-23811	,	89.79129	,	121
4,54	,	48404	,	-25064	,	-23819	,	86.55493	,	124
4,54	,	48420	,	-25082	,	-23840	,	76.290405	,	120
4,54	,	48436	,	-25061	,	-23798	,	60.931007	,	112
4,54	,	48468	,	-25037	,	-23803	,	43.299973	,	98
4,54	,	48484	,	-25038	,	-23808	,	26.436737	,	78
4,54	,	48500	,	-25053	,	-23811	,	12.529619	,	55
4,54	,	48532	,	-25053	,	-23809	,	2.328289	,	33
4,54	,	48548	,	-25055	,	-23805	,	-4.3969164	,	15
4,54	,	48580	,	-25063	,	-23820	,	-8.249187	,	4
4,54	,	48596	,	-25075	,	-23825	,	-10.035114	,	0
4,54	,	48612	,	-25101	,	-23830	,	-10.766514	,	0
4,55	,	48644	,	-25106	,	-23835	,	-11.49415	,	0
4,55	,	48660	,	-25122	,	-23852	,	-12.941025	,	0
4,55	,	48676	,	-25136	,	-23831	,	-15.357232	,	0
4,55	,	48708	,	-25171	,	-23843	,	-18.794102	,	0
4,55	,	48724	,	-25165	,	-23849	,	-23.227446	,	0
4,55	,	48756	,	-25205	,	-23845	,	-28.408604	,	0
4,55	,	48772	,	-25195	,	-23862	,	-33.90349	,	0
4,55	,	48788	,	-25206	,	-23871	,	-39.09488	,	0
4,55	,	48820	,	-25207	,	-23866	,	-43.199043	,	0
4,55	,	48836	,	-25233	,	-23867	,	-45.68352	,	0
4,55	,	48852	,	-25238	,	-23869	,	-46.572422	,	0
4,55	,	48884	,	-25245	,	-23894	,	-46.20658	,	0
4,55	,	48900	,	-25264	,	-23898	,	-44.94361	,	0
4,55	,	48916	,	-25263	,	-23882	,	-43.13134	,	1
4,55	,	48948	,	-25208	,	-23860	,	-40.72171	,	2
4,55	,	48964	,	-25132	,	-23849	,	-36.535828	,	4
4,55	,	48996	,	-25077	,	-23825	,	-28.48795	,	8
4,55	,	49012	,	-25047	,	-23790	,	-15.052082	,	16
4,55	,	49028	,	-25040	,	-23803	,	3.425621	,	29
4,55	,	49059	,	-25012	,	-23787	,	24.78236	,	47
4,55	,	49075	,	-25011	,	-23798	,	46.125637	,	68
4,55	,	49091	,	-25006	,	-23799	,	64.73318	,	89
4,55	,	49124	,	-25009	,	-23798	,	78.46243	,	106
4,55	,	49140	,	-25008	,	-23814	,	86.041794	,	118
4,55	,	49172	,	-25050	,	-23793	,	87.01225	,	123
4,55	,	49188	,	-25065	,	-23813	,	81.37781	,	119
4,55	,	49204	,	-25061	,	-23814	,	69.77735	,	111
4,55	,	49235	,	-25044	,	-23800	,	53.986977	,	98
4,55	,	49251	,	-25034	,	-23796	,	36.703583	,	80
4,55	,	49267	,	-25037	,	-23802	,	20.588043	,	59
4,55	,	49300	,	-25045	,	-23800	,	7.384184	,	38
4,55	,	49316	,	-25051	,	-23807	,	-2.3096008	,	20
4,55	,	49347	,	-25036	,	-23810	,	-8.619933	,	7
4,55	,	49364	,	-25059	,	-23813	,	-11.972313	,	0
4,55	,	49379	,	-25077	,	-23827	,	-13.172435	,	0
4,55	,	49411	,	-25074	,	-23811	,	-13.334539	,	0
4,55	,	49427	,	-25089	,	-23834	,	-13.338816	,	0
4,55	,	49443	,	-25112	,	-23827	,	-13.731535	,	0
4,55	,	49475	,	-25128	,	-23842	,	-14.997895	,	0
4,55	,	49491	,	-25137	,	-23855	,	-17.44096	,	0
4,55	,	49508	,	-25161	,	-23848	,	-20.998775	,	0
4,55	,	49539	,	-25158	,	-23840	,	-25.329556	,	0
4,55	,	49556	,	-25168	,	-23842	,	-29.845284	,	0
4,55	,	49587	,	-25180	,	-23857	,	-33.86116	,	0
4,55	,	49603	,	-25183	,	-23867	,	-36.89297	,	0
4,56	,	49619	,	-25198	,	-23886	,	-38.723873	,	0
4,56	,	49651	,	-25229	,	-23871	,	-39.49525	,	0
4,56	,	49667	,	-25251	,	-23870	,	-39.82093	,	0
4,56	,	49683	,	-25269	,	-23890	,	-40.461708	,	0
4,56	,	49716	,	-25228	,	-23871	,	-41.581833	,	0
4,56	,	49732	,	-25188	,	-23848	,	-42.117577	,	0
4,56	,	49763	,	-25116	,	-23840	,	-39.95204	,	0
4,56	,	49779	,	-25054	,	-23811	,	-32.79615	,	2
4,56	,	49795	,	-25012	,	-23789	,	-19.22711	,	9
4,56	,	49827	,	-24999	,	-23790	,	0.4041977	,	22
4,56	,	49843	,	-24981	,	-23785	,	23.823944	,	41
4,56	,	49859	,	-24935	,	-23770	,	47.894867	,	64
4,56	,	49892	,	-24965	,	-23765	,	69.736145	,	88
4,56	,	49908	,	-24968	,	-23763	,	86.77821	,	109
4,56	,	49923	,	-24971	,	-23759	,	96.91975	,	126
4,56	,	49955	,	-24983	,	-23769	,	99.23131	,	136
4,56	,	49971	,	-24995	,	-23772	,	94.037346	,	136
4,56	,	50003	,	-24970	,	-23765	,	82.69698	,	129
4,56	,	50019	,	-24943	,	-23750	,	67.63322	,	116
4,56	,	50035	,	-24962	,	-23763	,	51.727997	,	97
4,56	,	50067	,	-24933	,	-23761	,	37.226967	,	74
4,56	,	50083	,	-24955	,	-23759	,	25.374578	,	50
4,56	,	50099	,	-24963	,	-23771	,	16.458513	,	29
4,56	,	50131	,	-24964	,	-23758	,	9.98078	,	12
4,56	,	50147	,	-25004	,	-23775	,	5.0788345	,	2
4,56	,	50179	,	-25019	,	-23751	,	0.67396593	,	0
4,56	,	50195	,	-25020	,	-23782	,	-4.165974	,	0
4,56	,	50211	,	-25038	,	-23791	,	-9.683495	,	0
4,56	,	50243	,	-25035	,	-23795	,	-15.535995	,	0
4,56	,	50259	,	-25070	,	-23809	,	-21.252174	,	0
4,56	,	50275	,	-25071	,	-23808	,	-26.561474	,	0
4,56	,	50307	,	-25081	,	-23816	,	-31.308256	,	0
4,56	,	50323	,	-25092	,	-23822	,	-35.23192	,	0
4,56	,	50355	,	-25106	,	-23820	,	-38.123455	,	0
4,56	,	50371	,	-25098	,	-23834	,	-39.898403	,	0
4,56	,	50387	,	-25132	,	-23850	,	-40.54226	,	0
4,56	,	50419	,	-25153	,	-23835	,	-40.389996	,	0
4,56	,	50435	,	-25155	,	-23845	,	-40.085022	,	0
4,56	,	50451	,	-25176	,	-23858	,	-40.045258	,	0
4,56	,	50483	,	-25184	,	-23839	,	-40.348625	,	0
4,56	,	50499	,	-25192	,	-23854	,	-40.895664	,	0
4,56	,	50515	,	-25172	,	-23850	,	-41.297905	,	0
4,56	,	50547	,	-25101	,	-23830	,	-40.490227	,	0
4,56	,	50563	,	-25032	,	-23797	,	-36.49046	,	0
4,56	,	50595	,	-24970	,	-23775	,	-27.088856	,	3
4,56	,	50611	,	-24952	,	-23757	,	-11.264065	,	12
4,57	,	50627	,	-24912	,	-23745	,	10.000713	,	27
4,57	,	50659	,	-24890	,	-23744	,	34.228294	,	48
4,57	,	50675	,	-24896	,	-23732	,	58.349167	,	72
4,57	,	50691	,	-24882	,	-23734	,	79.25621	,	96
4,57	,	50723	,	-24883	,	-23735	,	94.46753	,	116
4,57	,	50739	,	-24906	,	-23733	,	102.53268	,	131
4,57	,	50771	,	-24908	,	-23752	,	102.9096	,	139
4,57	,	50787	,	-24910	,	-23727	,	96.03795	,	136
4,57	,	50803	,	-24891	,	-23744	,	83.51401	,	127
4,57	,	50835	,	-24877	,	-23713	,	67.83728	,	112
4,57	,	50851	,	-24878	,	-23721	,	51.675423	,	91
4,57	,	50867	,	-24875	,	-23737	,	37.04178	,	67
4,57	,	50899	,	-24897	,	-23737	,	24.90189	,	43
4,57	,	50915	,	-24902	,	-23741	,	15.257158	,	23
4,57	,	50931	,	-24914	,	-23741	,	7.586218	,	8
4,57	,	50963	,	-24930	,	-23753	,	1.2792311	,	0
4,57	,	50979	,	-24927	,	-23756	,	-4.160108	,	0
4,57	,	51011	,	-24950	,	-23763	,	-9.005275	,	0
4,57	,	51027	,	-24989	,	-23773	,	-13.56599	,	0
4,57	,	51043	,	-25000	,	-23778	,	-18.422247	,	0
4,57	,	51075	,	-24994	,	-23767	,	-23.869862	,	0
4,57	,	51091	,	-25041	,	-23787	,	-29.60729	,	0
4,57	,	51107	,	-25059	,	-23799	,	-35.379974	,	0
4,57	,	51139	,	-25050	,	-23797	,	-41.079586	,	0
4,57	,	51155	,	-25073	,	-23808	,	-46.215282	,	0
4,57	,	51187	,	-25094	,	-23820	,	-50.220665	,	0
4,57	,	51203	,	-25108	,	-23815	,	-52.985756	,	0
4,57	,	51219	,	-25106	,	-23813	,	-54.60589	,	0
4,57	,	51251	,	-25119	,	-23832	,	-55.02286	,	0
4,57	,	51267	,	-25121	,	-23836	,	-54.12879	,	0
4,57	,	51283	,	-25158	,	-23855	,	-52.091278	,	0
4,57	,	51315	,	-25160	,	-23834	,	-49.481575	,	2
4,57	,	51331	,	-25157	,	-23847	,	-46.840183	,	4
4,57	,	51347	,	-25073	,	-23804	,	-43.7949	,	6
4,57	,	51379	,	-25003	,	-23786	,	-38.532124	,	9
4,57	,	51395	,	-24937	,	-23752	,	-28.56022	,	14
4,57	,	51427	,	-24927	,	-23745	,	-12.493687	,	23
4,57	,	51443	,	-24904	,	-23751	,	8.766132	,	39
4,57	,	51459	,	-24894	,	-23746	,	32.462734	,	60
4,57	,	51491	,	-24893	,	-23739	,	55.234467	,	83
4,57	,	51507	,	-24887	,	-23735	,	74.068794	,	103
4,57	,	51523	,	-24886	,	-23746	,	86.88506	,	119
4,57	,	51554	,	-24916	,	-23730	,	92.651245	,	129
4,57	,	51570	,	-24918	,	-23747	,	91.134155	,	131
4,57	,	51603	,	-24909	,	-23738	,	83.02258	,	126
4,58	,	51619	,	-24889	,	-23732	,	70.18266	,	117
4,58	,	51635	,	-24902	,	-23729	,	55.14697	,	101
4,58	,	51667	,	-24905	,	-23737	,	40.087837	,	80
4,58	,	51682	,	-24908	,	-23745	,	26.346943	,	57
4,58	,	51698	,	-24920	,	-23732	,	14.602602	,	35
4,58	,	51731	,	-24922	,	-23748	,	5.053976	,	17
4,58	,	51747	,	-24950	,	-23747	,	-2.4967852	,	5
4,58	,	51779	,	-24929	,	-23764	,	-8.429221	,	0
4,58	,	51795	,	-24966	,	-23751	,	-13.036058	,	0
4,58	,	51810	,	-24986	,	-23778	,	-16.728994	,	0
4,58	,	51842	,	-25005	,	-23772	,	-20.219978	,	0
4,58	,	51858	,	-25031	,	-23775	,	-24.138554	,	0
4,58	,	51874	,	-25021	,	-23777	,	-28.657774	,	0
4,58	,	51907	,	-25036	,	-23793	,	-33.359722	,	0
4,58	,	51923	,	-25058	,	-23791	,	-37.594677	,	0
4,58	,	51938	,	-25072	,	-23791	,	-41.056908	,	0
4,58	,	51970	,	-25071	,	-23804	,	-43.696312	,	0
4,58	,	51986	,	-25086	,	-23809	,	-45.375904	,	0
4,58	,	52018	,	-25110	,	-23825	,	-46.05047	,	0
4,58	,	52035	,	-25112	,	-23796	,	-45.972504	,	0
4,58	,	52050	,	-25118	,	-23821	,	-45.38932	,	0
4,58	,	52082	,	-25154	,	-23824	,	-44.45494	,	0
4,58	,	52098	,	-25163	,	-23835	,	-43.53498	,	0
4,58	,	52114	,	-25129	,	-23838	,	-42.816917	,	0
4,58	,	52147	,	-25122	,	-23823	,	-41.646053	,	0
4,58	,	52162	,	-25058	,	-23801	,	-38.714573	,	1
4,58	,	52194	,	-25008	,	-23769	,	-32.49189	,	3
4,58	,	52210	,	-24955	,	-23753	,	-21.645472	,	9
4,58	,	52226	,	-24924	,	-23745	,	-5.765152	,	19
4,58	,	52259	,	-24932	,	-23750	,	14.035085	,	34
4,58	,	52274	,	-24921	,	-23726	,	35.15078	,	53
4,58	,	52290	,	-24927	,	-23730	,	54.406624	,	74
4,58	,	52322	,	-24953	,	-23750	,	69.02024	,	93
4,58	,	52338	,	-24958	,	-23755	,	77.011246	,	107
4,58	,	52354	,	-24996	,	-23770	,	77.45806	,	113
4,58	,	52387	,	-25013	,	-23759	,	70.488495	,	111
4,58	,	52402	,	-24966	,	-23755	,	57.4414	,	105
4,58	,	52434	,	-24972	,	-23762	,	41.09561	,	95
4,58	,	52450	,	-24959	,	-23743	,	24.707119	,	80
4,58	,	52466	,	-24975	,	-23755	,	10.646965	,	61
4,58	,	52498	,	-24965	,	-23770	,	0.025827408	,	40
4,58	,	52514	,	-24990	,	-23750	,	-7.0624704	,	21
4,58	,	52530	,	-24985	,	-23770	,	-11.213253	,	7
4,58	,	52562	,	-25018	,	-23777	,	-13.387421	,	0
4,58	,	52578	,	-25020	,	-23792	,	-14.657031	,	0
4,58	,	52610	,	-25044	,	-23772	,	-15.944085	,	0
4,59	,	52626	,	-25042	,	-23800	,	-17.771807	,	0
4,59	,	52642	,	-25070	,	-23793	,	-20.261541	,	0
4,59	,	52674	,	-25068	,	-23806	,	-23.303808	,	0
4,59	,	52690	,	-25077	,	-23819	,	-26.588764	,	0
4,59	,	52706	,	-25114	,	-23801	,	-29.780449	,	0
4,59	,	52738	,	-25105	,	-23837	,	-32.79676	,	0
4,59	,	52754	,	-25118	,	-23798	,	-35.544926	,	0
4,59	,	52770	,	-25147	,	-23835	,	-37.812492	,	0
4,59	,	52802	,	-25157	,	-23829	,	-39.6471	,	0
4,59	,	52818	,	-25165	,	-23855	,	-41.236557	,	0
4,59	,	52850	,	-25169	,	-23845	,	-42.524193	,	0
4,59	,	52866	,	-25169	,	-23858	,	-43.20243	,	0
4,59	,	52882	,	-25208	,	-23848	,	-43.078674	,	0
4,59	,	52914	,	-25167	,	-23846	,	-42.224045	,	0
4,59	,	52930	,	-25120	,	-23825	,	-40.21453	,	0
4,59	,	52946	,	-25035	,	-23795	,	-35.475937	,	2
4,59	,	52978	,	-25003	,	-23780	,	-26.015419	,	6
4,59	,	52994	,	-24986	,	-23733	,	-11.017624	,	15
4,59	,	53026	,	-24935	,	-23745	,	8.463345	,	29
4,59	,	53042	,	-24906	,	-23736	,	30.390106	,	48
4,59	,	53058	,	-24906	,	-23731	,	52.499508	,	69
4,59	,	53090	,	-24909	,	-23729	,	72.253136	,	91
4,59	,	53106	,	-24905	,	-23746	,	87.18693	,	110
4,59	,	53122	,	-24946	,	-23747	,	95.491806	,	124
4,59	,	53154	,	-24941	,	-23747	,	96.202736	,	130
4,59	,	53170	,	-24932	,	-23754	,	89.579895	,	126
4,59	,	53202	,	-24945	,	-23749	,	77.25893	,	117
4,59	,	53218	,	-24908	,	-23743	,	61.654922	,	103
4,59	,	53234	,	-24915	,	-23715	,	45.393032	,	84
4,59	,	53266	,	-24921	,	-23740	,	30.638508	,	63
4,59	,	53282	,	-24936	,	-23756	,	18.428192	,	41
4,59	,	53298	,	-24930	,	-23734	,	8.852554	,	22
4,59	,	53330	,	-24950	,	-23754	,	1.6180716	,	8
4,59	,	53346	,	-24982	,	-23756	,	-3.8899803	,	0
4,59	,	53362	,	-24991	,	-23774	,	-8.632774	,	0
4,59	,	53394	,	-24999	,	-23770	,	-13.3856	,	0
4,59	,	53410	,	-25016	,	-23784	,	-18.33971	,	0
4,59	,	53442	,	-25036	,	-23785	,	-23.384045	,	0
4,59	,	53458	,	-25044	,	-23804	,	-28.386946	,	0
4,59	,	53474	,	-25064	,	-23771	,	-33.166515	,	0
4,59	,	53506	,	-25092	,	-23804	,	-37.592194	,	0
4,59	,	53522	,	-25089	,	-23806	,	-41.645226	,	0
4,59	,	53538	,	-25125	,	-23820	,	-45.245266	,	0
4,59	,	53570	,	-25107	,	-23819	,	-48.198616	,	0
4,59	,	53586	,	-25130	,	-23815	,	-50.18507	,	0
5,0	,	53618	,	-25131	,	-23830	,	-50.89162	,	0
5,0	,	53634	,	-25142	,	-23840	,	-50.25038	,	0
5,0	,	53650	,	-25173	,	-23848	,	-48.526604	,	0
5,0	,	53682	,	-25173	,	-23844	,	-46.29958	,	1
5,0	,	53698	,	-25205	,	-23866	,	-44.197815	,	3
5,0	,	53714	,	-25182	,	-23839	,	-42.548428	,	5
5,0	,	53746	,	-25102	,	-23825	,	-40.71976	,	6
5,0	,	53762	,	-25034	,	-23782	,	-36.600708	,	7
5,0	,	53778	,	-24987	,	-23763	,	-27.629889	,	11
5,0	,	53810	,	-24937	,	-23746	,	-12.504192	,	19
5,0	,	53826	,	-24924	,	-23743	,	8.137144	,	34
5,0	,	53858	,	-24910	,	-23737	,	31.939775	,	54
5,0	,	53874	,	-24877	,	-23731	,	55.722187	,	76
5,0	,	53890	,	-24884	,	-23709	,	76.58219	,	97
5,0	,	53923	,	-24878	,	-23716	,	92.30253	,	115
5,0	,	53938	,	-24878	,	-23731	,	101.44405	,	129
5,0	,	53954	,	-24895	,	-23705	,	103.491936	,	137
5,0	,	53985	,	-24891	,	-23732	,	98.75694	,	135
5,0	,	54001	,	-24883	,	-23723	,	88.3766	,	127
5,0	,	54034	,	-24870	,	-23714	,	74.31377	,	112
5,0	,	54050	,	-24873	,	-23717	,	58.852203	,	92
5,0	,	54066	,	-24882	,	-23726	,	43.853104	,	69
5,0	,	54098	,	-24885	,	-23722	,	30.388893	,	46
5,0	,	54114	,	-24893	,	-23725	,	18.900743	,	26
5,0	,	54130	,	-24899	,	-23733	,	9.455915	,	11
5,0	,	54162	,	-24929	,	-23727	,	1.7849083	,	2
5,0	,	54177	,	-24924	,	-23750	,	-4.638129	,	0
5,0	,	54193	,	-24931	,	-23726	,	-10.183362	,	0
5,0	,	54226	,	-24963	,	-23769	,	-14.973299	,	0
5,0	,	54242	,	-25002	,	-23769	,	-19.415297	,	0
5,0	,	54273	,	-24999	,	-23768	,	-24.189022	,	0
5,0	,	54289	,	-25006	,	-23775	,	-29.457985	,	0
5,0	,	54305	,	-25039	,	-23776	,	-34.77249	,	0
5,0	,	54337	,	-25059	,	-23792	,	-39.79679	,	0
5,0	,	54354	,	-25075	,	-23801	,	-44.506424	,	0
5,0	,	54370	,	-25072	,	-23812	,	-48.753372	,	0
5,0	,	54402	,	-25081	,	-23802	,	-52.051815	,	0
5,0	,	54418	,	-25100	,	-23826	,	-53.90542	,	0
5,0	,	54449	,	-25093	,	-23797	,	-54.146385	,	0
5,0	,	54465	,	-25127	,	-23799	,	-52.91637	,	0
5,0	,	54482	,	-25142	,	-23829	,	-50.717716	,	1
5,0	,	54513	,	-25146	,	-23829	,	-48.26676	,	3
5,0	,	54530	,	-25177	,	-23837	,	-46.096275	,	5
5,0	,	54546	,	-25185	,	-23836	,	-44.558884	,	7
5,0	,	54578	,	-25217	,	-23852	,	-43.935867	,	8
5,0	,	54593	,	-25195	,	-23860	,	-44.22186	,	8
5,0	,	54609	,	-25135	,	-23813	,	-44.52217	,	8
5,1	,	54642	,	-25067	,	-23795	,	-42.67222	,	8
5,1	,	54658	,	-24997	,	-23763	,	-35.977913	,	9
5,1	,	54690	,	-24956	,	-23740	,	-22.615343	,	14
5,1	,	54706	,	-24910	,	-23741	,	-2.5797749	,	25
5,1	,	54721	,	-24909	,	-23736	,	22.214779	,	43
5,1	,	54753	,	-24921	,	-23726	,	48.32722	,	65
5,1	,	54769	,	-24900	,	-23726	,	71.75353	,	90
5,1	,	54785	,	-24908	,	-23728	,	89.337875	,	113
5,1	,	54817	,	-24909	,	-23728	,	99.39878	,	130
5,1	,	54834	,	-24939	,	-23743	,	101.41093	,	140
5,1	,	54865	,	-24935	,	-23740	,	95.72464	,	141
5,1	,	54881	,	-24913	,	-23740	,	83.759705	,	135
5,1	,	54897	,	-24911	,	-23744	,	68.01839	,	122
5,1	,	54929	,	-24898	,	-23715	,	51.30449	,	102
5,1	,	54945	,	-24907	,	-23728	,	35.846504	,	78
5,1	,	54962	,	-24907	,	-23727	,	22.920227	,	52
5,1	,	54993	,	-24938	,	-23737	,	12.790293	,	29
5,1	,	55009	,	-24943	,	-23745	,	4.913067	,	12
5,1	,	55041	,	-24950	,	-23749	,	-1.492136	,	2
5,1	,	55057	,	-24989	,	-23747	,	-7.0627713	,	0
5,1	,	55073	,	-24972	,	-23754	,	-12.306564	,	0
5,1	,	55105	,	-24985	,	-23768	,	-17.330614	,	0
5,1	,	55121	,	-25016	,	-23775	,	-21.90686	,	0
5,1	,	55137	,	-25027	,	-23794	,	-26.058098	,	0
5,1	,	55169	,	-25053	,	-23765	,	-30.057638	,	0
5,1	,	55185	,	-25066	,	-23789	,	-34.109627	,	0
5,1	,	55201	,	-25090	,	-23800	,	-38.275036	,	0
5,1	,	55233	,	-25087	,	-23809	,	-42.4034	,	0
5,1	,	55249	,	-25110	,	-23811	,	-46.107456	,	0
5,1	,	55281	,	-25100	,	-23804	,	-48.907356	,	0
5,1	,	55297	,	-25116	,	-23818	,	-50.362816	,	0
5,1	,	55313	,	-25112	,	-23807	,	-50.192314	,	0
5,1	,	55345	,	-25144	,	-23822	,	-48.477688	,	0
5,1	,	55361	,	-25146	,	-23826	,	-45.748367	,	1
5,1	,	55377	,	-25160	,	-23849	,	-42.69575	,	3
5,1	,	55409	,	-25168	,	-23824	,	-39.813873	,	6
5,1	,	55425	,	-25202	,	-23852	,	-37.47524	,	8
5,1	,	55457	,	-25156	,	-23836	,	-35.857567	,	10
5,1	,	55473	,	-25097	,	-23808	,	-34.12993	,	11
5,1	,	55489	,	-25033	,	-23783	,	-30.171873	,	12
5,1	,	55521	,	-24970	,	-23766	,	-21.632923	,	15
5,1	,	55537	,	-24987	,	-23766	,	-7.4851103	,	23
5,1	,	55553	,	-24965	,	-23760	,	11.0106325	,	36
5,1	,	55585	,	-24966	,	-23751	,	30.93877	,	52
5,1	,	55601	,	-24971	,	-23761	,	49.162777	,	68
5,1	,	55617	,	-24968	,	-23762	,	63.14169	,	84
5,2	,	55649	,	-24969	,	-23734	,	71.36532	,	95
5,2	,	55665	,	-25032	,	-23776	,	73.209366	,	102
5,2	,	55697	,	-25028	,	-23785	,	68.4366	,	102
5,2	,	55713	,	-25028	,	-23775	,	57.628036	,	99
5,2	,	55729	,	-24992	,	-23771	,	42.84405	,	91
5,2	,	55761	,	-24986	,	-23762	,	27.15298	,	77
5,2	,	55777	,	-24984	,	-23755	,	13.376043	,	59
5,2	,	55793	,	-24996	,	-23765	,	3.0806084	,	40
5,2	,	55825	,	-25007	,	-23769	,	-3.5742655	,	22
5,2	,	55841	,	-24983	,	-23768	,	-7.1977334	,	9
5,2	,	55873	,	-25019	,	-23788	,	-8.533132	,	1
5,2	,	55889	,	-25019	,	-23761	,	-8.49523	,	0
5,2	,	55905	,	-25046	,	-23778	,	-8.199722	,	0
5,2	,	55937	,	-25062	,	-23772	,	-8.647638	,	0
5,2	,	55953	,	-25072	,	-23796	,	-10.480574	,	0
5,2	,	55969	,	-25084	,	-23794	,	-13.799656	,	0
5,2	,	56001	,	-25108	,	-23785	,	-18.292213	,	0
5,2	,	56017	,	-25116	,	-23808	,	-23.548447	,	0
5,2	,	56033	,	-25113	,	-23801	,	-29.019493	,	0
5,2	,	56065	,	-25131	,	-23826	,	-33.959312	,	0
5,2	,	56081	,	-25137	,	-23821	,	-37.764046	,	0
5,2	,	56113	,	-25151	,	-23849	,	-40.21047	,	0
5,2	,	56129	,	-25164	,	-23823	,	-41.384346	,	0
5,2	,	56145	,	-25210	,	-23860	,	-41.740356	,	0
5,2	,	56177	,	-25204	,	-23863	,	-42.039173	,	0
5,2	,	56193	,	-25224	,	-23865	,	-42.774467	,	0
5,2	,	56209	,	-25223	,	-23871	,	-43.847435	,	0
5,2	,	56241	,	-25183	,	-23854	,	-44.59278	,	0
5,2	,	56257	,	-25126	,	-23816	,	-43.56506	,	0
5,2	,	56289	,	-25075	,	-23791	,	-38.761726	,	1
5,2	,	56305	,	-25023	,	-23790	,	-28.575388	,	5
5,2	,	56321	,	-25000	,	-23780	,	-12.665304	,	15
5,2	,	56353	,	-25000	,	-23782	,	7.6159954	,	30
5,2	,	56369	,	-24979	,	-23757	,	29.529236	,	50
5,2	,	56385	,	-25005	,	-23764	,	49.885838	,	71
5,2	,	56417	,	-24971	,	-23778	,	65.95574	,	91
5,2	,	56433	,	-24990	,	-23772	,	76.13487	,	107
5,2	,	56464	,	-25034	,	-23770	,	79.771545	,	117
5,2	,	56481	,	-25029	,	-23796	,	76.620735	,	119
5,2	,	56497	,	-25004	,	-23774	,	67.40033	,	115
5,2	,	56529	,	-25003	,	-23762	,	54.265526	,	105
5,2	,	56545	,	-25007	,	-23771	,	39.849808	,	90
5,2	,	56561	,	-25008	,	-23762	,	26.165955	,	70
5,2	,	56593	,	-24988	,	-23766	,	14.497553	,	49
5,2	,	56609	,	-25025	,	-23753	,	5.533823	,	29
5,3	,	56625	,	-25027	,	-23782	,	-0.8637295	,	13
5,3	,	56657	,	-25045	,	-23787	,	-5.4795794	,	3
5,3	,	56673	,	-25043	,	-23791	,	-9.089958	,	0
5,3	,	56705	,	-25056	,	-23787	,	-12.140566	,	0
5,3	,	56721	,	-25070	,	-23798	,	-14.85907	,	0
5,3	,	56736	,	-25089	,	-23811	,	-17.484928	,	0
5,3	,	56768	,	-25084	,	-23790	,	-20.213692	,	0
5,3	,	56784	,	-25125	,	-23814	,	-23.087502	,	0
5,3	,	56801	,	-25107	,	-23805	,	-26.094751	,	0
5,3	,	56832	,	-25115	,	-23819	,	-28.986282	,	0
5,3	,	56849	,	-25130	,	-23814	,	-31.26699	,	0
5,3	,	56880	,	-25148	,	-23821	,	-32.73232	,	0
5,3	,	56896	,	-25158	,	-23828	,	-33.616016	,	0
5,3	,	56912	,	-25164	,	-23842	,	-34.20849	,	0
5,3	,	56945	,	-25184	,	-23847	,	-34.652493	,	0
5,3	,	56961	,	-25188	,	-23828	,	-35.033966	,	0
5,3	,	56977	,	-25200	,	-23844	,	-35.394527	,	0
5,3	,	57008	,	-25185	,	-23817	,	-35.571625	,	0
5,3	,	57024	,	-25108	,	-23813	,	-34.754673	,	0
5,3	,	57040	,	-25063	,	-23783	,	-31.176641	,	0
5,3	,	57073	,	-24993	,	-23761	,	-22.849041	,	3
5,3	,	57088	,	-24936	,	-23717	,	-8.608385	,	11
5,3	,	57120	,	-24911	,	-23715	,	11.34161	,	25
5,3	,	57136	,	-24891	,	-23708	,	35.171818	,	44
5,3	,	57152	,	-24908	,	-23708	,	59.685696	,	67
5,3	,	57185	,	-24880	,	-23715	,	81.27299	,	91
5,3	,	57201	,	-24883	,	-23705	,	97.14305	,	112
5,3	,	57217	,	-24888	,	-23718	,	105.865715	,	127
5,3	,	57248	,	-24906	,	-23723	,	107.03123	,	135
5,3	,	57264	,	-24903	,	-23723	,	101.01611	,	133
5,3	,	57296	,	-24884	,	-23706	,	89.17122	,	125
5,3	,	57312	,	-24869	,	-23725	,	73.83418	,	111
5,3	,	57328	,	-24867	,	-23679	,	57.673904	,	92
5,3	,	57361	,	-24863	,	-23704	,	42.803272	,	69
5,3	,	57376	,	-24879	,	-23711	,	30.343838	,	45
5,3	,	57393	,	-24878	,	-23698	,	20.487793	,	24
5,3	,	57425	,	-24904	,	-23717	,	12.80534	,	9
5,3	,	57441	,	-24907	,	-23716	,	6.5611534	,	1
5,3	,	57457	,	-24920	,	-23726	,	1.0646858	,	0
5,3	,	57488	,	-24954	,	-23739	,	-4.1972194	,	0
5,3	,	57504	,	-24941	,	-23741	,	-9.601589	,	0
5,3	,	57536	,	-24985	,	-23740	,	-15.257446	,	0
5,3	,	57552	,	-24993	,	-23762	,	-21.142006	,	0
5,3	,	57568	,	-25012	,	-23738	,	-27.231571	,	0
5,3	,	57601	,	-25027	,	-23774	,	-33.319397	,	0
5,3	,	57616	,	-25043	,	-23769	,	-39.067738	,	0
5,4	,	57632	,	-25061	,	-23783	,	-44.175667	,	0
5,4	,	57664	,	-25075	,	-23790	,	-48.432964	,	0
5,4	,	57680	,	-25067	,	-23795	,	-51.60319	,	0
5,4	,	57712	,	-25099	,	-23805	,	-53.389744	,	0
5,4	,	57728	,	-25101	,	-23799	,	-53.75357	,	0
5,4	,	57744	,	-25111	,	-23822	,	-52.937138	,	0
5,4	,	57776	,	-25123	,	-23806	,	-51.18889	,	0
5,4	,	57792	,	-25136	,	-23848	,	-48.78762	,	1
5,4	,	57808	,	-25111	,	-23790	,	-45.928524	,	3
5,4	,	57840	,	-25015	,	-23769	,	-41.937645	,	5
5,4	,	57856	,	-24911	,	-23732	,	-34.602676	,	8
5,4	,	57872	,	-24877	,	-23710	,	-21.227636	,	15
5,4	,	57904	,	-24858	,	-23702	,	-0.9812584	,	28
5,4	,	57921	,	-24861	,	-23699	,	24.06646	,	48
5,4	,	57952	,	-24842	,	-23689	,	50.05582	,	73
5,4	,	57968	,	-24831	,	-23694	,	73.15325	,	98
5,4	,	57984	,	-24817	,	-23680	,	90.70961	,	120
5,4	,	58016	,	-24824	,	-23689	,	101.404655	,	135
5,4	,	58032	,	-24853	,	-23727	,	104.76202	,	143
5,4	,	58048	,	-24874	,	-23713	,	100.71329	,	143
5,4	,	58080	,	-24884	,	-23757	,	89.74157	,	136
5,4	,	58096	,	-24910	,	-23780	,	73.14932	,	123
5,4	,	58128	,	-24923	,	-23801	,	52.807835	,	103
5,4	,	58144	,	-24957	,	-23806	,	30.674225	,	78
5,4	,	58160	,	-24947	,	-23813	,	8.586327	,	53
5,4	,	58192	,	-24963	,	-23823	,	-11.659407	,	30
5,4	,	58208	,	-24967	,	-23825	,	-28.48921	,	13
5,4	,	58224	,	-24983	,	-23830	,	-40.984005	,	3
5,4	,	58256	,	-24979	,	-23820	,	-48.94316	,	0
5,4	,	58272	,	-24958	,	-23830	,	-52.49089	,	0
5,4	,	58304	,	-24982	,	-23788	,	-51.888893	,	0
5,4	,	58320	,	-24969	,	-23797	,	-47.82428	,	0
5,4	,	58336	,	-24979	,	-23794	,	-41.387142	,	4
5,4	,	58368	,	-24987	,	-23795	,	-33.76581	,	10
5,4	,	58384	,	-24979	,	-23783	,	-26.071175	,	17
5,4	,	58400	,	-24998	,	-23790	,	-19.149078	,	24
5,4	,	58432	,	-25028	,	-23803	,	-13.734854	,	30
5,4	,	58448	,	-25029	,	-23798	,	-10.577982	,	35
5,4	,	58464	,	-25042	,	-23812	,	-10.000732	,	38
5,4	,	58496	,	-25052	,	-23815	,	-11.688011	,	38
5,4	,	58512	,	-25075	,	-23835	,	-15.053474	,	38
5,4	,	58544	,	-25089	,	-23819	,	-19.578243	,	34
5,4	,	58560	,	-25117	,	-23852	,	-24.886776	,	28
5,4	,	58576	,	-25151	,	-23863	,	-30.794846	,	21
5,4	,	58608	,	-25163	,	-23857	,	-37.245537	,	14
5,5	,	58624	,	-25150	,	-23855	,	-43.840084	,	8
5,5	,	58640	,	-25151	,	-23852	,	-49.529137	,	3
5,5	,	58672	,	-25095	,	-23828	,	-52.826767	,	0
5,5	,	58688	,	-25033	,	-23800	,	-51.91954	,	0
5,5	,	58719	,	-24964	,	-23767	,	-44.88971	,	0
5,5	,	58736	,	-24926	,	-23756	,	-30.596426	,	7
5,5	,	58751	,	-24901	,	-23758	,	-9.598352	,	21
5,5	,	58784	,	-24876	,	-23727	,	15.775858	,	41
5,5	,	58800	,	-24862	,	-23724	,	42.248497	,	66
5,5	,	58816	,	-24839	,	-23723	,	66.59391	,	92
5,5	,	58848	,	-24850	,	-23710	,	86.224335	,	116
5,5	,	58864	,	-24861	,	-23726	,	99.2484	,	135
5,5	,	58880	,	-24885	,	-23726	,	104.43092	,	148
5,5	,	58912	,	-24863	,	-23729	,	101.560684	,	153
5,5	,	58928	,	-24852	,	-23718	,	91.917145	,	146
5,5	,	58959	,	-24852	,	-23717	,	77.928375	,	132
5,5	,	58976	,	-24852	,	-23717	,	62.122944	,	112
5,5	,	58992	,	-24841	,	-23722	,	46.518036	,	87
5,5	,	59024	,	-24856	,	-23713	,	32.53325	,	61
5,5	,	59040	,	-24884	,	-23717	,	20.747656	,	37
5,5	,	59056	,	-24879	,	-23735	,	10.912697	,	18
5,5	,	59087	,	-24901	,	-23726	,	2.5611992	,	5
5,5	,	59103	,	-24917	,	-23745	,	-4.6864796	,	0
5,5	,	59135	,	-24910	,	-23743	,	-11.116421	,	0
5,5	,	59152	,	-24933	,	-23750	,	-16.757215	,	0
5,5	,	59168	,	-24953	,	-23764	,	-21.598307	,	0
5,5	,	59200	,	-24940	,	-23752	,	-25.745893	,	0
5,5	,	59216	,	-24970	,	-23774	,	-29.156471	,	0
5,5	,	59232	,	-24977	,	-23792	,	-31.784378	,	0
5,5	,	59263	,	-25005	,	-23784	,	-33.858803	,	0
5,5	,	59279	,	-25030	,	-23779	,	-35.818886	,	0
5,5	,	59311	,	-25046	,	-23778	,	-38.13549	,	0
5,5	,	59327	,	-25059	,	-23799	,	-41.02025	,	0
5,5	,	59344	,	-25073	,	-23807	,	-44.284172	,	0
5,5	,	59375	,	-25066	,	-23814	,	-47.411995	,	0
5,5	,	59391	,	-25079	,	-23822	,	-49.69149	,	0
5,5	,	59408	,	-25103	,	-23818	,	-50.636467	,	0
5,5	,	59440	,	-25112	,	-23826	,	-50.34682	,	0
5,5	,	59455	,	-25118	,	-23839	,	-49.21711	,	0
5,5	,	59471	,	-25132	,	-23832	,	-47.536423	,	1
5,5	,	59504	,	-25093	,	-23807	,	-45.28689	,	2
5,5	,	59519	,	-25004	,	-23771	,	-41.543922	,	4
5,5	,	59551	,	-24946	,	-23749	,	-34.23059	,	7
5,5	,	59567	,	-24934	,	-23748	,	-21.540651	,	14
5,5	,	59583	,	-24927	,	-23741	,	-3.734026	,	26
5,5	,	59615	,	-24939	,	-23745	,	16.739384	,	43
5,6	,	59631	,	-24915	,	-23748	,	36.572342	,	63
5,6	,	59648	,	-24925	,	-23746	,	52.999416	,	82
5,6	,	59679	,	-24942	,	-23756	,	64.21257	,	97
5,6	,	59695	,	-24999	,	-23774	,	68.92846	,	107
5,6	,	59727	,	-25003	,	-23773	,	66.30269	,	109
5,6	,	59743	,	-24996	,	-23766	,	56.709373	,	106
5,6	,	59759	,	-24959	,	-23757	,	42.34371	,	99
5,6	,	59791	,	-24942	,	-23761	,	26.641392	,	87
5,6	,	59807	,	-24972	,	-23749	,	12.720396	,	70
5,6	,	59823	,	-24971	,	-23767	,	2.0787811	,	50
5,6	,	59856	,	-24961	,	-23778	,	-5.1681747	,	31
5,6	,	59871	,	-24993	,	-23770	,	-9.457719	,	15
5,6	,	59887	,	-25009	,	-23789	,	-11.717435	,	4
5,6	,	59919	,	-25002	,	-23784	,	-13.113517	,	0
5,6	,	59935	,	-25031	,	-23803	,	-14.425272	,	0
5,6	,	59967	,	-25038	,	-23798	,	-16.078396	,	0
5,6	,	59983	,	-25058	,	-23811	,	-18.366909	,	0
5,6	,	59999	,	-25089	,	-23826	,	-21.481041	,	0
5,6	,	60031	,	-25092	,	-23830	,	-25.52326	,	0
5,6	,	60047	,	-25110	,	-23847	,	-30.302208	,	0
5,6	,	60063	,	-25116	,	-23850	,	-35.280724	,	0
5,6	,	60095	,	-25141	,	-23841	,	-39.896202	,	0
5,6	,	60111	,	-25142	,	-23846	,	-43.7748	,	0
5,6	,	60143	,	-25160	,	-23845	,	-46.674347	,	0
5,6	,	60159	,	-25172	,	-23869	,	-48.471775	,	0
5,6	,	60175	,	-25206	,	-23867	,	-49.33526	,	0
5,6	,	60207	,	-25189	,	-23866	,	-49.611534	,	0
5,6	,	60223	,	-25213	,	-23885	,	-49.40619	,	0
5,6	,	60239	,	-25139	,	-23852	,	-48.250965	,	0
5,6	,	60271	,	-25088	,	-23834	,	-44.771137	,	1
5,6	,	60287	,	-25036	,	-23822	,	-37.04326	,	4
5,6	,	60303	,	-25019	,	-23804	,	-23.95544	,	11
5,6	,	60335	,	-25016	,	-23794	,	-6.216175	,	24
5,6	,	60351	,	-25002	,	-23800	,	13.854462	,	41
5,6	,	60383	,	-24984	,	-23789	,	33.45758	,	61
5,6	,	60399	,	-25012	,	-23790	,	50.176086	,	80
5,6	,	60415	,	-25003	,	-23797	,	62.080856	,	96
5,6	,	60447	,	-25024	,	-23799	,	67.95812	,	107
5,6	,	60463	,	-25035	,	-23815	,	67.53321	,	111
5,6	,	60479	,	-25024	,	-23809	,	61.42958	,	108
5,6	,	60511	,	-25022	,	-23807	,	51.174545	,	101
5,6	,	60527	,	-25024	,	-23800	,	38.81623	,	88
5,6	,	60559	,	-25031	,	-23805	,	26.205599	,	71
5,6	,	60575	,	-25006	,	-23798	,	14.749327	,	51
5,6	,	60591	,	-25028	,	-23818	,	5.470789	,	32
5,7	,	60623	,	-25045	,	-23827	,	-1.3057137	,	16
5,7	,	60639	,	-25054	,	-23834	,	-6.09277	,	5
5,7	,	60655	,	-25065	,	-23826	,	-9.684615	,	0
5,7	,	60687	,	-25081	,	-23842	,	-12.718676	,	0
5,7	,	60703	,	-25094	,	-23851	,	-15.659977	,	0
5,7	,	60734	,	-25120	,	-23845	,	-18.860634	,	0
5,7	,	60751	,	-25136	,	-23843	,	-22.593882	,	0
5,7	,	60767	,	-25150	,	-23863	,	-26.959644	,	0
5,7	,	60799	,	-25158	,	-23875	,	-31.739334	,	0
5,7	,	60815	,	-25170	,	-23869	,	-36.440872	,	0
5,7	,	60831	,	-25169	,	-23878	,	-40.468544	,	0
5,7	,	60863	,	-25197	,	-23875	,	-43.354847	,	0
5,7	,	60879	,	-25224	,	-23900	,	-45.115448	,	0
5,7	,	60895	,	-25251	,	-23890	,	-46.327236	,	0
5,7	,	60927	,	-25253	,	-23886	,	-47.61831	,	0
5,7	,	60943	,	-25261	,	-23906	,	-49.100456	,	0
5,7	,	60974	,	-25273	,	-23906	,	-50.401886	,	0
5,7	,	60990	,	-25266	,	-23924	,	-51.02999	,	0
5,7	,	61006	,	-25268	,	-23901	,	-50.493652	,	0
5,7	,	61039	,	-25198	,	-23885	,	-48.075592	,	0
5,7	,	61055	,	-25139	,	-23849	,	-42.44358	,	2
5,7	,	61071	,	-25082	,	-23851	,	-31.954504	,	7
5,7	,	61103	,	-25061	,	-23839	,	-15.852423	,	17
5,7	,	61119	,	-25046	,	-23837	,	4.8515224	,	33
5,7	,	61151	,	-25038	,	-23832	,	27.605713	,	53
5,7	,	61167	,	-25044	,	-23801	,	49.236004	,	75
5,7	,	61183	,	-25007	,	-23826	,	66.99322	,	96
5,7	,	61215	,	-25017	,	-23823	,	79.315865	,	113
5,7	,	61231	,	-25056	,	-23821	,	85.51405	,	125
5,7	,	61247	,	-25031	,	-23827	,	85.2384	,	129
5,7	,	61279	,	-25037	,	-23831	,	79.00046	,	124
5,7	,	61295	,	-25027	,	-23821	,	68.39752	,	114
5,7	,	61311	,	-25019	,	-23815	,	55.4778	,	98
5,7	,	61343	,	-25006	,	-23823	,	42.266094	,	78
5,7	,	61359	,	-25036	,	-23818	,	30.297688	,	56
5,7	,	61390	,	-25024	,	-23820	,	20.198805	,	35
5,7	,	61406	,	-25027	,	-23809	,	12.018982	,	18
5,7	,	61423	,	-25018	,	-23827	,	5.778837	,	6
5,7	,	61454	,	-25072	,	-23830	,	1.2503223	,	0
5,7	,	61471	,	-25082	,	-23842	,	-2.4865103	,	0
5,7	,	61487	,	-25087	,	-23841	,	-6.5156336	,	0
5,7	,	61519	,	-25109	,	-23861	,	-11.274593	,	0
5,7	,	61535	,	-25110	,	-23865	,	-16.612436	,	0
5,7	,	61566	,	-25138	,	-23857	,	-22.170717	,	0
5,7	,	61582	,	-25160	,	-23861	,	-27.68854	,	0
5,7	,	61598	,	-25146	,	-23860	,	-32.98284	,	0
5,8	,	61630	,	-25169	,	-23876	,	-37.607887	,	0
5,8	,	61646	,	-25172	,	-23867	,	-41.04709	,	0
5,8	,	61663	,	-25217	,	-23887	,	-43.241726	,	0
5,8	,	61695	,	-25219	,	-23901	,	-44.66257	,	0
5,8	,	61710	,	-25220	,	-23900	,	-45.74823	,	0
5,8	,	61726	,	-25234	,	-23895	,	-46.44805	,	0
5,8	,	61758	,	-25277	,	-23896	,	-46.691147	,	0
5,8	,	61775	,	-25277	,	-23915	,	-46.849884	,	0
5,8	,	61806	,	-25310	,	-23925	,	-47.365913	,	0
5,8	,	61822	,	-25310	,	-23927	,	-48.376762	,	0
5,8	,	61839	,	-25317	,	-23942	,	-49.656265	,	0
5,8	,	61870	,	-25278	,	-23937	,	-50.46177	,	0
5,8	,	61887	,	-25226	,	-23906	,	-49.353996	,	0
5,8	,	61902	,	-25182	,	-23889	,	-44.471703	,	1
5,8	,	61934	,	-25118	,	-23846	,	-34.309265	,	5
5,8	,	61951	,	-25106	,	-23845	,	-18.459347	,	15
5,8	,	61982	,	-25090	,	-23858	,	1.8899193	,	30
5,8	,	61998	,	-25082	,	-23845	,	24.141176	,	50
5,8	,	62014	,	-25073	,	-23870	,	45.26889	,	72
5,8	,	62046	,	-25082	,	-23858	,	62.65391	,	93
5,8	,	62062	,	-25094	,	-23868	,	74.367195	,	110
5,8	,	62078	,	-25113	,	-23884	,	79.25662	,	121
5,8	,	62110	,	-25121	,	-23878	,	77.0819	,	124
5,8	,	62126	,	-25103	,	-23871	,	68.73341	,	120
5,8	,	62142	,	-25104	,	-23884	,	56.20006	,	110
5,8	,	62174	,	-25087	,	-23869	,	41.972935	,	95
5,8	,	62190	,	-25091	,	-23873	,	28.307968	,	75
5,8	,	62222	,	-25096	,	-23889	,	16.712585	,	53
5,8	,	62238	,	-25109	,	-23863	,	7.7221985	,	32
5,8	,	62254	,	-25119	,	-23865	,	1.0921555	,	15
5,8	,	62286	,	-25124	,	-23890	,	-3.7708068	,	4
5,8	,	62302	,	-25136	,	-23880	,	-7.4551477	,	0
5,8	,	62318	,	-25153	,	-23886	,	-10.476226	,	0
5,8	,	62350	,	-25156	,	-23893	,	-13.2800045	,	0
5,8	,	62366	,	-25193	,	-23884	,	-16.20934	,	0
5,8	,	62398	,	-25201	,	-23902	,	-19.600752	,	0
5,8	,	62414	,	-25220	,	-23904	,	-23.680794	,	0
5,8	,	62430	,	-25239	,	-23925	,	-28.377626	,	0
5,8	,	62462	,	-25252	,	-23923	,	-33.424778	,	0
5,8	,	62478	,	-25265	,	-23921	,	-38.45215	,	0
5,8	,	62494	,	-25276	,	-23922	,	-43.013138	,	0
5,8	,	62526	,	-25288	,	-23929	,	-46.694733	,	0
5,8	,	62542	,	-25290	,	-23940	,	-49.17388	,	0
5,8	,	62574	,	-25296	,	-23923	,	-50.19747	,	0
5,8	,	62590	,	-25313	,	-23952	,	-49.68946	,	0
5,8	,	62606	,	-25333	,	-23950	,	-47.971443	,	0
5,9	,	62638	,	-25354	,	-23951	,	-45.749146	,	1
5,9	,	62654	,	-25377	,	-23970	,	-43.833984	,	3
5,9	,	62670	,	-25386	,	-23978	,	-42.82357	,	4
5,9	,	62702	,	-25380	,	-23976	,	-42.772522	,	5
5,9	,	62718	,	-25345	,	-23957	,	-42.919388	,	5
5,9	,	62734	,	-25289	,	-23917	,	-41.64883	,	5
5,9	,	62766	,	-25222	,	-23892	,	-36.82789	,	6
5,9	,	62782	,	-25167	,	-23883	,	-26.557768	,	10
5,9	,	62814	,	-25148	,	-23878	,	-10.195578	,	20
5,9	,	62830	,	-25137	,	-23873	,	10.950697	,	35
5,9	,	62846	,	-25136	,	-23868	,	33.94967	,	54
5,9	,	62878	,	-25137	,	-23877	,	55.32795	,	75
5,9	,	62894	,	-25139	,	-23876	,	72.08893	,	95
5,9	,	62910	,	-25148	,	-23878	,	82.303215	,	111
5,9	,	62942	,	-25174	,	-23886	,	85.161255	,	121
5,9	,	62958	,	-25204	,	-23901	,	80.655914	,	122
5,9	,	62990	,	-25174	,	-23870	,	69.644035	,	118
5,9	,	63006	,	-25172	,	-23879	,	54.24561	,	108
5,9	,	63022	,	-25170	,	-23874	,	37.34782	,	92
5,9	,	63054	,	-25147	,	-23867	,	21.56514	,	71
5,9	,	63070	,	-25153	,	-23891	,	8.792028	,	49
5,9	,	63086	,	-25162	,	-23872	,	-0.074884415	,	28
5,9	,	63118	,	-25162	,	-23875	,	-5.234561	,	12
5,9	,	63134	,	-25214	,	-23889	,	-7.726251	,	2
5,9	,	63150	,	-25205	,	-23893	,	-9.099121	,	0
5,9	,	63182	,	-25222	,	-23904	,	-10.657389	,	0
5,9	,	63198	,	-25220	,	-23909	,	-12.877596	,	0
5,9	,	63230	,	-25245	,	-23907	,	-15.6884575	,	0
5,9	,	63246	,	-25239	,	-23903	,	-18.866844	,	0
5,9	,	63262	,	-25269	,	-23903	,	-22.15976	,	0
5,9	,	63294	,	-25275	,	-23918	,	-25.422451	,	0
5,9	,	63309	,	-25287	,	-23920	,	-28.606197	,	0
5,9	,	63326	,	-25306	,	-23913	,	-31.620617	,	0
5,9	,	63358	,	-25307	,	-23922	,	-34.352955	,	0
5,9	,	63374	,	-25317	,	-23930	,	-36.625904	,	0
5,9	,	63406	,	-25326	,	-23927	,	-38.200546	,	0
5,9	,	63422	,	-25342	,	-23928	,	-38.983105	,	0
5,9	,	63438	,	-25338	,	-23941	,	-39.042152	,	0
5,9	,	63469	,	-25348	,	-23933	,	-38.418835	,	0
5,9	,	63485	,	-25327	,	-23935	,	-37.00186	,	0
5,9	,	63501	,	-25261	,	-23909	,	-34.19448	,	1
5,9	,	63534	,	-25189	,	-23888	,	-28.50937	,	3
5,9	,	63550	,	-25156	,	-23890	,	-18.19152	,	8
5,9	,	63581	,	-25158	,	-23849	,	-2.810852	,	18
5,9	,	63597	,	-25123	,	-23853	,	16.067652	,	33
5,9	,	63614	,	-25138	,	-23842	,	35.77561	,	51
5,10	,	63646	,	-25141	,	-23846	,	53.457756	,	70
5,10	,	63662	,	-25145	,	-23859	,	66.602486	,	87
5,10	,	63678	,	-25171	,	-23861	,	73.56287	,	100
5,10	,	63709	,	-25169	,	-23864	,	73.74507	,	105
5,10	,	63726	,	-25172	,	-23861	,	67.67511	,	103
5,10	,	63742	,	-25153	,	-23858	,	56.984905	,	98
5,10	,	63773	,	-25167	,	-23882	,	43.910686	,	88
5,10	,	63789	,	-25163	,	-23878	,	30.497698	,	73
5,10	,	63821	,	-25153	,	-23838	,	18.237362	,	55
5,10	,	63838	,	-25169	,	-23852	,	8.1185055	,	36
5,10	,	63854	,	-25186	,	-23876	,	0.43561935	,	19
5,10	,	63886	,	-25194	,	-23863	,	-5.249099	,	6
5,10	,	63902	,	-25200	,	-23867	,	-9.5903225	,	0
5,10	,	63918	,	-25238	,	-23887	,	-13.183065	,	0
5,10	,	63949	,	-25221	,	-23882	,	-16.574924	,	0
5,10	,	63965	,	-25225	,	-23882	,	-19.881845	,	0
5,10	,	63997	,	-25258	,	-23899	,	-22.820969	,	0
5,10	,	64013	,	-25272	,	-23915	,	-25.423021	,	0
5,10	,	64030	,	-25289	,	-23912	,	-28.069458	,	0
5,10	,	64061	,	-25295	,	-23896	,	-30.964447	,	0
5,10	,	64077	,	-25315	,	-23918	,	-34.0014	,	0
5,10	,	64093	,	-25320	,	-23937	,	-36.94152	,	0
5,10	,	64125	,	-25327	,	-23926	,	-39.4877	,	0
5,10	,	64141	,	-25333	,	-23929	,	-41.28924	,	0
5,10	,	64157	,	-25341	,	-23945	,	-42.06613	,	0
5,10	,	64190	,	-25367	,	-23937	,	-41.82376	,	0
5,10	,	64205	,	-25348	,	-23939	,	-40.818245	,	0
5,10	,	64237	,	-25345	,	-23925	,	-39.092346	,	1
5,10	,	64253	,	-25293	,	-23904	,	-36.121483	,	2
5,10	,	64269	,	-25220	,	-23892	,	-30.697636	,	4
5,10	,	64301	,	-25161	,	-23843	,	-21.13842	,	9
5,10	,	64317	,	-25107	,	-23833	,	-6.2130203	,	18
5,10	,	64333	,	-25098	,	-23820	,	13.822303	,	32
5,10	,	64366	,	-25095	,	-23828	,	36.845886	,	52
5,10	,	64381	,	-25092	,	-23834	,	59.473373	,	75
5,10	,	64413	,	-25078	,	-23829	,	78.40059	,	97
5,10	,	64429	,	-25078	,	-23829	,	91.439865	,	114
5,10	,	64446	,	-25090	,	-23844	,	97.61592	,	126
5,10	,	64477	,	-25099	,	-23826	,	96.80139	,	130
5,10	,	64493	,	-25081	,	-23838	,	89.68869	,	125
5,10	,	64509	,	-25105	,	-23838	,	77.8101	,	116
5,10	,	64541	,	-25089	,	-23802	,	63.055267	,	102
5,10	,	64557	,	-25072	,	-23825	,	47.389214	,	82
5,10	,	64573	,	-25087	,	-23815	,	32.718758	,	59
5,10	,	64605	,	-25091	,	-23830	,	20.282047	,	37
5,11	,	64621	,	-25093	,	-23838	,	10.424376	,	19
5,11	,	64653	,	-25083	,	-23838	,	3.0929947	,	6
5,11	,	64669	,	-25099	,	-23854	,	-1.8760433	,	0
5,11	,	64685	,	-25119	,	-23840	,	-4.978085	,	0
5,11	,	64717	,	-25128	,	-23851	,	-7.1018567	,	0
5,11	,	64733	,	-25153	,	-23855	,	-9.165431	,	0
5,11	,	64749	,	-25159	,	-23884	,	-11.817471	,	0
5,11	,	64781	,	-25182	,	-23849	,	-15.346025	,	0
5,11	,	64797	,	-25205	,	-23876	,	-19.780657	,	0
5,11	,	64829	,	-25228	,	-23870	,	-25.084618	,	0
5,11	,	64845	,	-25213	,	-23874	,	-30.977095	,	0
5,11	,	64861	,	-25223	,	-23879	,	-36.639423	,	0
5,11	,	64893	,	-25238	,	-23891	,	-41.10022	,	0
5,11	,	64909	,	-25264	,	-23890	,	-43.960484	,	0
5,11	,	64925	,	-25277	,	-23913	,	-45.5086	,	0
5,11	,	64957	,	-25287	,	-23902	,	-46.247936	,	0
5,11	,	64973	,	-25290	,	-23921	,	-46.455765	,	0
5,11	,	65005	,	-25304	,	-23933	,	-46.140114	,	0
5,11	,	65021	,	-25298	,	-23902	,	-45.20537	,	0
5,11	,	65037	,	-25192	,	-23855	,	-42.97284	,	0
5,11	,	65069	,	-25105	,	-23839	,	-37.339386	,	2
5,11	,	65085	,	-25058	,	-23815	,	-25.615332	,	7
5,11	,	65101	,	-25052	,	-23816	,	-6.8710423	,	18
5,11	,	65133	,	-25044	,	-23806	,	16.961803	,	36
5,11	,	65149	,	-25002	,	-23801	,	42.30329	,	59
5,11	,	65165	,	-25029	,	-23805	,	65.63351	,	84
5,11	,	65197	,	-25036	,	-23829	,	83.958565	,	107
5,11	,	65213	,	-25013	,	-23832	,	95.1154	,	125
5,11	,	65245	,	-25052	,	-23867	,	98.3737	,	136
5,11	,	65261	,	-25092	,	-23859	,	93.92638	,	137
5,11	,	65277	,	-25122	,	-23901	,	82.1772	,	132
5,11	,	65309	,	-25107	,	-23898	,	64.24283	,	121
5,11	,	65325	,	-25115	,	-23905	,	42.526875	,	103
5,11	,	65341	,	-25122	,	-23918	,	20.09489	,	80
5,11	,	65373	,	-25110	,	-23914	,	-0.33397102	,	55
5,11	,	65389	,	-25126	,	-23920	,	-16.818798	,	32
5,11	,	65421	,	-25129	,	-23916	,	-28.425152	,	14
5,11	,	65437	,	-25112	,	-23910	,	-35.113995	,	3
5,11	,	65453	,	-25131	,	-23921	,	-37.314198	,	0
5,11	,	65485	,	-25143	,	-23927	,	-35.947243	,	0
5,11	,	65501	,	-25158	,	-23896	,	-32.46311	,	1
5,11	,	65517	,	-25163	,	-23919	,	-28.350746	,	4
5,11	,	65549	,	-25195	,	-23910	,	-24.7734	,	8
5,11	,	65565	,	-25204	,	-23907	,	-22.59665	,	11
5,11	,	65581	,	-25221	,	-23919	,	-22.308779	,	13
5,11	,	65613	,	-25209	,	-23915	,	-23.766006	,	13
5,12	,	65629	,	-25226	,	-23920	,	-26.226261	,	13
5,12	,	65661	,	-25236	,	-23923	,	-28.858192	,	13
5,12	,	65677	,	-25260	,	-23925	,	-31.236433	,	13
5,12	,	65693	,	-25255	,	-23930	,	-33.278923	,	12
5,12	,	65725	,	-25267	,	-23957	,	-34.877815	,	9
5,12	,	65741	,	-25279	,	-23925	,	-35.868893	,	5
5,12	,	65757	,	-25297	,	-23944	,	-36.28962	,	2
5,12	,	65788	,	-25316	,	-23950	,	-36.440125	,	0
5,12	,	65805	,	-25327	,	-23955	,	-36.69934	,	0
5,12	,	65837	,	-25329	,	-23959	,	-37.238983	,	0
5,12	,	65853	,	-25289	,	-23923	,	-37.65232	,	0
5,12	,	65869	,	-25212	,	-23902	,	-36.533134	,	0
5,12	,	65901	,	-25136	,	-23879	,	-31.518476	,	1
5,12	,	65917	,	-25080	,	-23847	,	-20.347311	,	6
5,12	,	65933	,	-25075	,	-23825	,	-2.4306984	,	17
5,12	,	65965	,	-25061	,	-23865	,	20.373499	,	34
5,12	,	65981	,	-25046	,	-23833	,	44.59474	,	56
5,12	,	65996	,	-25039	,	-23837	,	66.696014	,	80
5,12	,	66029	,	-25045	,	-23822	,	83.9229	,	102
5,12	,	66045	,	-25056	,	-23848	,	94.440636	,	119
5,12	,	66076	,	-25052	,	-23850	,	97.440834	,	129
5,12	,	66092	,	-25067	,	-23851	,	93.25028	,	131
5,12	,	66109	,	-25045	,	-23848	,	83.20532	,	126
5,12	,	66141	,	-25037	,	-23818	,	69.43524	,	115
5,12	,	66157	,	-25029	,	-23841	,	54.40762	,	98
5,12	,	66173	,	-25024	,	-23835	,	40.228878	,	76
5,12	,	66204	,	-25035	,	-23846	,	28.189781	,	52
5,12	,	66220	,	-25028	,	-23823	,	18.728617	,	30
5,12	,	66252	,	-25050	,	-23821	,	11.663509	,	13
5,12	,	66269	,	-25061	,	-23827	,	6.378193	,	3
5,12	,	66285	,	-25076	,	-23846	,	2.0207949	,	0
5,12	,	66317	,	-25076	,	-23846	,	-2.0957456	,	0
5,12	,	66333	,	-25086	,	-23851	,	-6.2233524	,	0
5,12	,	66349	,	-25109	,	-23853	,	-10.355358	,	0
5,12	,	66380	,	-25113	,	-23859	,	-14.520931	,	0
5,12	,	66397	,	-25126	,	-23844	,	-18.712593	,	0
5,12	,	66428	,	-25133	,	-23852	,	-22.748957	,	0
5,12	,	66444	,	-25160	,	-23894	,	-26.453377	,	0
5,12	,	66460	,	-25165	,	-23875	,	-29.828777	,	0
5,12	,	66493	,	-25208	,	-23872	,	-33.051556	,	0
5,12	,	66508	,	-25189	,	-23876	,	-36.304047	,	0
5,12	,	66524	,	-25208	,	-23889	,	-39.413994	,	0
5,12	,	66556	,	-25225	,	-23880	,	-41.95204	,	0
5,12	,	66572	,	-25243	,	-23890	,	-43.765438	,	0
5,12	,	66588	,	-25230	,	-23891	,	-44.88662	,	0
5,13	,	66620	,	-25262	,	-23901	,	-45.2185	,	0
5,13	,	66636	,	-25255	,	-23906	,	-44.73503	,	0
5,13	,	66668	,	-25196	,	-23885	,	-43.20962	,	0
5,13	,	66684	,	-25141	,	-23868	,	-39.45618	,	1
5,13	,	66700	,	-25086	,	-23828	,	-31.659887	,	4
5,13	,	66732	,	-25047	,	-23823	,	-18.610935	,	11
5,13	,	66748	,	-25022	,	-23813	,	-0.5310669	,	24
5,13	,	66764	,	-25025	,	-23797	,	20.772469	,	42
5,13	,	66796	,	-25023	,	-23813	,	42.333096	,	63
5,13	,	66812	,	-25022	,	-23805	,	60.98463	,	84
5,13	,	66844	,	-25031	,	-23818	,	74.29531	,	102
5,13	,	66860	,	-25061	,	-23819	,	80.82326	,	115
5,13	,	66876	,	-25066	,	-23819	,	80.02322	,	120
5,13	,	66908	,	-25050	,	-23818	,	72.50456	,	117
5,13	,	66924	,	-25041	,	-23831	,	60.21025	,	110
5,13	,	66940	,	-25021	,	-23792	,	45.859943	,	97
5,13	,	66972	,	-25028	,	-23804	,	32.01976	,	79
5,13	,	66988	,	-25041	,	-23816	,	20.30132	,	58
5,13	,	67004	,	-25048	,	-23813	,	11.122303	,	37
5,13	,	67036	,	-25037	,	-23819	,	4.2548084	,	19
5,13	,	67052	,	-25047	,	-23825	,	-0.5786619	,	6
5,13	,	67084	,	-25070	,	-23837	,	-3.7871175	,	0
5,13	,	67100	,	-25077	,	-23834	,	-6.1186037	,	0
5,13	,	67116	,	-25077	,	-23824	,	-8.278964	,	0
5,13	,	67148	,	-25096	,	-23836	,	-10.572488	,	0
5,13	,	67164	,	-25120	,	-23843	,	-13.173924	,	0
5,13	,	67180	,	-25134	,	-23831	,	-16.372768	,	0
5,13	,	67212	,	-25155	,	-23866	,	-20.376379	,	0
5,13	,	67228	,	-25153	,	-23864	,	-25.065609	,	0
5,13	,	67260	,	-25167	,	-23879	,	-29.94002	,	0
5,13	,	67276	,	-25178	,	-23869	,	-34.365757	,	0
5,13	,	67292	,	-25210	,	-23887	,	-38.01116	,	0
5,13	,	67324	,	-25193	,	-23881	,	-40.860207	,	0
5,13	,	67340	,	-25200	,	-23890	,	-42.735626	,	0
5,13	,	67356	,	-25233	,	-23893	,	-43.37889	,	0
5,13	,	67388	,	-25185	,	-23878	,	-42.763214	,	0
5,13	,	67404	,	-25130	,	-23850	,	-40.361916	,	0
5,13	,	67436	,	-25084	,	-23830	,	-34.725475	,	2
5,13	,	67452	,	-25048	,	-23808	,	-24.530333	,	7
5,13	,	67468	,	-25039	,	-23799	,	-9.721058	,	17
5,13	,	67500	,	-25004	,	-23804	,	8.344883	,	31
5,13	,	67516	,	-25023	,	-23807	,	27.452133	,	49
5,13	,	67532	,	-25001	,	-23803	,	45.100918	,	68
5,13	,	67564	,	-25020	,	-23811	,	59.063747	,	85
5,13	,	67580	,	-25052	,	-23808	,	67.66093	,	98
5,13	,	67596	,	-25077	,	-23817	,	69.67795	,	106
5,14	,	67628	,	-25050	,	-23798	,	64.87355	,	106
5,14	,	67644	,	-25050	,	-23808	,	54.64064	,	101
5,14	,	67676	,	-25017	,	-23799	,	41.60918	,	91
5,14	,	67692	,	-25036	,	-23786	,	28.525373	,	77
5,14	,	67708	,	-25024	,	-23809	,	17.28708	,	59
5,14	,	67740	,	-25047	,	-23812	,	8.639473	,	40
5,14	,	67756	,	-25054	,	-23803	,	2.410881	,	23
5,14	,	67772	,	-25071	,	-23820	,	-2.1074066	,	10
5,14	,	67804	,	-25084	,	-23826	,	-5.756581	,	2
5,14	,	67820	,	-25087	,	-23812	,	-9.172418	,	0
5,14	,	67852	,	-25088	,	-23826	,	-12.555597	,	0
5,14	,	67868	,	-25095	,	-23840	,	-15.715521	,	0
5,14	,	67884	,	-25107	,	-23838	,	-18.406788	,	0
5,14	,	67916	,	-25144	,	-23834	,	-20.707157	,	0
5,14	,	67932	,	-25159	,	-23846	,	-23.131773	,	0
5,14	,	67948	,	-25152	,	-23862	,	-26.111847	,	0
5,14	,	67980	,	-25200	,	-23867	,	-29.604881	,	0
5,14	,	67996	,	-25181	,	-23864	,	-33.393005	,	0
5,14	,	68012	,	-25208	,	-23877	,	-37.138763	,	0
5,14	,	68044	,	-25235	,	-23875	,	-40.48442	,	0
5,14	,	68060	,	-25229	,	-23876	,	-43.34352	,	0
5,14	,	68092	,	-25250	,	-23870	,	-45.6317	,	0
5,14	,	68108	,	-25200	,	-23879	,	-46.88517	,	0
5,14	,	68124	,	-25135	,	-23835	,	-45.864475	,	0
5,14	,	68156	,	-25070	,	-23824	,	-40.52526	,	1
5,14	,	68172	,	-25014	,	-23793	,	-29.034245	,	6
5,14	,	68188	,	-25009	,	-23787	,	-11.081118	,	17
5,14	,	68220	,	-24964	,	-23781	,	11.658445	,	34
5,14	,	68236	,	-24979	,	-23781	,	36.200207	,	56
5,14	,	68268	,	-24961	,	-23780	,	59.187298	,	80
5,14	,	68284	,	-24975	,	-23779	,	77.619545	,	102
5,14	,	68300	,	-24962	,	-23782	,	89.48622	,	120
5,14	,	68332	,	-24997	,	-23786	,	93.92809	,	131
5,14	,	68348	,	-24994	,	-23775	,	90.996025	,	134
5,14	,	68364	,	-24974	,	-23771	,	81.721054	,	129
5,14	,	68396	,	-24944	,	-23768	,	68.362045	,	118
5,14	,	68412	,	-24941	,	-23773	,	53.84951	,	101
5,14	,	68443	,	-24938	,	-23765	,	40.60635	,	79
5,14	,	68459	,	-24971	,	-23781	,	29.740921	,	55
5,14	,	68475	,	-24988	,	-23775	,	20.983778	,	33
5,14	,	68508	,	-24973	,	-23773	,	13.494795	,	15
5,14	,	68524	,	-24986	,	-23788	,	6.844303	,	4
5,14	,	68540	,	-24999	,	-23792	,	0.9940119	,	0
5,14	,	68572	,	-25017	,	-23793	,	-4.219496	,	0
5,14	,	68587	,	-25042	,	-23814	,	-9.176382	,	0
5,14	,	68603	,	-25048	,	-23787	,	-14.265258	,	0
5,15	,	68636	,	-25070	,	-23805	,	-19.632748	,	0
5,15	,	68652	,	-25080	,	-23823	,	-25.155647	,	0
5,15	,	68683	,	-25088	,	-23820	,	-30.537884	,	0
5,15	,	68700	,	-25105	,	-23838	,	-35.37632	,	0
5,15	,	68716	,	-25113	,	-23837	,	-39.334007	,	0
5,15	,	68748	,	-25120	,	-23839	,	-42.20867	,	0
5,15	,	68763	,	-25129	,	-23842	,	-43.867702	,	0
5,15	,	68779	,	-25151	,	-23851	,	-44.352818	,	0
5,15	,	68812	,	-25147	,	-23854	,	-43.92356	,	0
5,15	,	68828	,	-25163	,	-23877	,	-42.830353	,	0
5,15	,	68859	,	-25164	,	-23846	,	-41.21826	,	1
5,15	,	68875	,	-25169	,	-23873	,	-39.18538	,	2
5,15	,	68891	,	-25067	,	-23809	,	-36.27913	,	4
5,15	,	68923	,	-25013	,	-23794	,	-30.795181	,	6
5,15	,	68939	,	-24968	,	-23776	,	-20.59159	,	11
5,15	,	68955	,	-24944	,	-23777	,	-4.889797	,	21
5,15	,	68988	,	-24935	,	-23764	,	15.063653	,	36
5,15	,	69004	,	-24922	,	-23764	,	36.60282	,	55
5,15	,	69019	,	-24903	,	-23751	,	56.754814	,	76
5,15	,	69051	,	-24903	,	-23750	,	73.16201	,	95
5,15	,	69067	,	-24885	,	-23737	,	84.38046	,	110
5,15	,	69100	,	-24893	,	-23737	,	89.8557	,	119
5,15	,	69116	,	-24906	,	-23759	,	89.65302	,	122
5,15	,	69131	,	-24897	,	-23750	,	84.238396	,	117
5,15	,	69163	,	-24894	,	-23739	,	74.64995	,	107
5,15	,	69179	,	-24873	,	-23744	,	62.542633	,	92
5,15	,	69195	,	-24885	,	-23742	,	49.752735	,	73
5,15	,	69228	,	-24897	,	-23747	,	37.620018	,	52
5,15	,	69243	,	-24897	,	-23750	,	26.71471	,	32
5,15	,	69275	,	-24934	,	-23751	,	17.056675	,	16
5,15	,	69291	,	-24910	,	-23757	,	8.421658	,	5
5,15	,	69307	,	-24936	,	-23770	,	0.7475271	,	0
5,15	,	69339	,	-24943	,	-23751	,	-5.882248	,	0
5,15	,	69355	,	-24969	,	-23781	,	-11.61684	,	0
5,15	,	69371	,	-24996	,	-23779	,	-16.885506	,	0
5,15	,	69403	,	-24983	,	-23786	,	-22.062714	,	0
5,15	,	69419	,	-25028	,	-23797	,	-27.159678	,	0
5,15	,	69435	,	-25040	,	-23806	,	-32.12182	,	0
5,15	,	69467	,	-25044	,	-23807	,	-36.977108	,	0
5,15	,	69483	,	-25042	,	-23811	,	-41.388206	,	0
5,15	,	69515	,	-25052	,	-23813	,	-44.670853	,	0
5,15	,	69531	,	-25044	,	-23822	,	-46.23901	,	0
5,15	,	69547	,	-25077	,	-23836	,	-45.915497	,	0
5,15	,	69579	,	-25101	,	-23814	,	-44.204517	,	0
5,15	,	69595	,	-25103	,	-23851	,	-42.080425	,	1
5,15	,	69611	,	-25147	,	-23855	,	-40.40457	,	3
5,16	,	69643	,	-25157	,	-23855	,	-39.82064	,	4
5,16	,	69659	,	-25162	,	-23870	,	-40.626194	,	4
5,16	,	69691	,	-25188	,	-23868	,	-42.542786	,	4
5,16	,	69707	,	-25187	,	-23861	,	-44.999172	,	4
5,16	,	69723	,	-25125	,	-23847	,	-47.02433	,	4
5,16	,	69755	,	-25051	,	-23825	,	-46.608585	,	4
5,16	,	69771	,	-25026	,	-23813	,	-41.240143	,	4
5,16	,	69787	,	-24985	,	-23799	,	-29.568415	,	8
5,16	,	69819	,	-24934	,	-23772	,	-12.013195	,	17
5,16	,	69835	,	-24948	,	-23781	,	9.690414	,	33
5,16	,	69851	,	-24903	,	-23755	,	32.858486	,	54
5,16	,	69883	,	-24913	,	-23761	,	54.57915	,	77
5,16	,	69899	,	-24911	,	-23765	,	72.37381	,	98
5,16	,	69931	,	-24950	,	-23783	,	84.2064	,	115
5,16	,	69947	,	-24935	,	-23783	,	88.69878	,	126
5,16	,	69963	,	-24952	,	-23775	,	85.708145	,	130
5,16	,	69995	,	-24930	,	-23775	,	76.4763	,	125
5,16	,	70011	,	-24921	,	-23764	,	63.24687	,	114
5,16	,	70027	,	-24894	,	-23768	,	48.722713	,	97
5,16	,	70059	,	-24897	,	-23755	,	35.37463	,	76
5,16	,	70075	,	-24893	,	-23770	,	24.755083	,	53
5,16	,	70107	,	-24917	,	-23773	,	17.197657	,	32
5,16	,	70123	,	-24921	,	-23781	,	12.040457	,	15
5,16	,	70139	,	-24931	,	-23781	,	8.240873	,	4
5,16	,	70171	,	-24938	,	-23778	,	4.9328938	,	0
5,16	,	70187	,	-24971	,	-23786	,	1.4801798	,	0
5,16	,	70203	,	-24992	,	-23796	,	-2.7398813	,	0
5,16	,	70235	,	-25006	,	-23803	,	-8.206421	,	0
5,16	,	70251	,	-25016	,	-23804	,	-14.883771	,	0
5,16	,	70283	,	-25014	,	-23807	,	-22.130499	,	0
5,16	,	70299	,	-25031	,	-23815	,	-28.996744	,	0
5,16	,	70315	,	-25051	,	-23826	,	-34.754833	,	0
5,16	,	70347	,	-25059	,	-23831	,	-39.172874	,	0
5,16	,	70363	,	-25077	,	-23830	,	-42.311676	,	0
5,16	,	70379	,	-25092	,	-23852	,	-44.35415	,	0
5,16	,	70411	,	-25100	,	-23851	,	-45.548393	,	0
5,16	,	70427	,	-25131	,	-23851	,	-46.161766	,	0
5,16	,	70443	,	-25126	,	-23862	,	-46.466835	,	0
5,16	,	70475	,	-25130	,	-23874	,	-46.50132	,	0
5,16	,	70491	,	-25150	,	-23878	,	-46.04052	,	0
5,16	,	70523	,	-25169	,	-23885	,	-45.066376	,	0
5,16	,	70539	,	-25213	,	-23875	,	-44.067745	,	0
5,16	,	70555	,	-25140	,	-23866	,	-43.441826	,	0
5,16	,	70587	,	-25095	,	-23847	,	-42.243347	,	0
5,16	,	70603	,	-25029	,	-23814	,	-38.161453	,	1
5,17	,	70619	,	-24996	,	-23815	,	-29.069477	,	5
5,17	,	70651	,	-24970	,	-23809	,	-14.355906	,	14
5,17	,	70667	,	-24977	,	-23809	,	4.6699963	,	28
5,17	,	70698	,	-24984	,	-23802	,	25.145836	,	47
5,17	,	70714	,	-24955	,	-23794	,	43.83419	,	67
5,17	,	70731	,	-24992	,	-23801	,	58.274925	,	85
5,17	,	70763	,	-24993	,	-23806	,	66.88822	,	99
5,17	,	70779	,	-25016	,	-23791	,	68.85136	,	107
5,17	,	70795	,	-25034	,	-23810	,	64.261894	,	107
5,17	,	70827	,	-25000	,	-23809	,	54.250427	,	103
5,17	,	70843	,	-25000	,	-23798	,	41.041477	,	94
5,17	,	70859	,	-25000	,	-23806	,	27.26453	,	80
5,17	,	70890	,	-24967	,	-23792	,	15.060539	,	61
5,17	,	70906	,	-25001	,	-23802	,	5.801523	,	41
5,17	,	70938	,	-25000	,	-23811	,	-0.22514534	,	23
5,17	,	70955	,	-24978	,	-23815	,	-3.5559444	,	9
5,17	,	70971	,	-25019	,	-23823	,	-4.8615313	,	1
5,17	,	71003	,	-25045	,	-23844	,	-5.1769047	,	0
5,17	,	71018	,	-25048	,	-23811	,	-5.895708	,	0
5,17	,	71035	,	-25057	,	-23835	,	-7.8723717	,	0
5,17	,	71066	,	-25087	,	-23855	,	-11.211245	,	0
5,17	,	71083	,	-25107	,	-23828	,	-15.826944	,	0
5,17	,	71115	,	-25112	,	-23837	,	-21.554808	,	0
5,17	,	71131	,	-25122	,	-23860	,	-27.862053	,	0
5,17	,	71147	,	-25150	,	-23869	,	-34.022293	,	0
5,17	,	71179	,	-25138	,	-23866	,	-39.457767	,	0
5,17	,	71195	,	-25147	,	-23862	,	-43.60737	,	0
5,17	,	71211	,	-25165	,	-23880	,	-45.992455	,	0
5,17	,	71242	,	-25164	,	-23884	,	-46.56711	,	0
5,17	,	71258	,	-25182	,	-23867	,	-45.624138	,	0
5,17	,	71275	,	-25244	,	-23893	,	-43.86467	,	0
5,17	,	71307	,	-25218	,	-23913	,	-42.405636	,	1
5,17	,	71322	,	-25233	,	-23900	,	-41.838593	,	2
5,17	,	71354	,	-25213	,	-23895	,	-41.710983	,	2
5,17	,	71370	,	-25195	,	-23873	,	-40.99534	,	2
5,17	,	71386	,	-25133	,	-23873	,	-38.355152	,	2
5,17	,	71418	,	-25075	,	-23850	,	-32.179367	,	4
5,17	,	71434	,	-25053	,	-23835	,	-21.183622	,	10
5,17	,	71450	,	-25011	,	-23827	,	-5.325945	,	20
5,17	,	71482	,	-25012	,	-23834	,	13.991906	,	35
5,17	,	71498	,	-25005	,	-23800	,	34.330784	,	53
5,17	,	71530	,	-24979	,	-23806	,	52.97737	,	72
5,17	,	71546	,	-24962	,	-23788	,	67.9606	,	90
5,17	,	71562	,	-25010	,	-23815	,	78.111786	,	104
5,17	,	71594	,	-25001	,	-23822	,	82.44923	,	114
5,17	,	71610	,	-25006	,	-23821	,	80.5281	,	116
5,18	,	71626	,	-25002	,	-23816	,	73.0671	,	110
5,18	,	71658	,	-24982	,	-23812	,	61.76179	,	100
5,18	,	71674	,	-25001	,	-23812	,	48.689552	,	85
5,18	,	71706	,	-24996	,	-23808	,	35.590973	,	66
5,18	,	71722	,	-24992	,	-23821	,	23.608068	,	46
5,18	,	71738	,	-24997	,	-23787	,	13.509844	,	28
5,18	,	71770	,	-25027	,	-23822	,	5.551943	,	14
5,18	,	71786	,	-25029	,	-23825	,	-0.691205	,	4
5,18	,	71802	,	-25043	,	-23836	,	-5.8819523	,	0
5,18	,	71834	,	-25054	,	-23834	,	-10.476474	,	0
5,18	,	71850	,	-25066	,	-23843	,	-14.725943	,	0
5,18	,	71866	,	-25067	,	-23842	,	-18.696283	,	0
5,18	,	71898	,	-25101	,	-23850	,	-22.352093	,	0
5,18	,	71914	,	-25102	,	-23864	,	-25.780052	,	0
5,18	,	71946	,	-25116	,	-23860	,	-29.074348	,	0
5,18	,	71962	,	-25114	,	-23867	,	-32.078293	,	0
5,18	,	71979	,	-25137	,	-23843	,	-34.50418	,	0
5,18	,	72010	,	-25174	,	-23883	,	-36.373158	,	0
5,18	,	72026	,	-25150	,	-23869	,	-38.008564	,	0
5,18	,	72042	,	-25176	,	-23877	,	-39.433258	,	0
5,18	,	72074	,	-25184	,	-23874	,	-40.39458	,	0
5,18	,	72090	,	-25210	,	-23890	,	-40.89648	,	0
5,18	,	72122	,	-25208	,	-23894	,	-41.157116	,	0
5,18	,	72138	,	-25247	,	-23904	,	-41.389324	,	0
5,18	,	72154	,	-25214	,	-23908	,	-41.678276	,	0
5,18	,	72186	,	-25257	,	-23900	,	-41.81936	,	0
5,18	,	72202	,	-25260	,	-23927	,	-41.633736	,	0
5,18	,	72218	,	-25214	,	-23875	,	-40.966476	,	0
5,18	,	72250	,	-25073	,	-23835	,	-38.409676	,	0
5,18	,	72266	,	-25024	,	-23830	,	-30.924067	,	2
5,18	,	72282	,	-25012	,	-23805	,	-16.184784	,	9
5,18	,	72314	,	-25008	,	-23817	,	5.0521965	,	23
5,18	,	72330	,	-24957	,	-23805	,	29.612162	,	44
5,18	,	72362	,	-24975	,	-23791	,	53.93951	,	68
5,18	,	72378	,	-24946	,	-23805	,	74.985435	,	92
5,18	,	72394	,	-24947	,	-23804	,	90.53224	,	113
5,18	,	72426	,	-24964	,	-23799	,	99.366745	,	128
5,18	,	72442	,	-24966	,	-23822	,	101.02734	,	136
5,18	,	72458	,	-24982	,	-23791	,	95.77301	,	135
5,18	,	72490	,	-24964	,	-23785	,	84.750854	,	128
5,18	,	72506	,	-24937	,	-23801	,	70.052185	,	114
5,18	,	72538	,	-24970	,	-23794	,	54.199516	,	93
5,18	,	72554	,	-24941	,	-23793	,	39.152794	,	69
5,18	,	72570	,	-24952	,	-23794	,	26.113605	,	45
5,18	,	72602	,	-24958	,	-23810	,	15.724289	,	24
5,19	,	72618	,	-24975	,	-23816	,	7.9174385	,	9
5,19	,	72634	,	-24979	,	-23810	,	2.0822887	,	1
5,19	,	72666	,	-25000	,	-23821	,	-2.5208464	,	0
5,19	,	72682	,	-25019	,	-23842	,	-6.610451	,	0
5,19	,	72714	,	-25040	,	-23816	,	-10.851227	,	0
5,19	,	72730	,	-25078	,	-23852	,	-15.805859	,	0
5,19	,	72746	,	-25068	,	-23847	,	-21.75864	,	0
5,19	,	72778	,	-25086	,	-23849	,	-28.370335	,	0
5,19	,	72794	,	-25096	,	-23858	,	-34.817192	,	0
5,19	,	72810	,	-25111	,	-23870	,	-40.368477	,	0
5,19	,	72842	,	-25134	,	-23872	,	-44.67582	,	0
5,19	,	72858	,	-25127	,	-23853	,	-47.67856	,	0
5,19	,	72874	,	-25150	,	-23875	,	-49.35537	,	0
5,19	,	72906	,	-25162	,	-23878	,	-49.771675	,	0
5,19	,	72922	,	-25178	,	-23889	,	-49.245045	,	0
5,19	,	72954	,	-25186	,	-23882	,	-48.176323	,	0
5,19	,	72970	,	-25216	,	-23898	,	-46.93022	,	1
5,19	,	72986	,	-25215	,	-23915	,	-45.851654	,	2
5,19	,	73018	,	-25245	,	-23913	,	-45.156235	,	3
5,19	,	73034	,	-25254	,	-23916	,	-44.93602	,	3
5,19	,	73050	,	-25268	,	-23913	,	-45.203857	,	3
5,19	,	73082	,	-25231	,	-23900	,	-45.585335	,	3
5,19	,	73098	,	-25137	,	-23869	,	-44.651237	,	3
5,19	,	73130	,	-25076	,	-23844	,	-39.78723	,	3
5,19	,	73146	,	-25033	,	-23828	,	-28.60103	,	7
5,19	,	73162	,	-24998	,	-23843	,	-10.594662	,	17
5,19	,	73194	,	-25021	,	-23805	,	12.39834	,	34
5,19	,	73210	,	-24981	,	-23818	,	36.918404	,	55
5,19	,	73225	,	-24985	,	-23834	,	59.38418	,	79
5,19	,	73257	,	-24967	,	-23826	,	77.203995	,	101
5,19	,	73274	,	-24979	,	-23822	,	88.866325	,	118
5,19	,	73290	,	-25017	,	-23831	,	93.564545	,	129
5,19	,	73321	,	-25009	,	-23834	,	90.996796	,	133
5,19	,	73337	,	-25017	,	-23825	,	81.79822	,	129
5,19	,	73370	,	-25009	,	-23824	,	67.742775	,	118
5,19	,	73386	,	-24985	,	-23825	,	51.31012	,	100
5,19	,	73402	,	-24984	,	-23821	,	35.1476	,	78
5,19	,	73434	,	-24982	,	-23806	,	21.34196	,	54
5,19	,	73450	,	-25025	,	-23833	,	10.721733	,	32
5,19	,	73466	,	-25036	,	-23832	,	2.7605724	,	15
5,19	,	73498	,	-25020	,	-23840	,	-3.5358477	,	4
5,19	,	73513	,	-25043	,	-23842	,	-8.657991	,	0
5,19	,	73545	,	-25052	,	-23846	,	-12.776306	,	0
5,19	,	73561	,	-25078	,	-23854	,	-16.252108	,	0
5,19	,	73577	,	-25088	,	-23856	,	-19.5773	,	0
5,19	,	73610	,	-25098	,	-23862	,	-23.068825	,	0
5,20	,	73625	,	-25103	,	-23854	,	-26.665157	,	0
5,20	,	73641	,	-25119	,	-23882	,	-30.048534	,	0
5,20	,	73673	,	-25128	,	-23863	,	-32.941654	,	0
5,20	,	73690	,	-25148	,	-23873	,	-35.25986	,	0
5,20	,	73705	,	-25165	,	-23880	,	-37.122314	,	0
5,20	,	73737	,	-25180	,	-23892	,	-38.762974	,	0
5,20	,	73753	,	-25192	,	-23898	,	-40.355026	,	0
5,20	,	73785	,	-25190	,	-23899	,	-41.836834	,	0
5,20	,	73801	,	-25214	,	-23907	,	-42.94819	,	0
5,20	,	73817	,	-25239	,	-23902	,	-43.615868	,	0
5,20	,	73849	,	-25255	,	-23918	,	-44.150356	,	0
5,20	,	73865	,	-25264	,	-23912	,	-44.882137	,	0
5,20	,	73881	,	-25274	,	-23927	,	-45.81702	,	0
5,20	,	73913	,	-25251	,	-23918	,	-46.5364	,	0
5,20	,	73929	,	-25150	,	-23888	,	-45.74624	,	0
5,20	,	73962	,	-25083	,	-23838	,	-40.95799	,	0
5,20	,	73978	,	-25069	,	-23843	,	-29.849173	,	4
5,20	,	73993	,	-25044	,	-23836	,	-12.265669	,	15
5,20	,	74026	,	-25041	,	-23833	,	9.601181	,	32
5,20	,	74041	,	-25054	,	-23830	,	32.338573	,	53
5,20	,	74057	,	-25046	,	-23838	,	52.387993	,	75
5,20	,	74089	,	-25058	,	-23845	,	67.01258	,	95
5,20	,	74105	,	-25073	,	-23841	,	74.726295	,	109
5,20	,	74121	,	-25081	,	-23866	,	75.165436	,	116
5,20	,	74153	,	-25085	,	-23838	,	69.005066	,	116
5,20	,	74169	,	-25075	,	-23848	,	57.874847	,	112
5,20	,	74201	,	-25078	,	-23854	,	43.999153	,	101
5,20	,	74217	,	-25075	,	-23858	,	29.59908	,	84
5,20	,	74233	,	-25072	,	-23841	,	16.43326	,	63
5,20	,	74265	,	-25077	,	-23844	,	5.645756	,	41
5,20	,	74281	,	-25082	,	-23845	,	-2.2940168	,	21
5,20	,	74297	,	-25096	,	-23866	,	-7.563877	,	7
5,20	,	74329	,	-25120	,	-23873	,	-10.8767605	,	0
5,20	,	74345	,	-25129	,	-23871	,	-13.241392	,	0
5,20	,	74377	,	-25126	,	-23891	,	-15.435175	,	0
5,20	,	74393	,	-25151	,	-23879	,	-17.723194	,	0
5,20	,	74409	,	-25177	,	-23887	,	-20.26426	,	0
5,20	,	74441	,	-25195	,	-23890	,	-23.40488	,	0
5,20	,	74457	,	-25189	,	-23916	,	-27.280046	,	0
5,20	,	74473	,	-25232	,	-23922	,	-31.598652	,	0
5,20	,	74505	,	-25212	,	-23912	,	-35.95045	,	0
5,20	,	74521	,	-25238	,	-23917	,	-39.852684	,	0
5,20	,	74553	,	-25259	,	-23917	,	-42.8942	,	0
5,20	,	74569	,	-25277	,	-23930	,	-45.111374	,	0
5,20	,	74585	,	-25285	,	-23935	,	-46.77654	,	0
5,20	,	74617	,	-25297	,	-23952	,	-47.99642	,	0
5,21	,	74633	,	-25313	,	-23935	,	-48.735886	,	0
5,21	,	74649	,	-25324	,	-23943	,	-48.99366	,	0
5,21	,	74681	,	-25302	,	-23934	,	-48.654243	,	0
5,21	,	74697	,	-25258	,	-23921	,	-47.02475	,	0
5,21	,	74713	,	-25171	,	-23894	,	-42.547104	,	1
5,21	,	74745	,	-25107	,	-23864	,	-33.13275	,	5
5,21	,	74761	,	-25095	,	-23870	,	-17.467957	,	14
5,21	,	74793	,	-25078	,	-23848	,	3.6098099	,	29
5,21	,	74809	,	-25067	,	-23842	,	27.303185	,	50
5,21	,	74825	,	-25069	,	-23851	,	50.16118	,	73
5,21	,	74857	,	-25065	,	-23850	,	69.09552	,	95
5,21	,	74873	,	-25072	,	-23827	,	81.940796	,	113
5,21	,	74889	,	-25095	,	-23860	,	87.59438	,	125
5,21	,	74921	,	-25104	,	-23862	,	85.85774	,	129
5,21	,	74937	,	-25102	,	-23872	,	77.4727	,	125
5,21	,	74969	,	-25082	,	-23862	,	64.26022	,	116
5,21	,	74985	,	-25071	,	-23852	,	48.845444	,	101
5,21	,	75001	,	-25075	,	-23841	,	33.831043	,	80
5,21	,	75033	,	-25074	,	-23853	,	20.973053	,	57
5,21	,	75049	,	-25103	,	-23853	,	10.89274	,	35
5,21	,	75065	,	-25102	,	-23864	,	3.2772608	,	17
5,21	,	75097	,	-25101	,	-23869	,	-2.4843645	,	5
5,21	,	75113	,	-25092	,	-23874	,	-6.6891785	,	0
5,21	,	75129	,	-25161	,	-23869	,	-9.646741	,	0
5,21	,	75161	,	-25156	,	-23880	,	-12.294986	,	0
5,21	,	75177	,	-25172	,	-23886	,	-15.619054	,	0
5,21	,	75209	,	-25184	,	-23886	,	-19.839186	,	0
5,21	,	75225	,	-25212	,	-23891	,	-24.702984	,	0
5,21	,	75241	,	-25209	,	-23886	,	-29.89574	,	0
5,21	,	75273	,	-25251	,	-23902	,	-35.076374	,	0
5,21	,	75289	,	-25227	,	-23911	,	-39.89428	,	0
5,21	,	75305	,	-25259	,	-23916	,	-43.886547	,	0
5,21	,	75337	,	-25272	,	-23932	,	-46.686665	,	0
5,21	,	75353	,	-25291	,	-23921	,	-48.37312	,	0
5,21	,	75384	,	-25321	,	-23942	,	-49.358864	,	0
5,21	,	75401	,	-25325	,	-23947	,	-50.116196	,	0
5,21	,	75417	,	-25341	,	-23947	,	-50.878872	,	0
5,21	,	75448	,	-25349	,	-23962	,	-51.540714	,	0
5,21	,	75464	,	-25343	,	-23948	,	-51.776924	,	0
5,21	,	75481	,	-25315	,	-23933	,	-50.95862	,	0
5,21	,	75513	,	-25244	,	-23908	,	-47.889713	,	0
5,21	,	75529	,	-25157	,	-23876	,	-40.680058	,	3
5,21	,	75545	,	-25097	,	-23879	,	-27.34172	,	10
5,21	,	75577	,	-25086	,	-23876	,	-7.247902	,	23
5,21	,	75593	,	-25052	,	-23841	,	17.930325	,	43
5,22	,	75625	,	-25039	,	-23831	,	44.94141	,	68
5,22	,	75640	,	-25009	,	-23846	,	70.36135	,	95
5,22	,	75657	,	-25034	,	-23839	,	91.31926	,	120
5,22	,	75688	,	-25030	,	-23830	,	105.56685	,	140
5,22	,	75704	,	-25046	,	-23844	,	111.698135	,	154
5,22	,	75721	,	-25051	,	-23843	,	109.486176	,	157
5,22	,	75753	,	-25063	,	-23830	,	99.82998	,	150
5,22	,	75769	,	-25038	,	-23844	,	84.59206	,	137
5,22	,	75800	,	-25038	,	-23845	,	66.39588	,	117
5,22	,	75816	,	-25024	,	-23840	,	48.00917	,	92
5,22	,	75832	,	-25020	,	-23820	,	31.66206	,	65
5,22	,	75864	,	-25056	,	-23849	,	18.546188	,	40
5,22	,	75880	,	-25059	,	-23832	,	8.578531	,	20
5,22	,	75897	,	-25063	,	-23848	,	0.9929714	,	6
5,22	,	75928	,	-25082	,	-23851	,	-4.8979664	,	0
5,22	,	75944	,	-25095	,	-23856	,	-9.669342	,	0
5,22	,	75976	,	-25095	,	-23868	,	-13.8011875	,	0
5,22	,	75992	,	-25110	,	-23878	,	-17.486736	,	0
5,22	,	76008	,	-25130	,	-23868	,	-20.78595	,	0
5,22	,	76041	,	-25142	,	-23873	,	-23.875755	,	0
5,22	,	76056	,	-25164	,	-23882	,	-26.983934	,	0
5,22	,	76073	,	-25179	,	-23879	,	-30.272432	,	0
5,22	,	76105	,	-25222	,	-23907	,	-33.91794	,	0
5,22	,	76120	,	-25220	,	-23900	,	-38.11442	,	0
5,22	,	76136	,	-25227	,	-23905	,	-42.688866	,	0
5,22	,	76168	,	-25238	,	-23904	,	-46.952114	,	0
5,22	,	76184	,	-25250	,	-23921	,	-50.183914	,	0
5,22	,	76216	,	-25286	,	-23925	,	-52.13433	,	0
5,22	,	76232	,	-25283	,	-23924	,	-53.052002	,	0
5,22	,	76248	,	-25308	,	-23926	,	-53.276497	,	0
5,22	,	76280	,	-25308	,	-23948	,	-52.97381	,	0
5,22	,	76296	,	-25307	,	-23947	,	-52.102974	,	0
5,22	,	76312	,	-25277	,	-23903	,	-50.25038	,	0
5,22	,	76344	,	-25103	,	-23873	,	-45.871346	,	1
5,22	,	76360	,	-25081	,	-23859	,	-36.00006	,	5
5,22	,	76392	,	-25060	,	-23848	,	-18.581457	,	14
5,22	,	76408	,	-25055	,	-23830	,	5.177021	,	31
5,22	,	76424	,	-25038	,	-23817	,	31.652657	,	54
5,22	,	76456	,	-25017	,	-23841	,	56.903923	,	80
5,22	,	76472	,	-25026	,	-23812	,	77.81957	,	105
5,22	,	76488	,	-25019	,	-23815	,	92.3184	,	125
5,22	,	76520	,	-25020	,	-23832	,	99.39182	,	139
5,22	,	76536	,	-25051	,	-23852	,	99.02431	,	145
5,22	,	76552	,	-25046	,	-23828	,	91.84851	,	141
5,22	,	76584	,	-25032	,	-23838	,	79.250336	,	132
5,22	,	76600	,	-25022	,	-23813	,	63.509926	,	115
5,23	,	76632	,	-25005	,	-23835	,	47.246254	,	92
5,23	,	76648	,	-25031	,	-23818	,	32.55949	,	66
5,23	,	76664	,	-25030	,	-23825	,	20.435684	,	41
5,23	,	76696	,	-25015	,	-23821	,	11.021765	,	21
5,23	,	76712	,	-25049	,	-23838	,	4.1725483	,	7
5,23	,	76728	,	-25054	,	-23849	,	-0.6724453	,	0
5,23	,	76760	,	-25066	,	-23824	,	-4.4052396	,	0
5,23	,	76776	,	-25079	,	-23841	,	-7.746642	,	0
5,23	,	76808	,	-25093	,	-23846	,	-11.130363	,	0
5,23	,	76824	,	-25118	,	-23841	,	-14.843201	,	0
5,23	,	76840	,	-25129	,	-23866	,	-19.081266	,	0
5,23	,	76872	,	-25139	,	-23870	,	-23.82371	,	0
5,23	,	76888	,	-25182	,	-23867	,	-28.886465	,	0
5,23	,	76904	,	-25159	,	-23872	,	-34.06982	,	0
5,23	,	76936	,	-25185	,	-23868	,	-38.914253	,	0
5,23	,	76952	,	-25200	,	-23890	,	-42.844257	,	0
5,23	,	76968	,	-25197	,	-23882	,	-45.579865	,	0
5,23	,	77000	,	-25228	,	-23890	,	-47.06444	,	0
5,23	,	77016	,	-25223	,	-23890	,	-47.42079	,	0
5,23	,	77048	,	-25253	,	-23889	,	-46.939182	,	0
5,23	,	77064	,	-25257	,	-23896	,	-45.97765	,	0
5,23	,	77080	,	-25251	,	-23894	,	-44.77319	,	0
5,23	,	77112	,	-25192	,	-23884	,	-42.89563	,	1
5,23	,	77128	,	-25137	,	-23863	,	-38.89486	,	2
5,23	,	77144	,	-25072	,	-23834	,	-30.822723	,	6
5,23	,	77176	,	-25048	,	-23823	,	-17.399403	,	14
5,23	,	77192	,	-25034	,	-23829	,	0.9774742	,	27
5,23	,	77224	,	-25022	,	-23817	,	22.174046	,	45
5,23	,	77240	,	-25014	,	-23827	,	43.242542	,	66
5,23	,	77256	,	-25011	,	-23815	,	61.427998	,	87
5,23	,	77288	,	-25016	,	-23816	,	74.676544	,	105
5,23	,	77304	,	-25060	,	-23831	,	81.60952	,	117
5,23	,	77320	,	-25069	,	-23843	,	81.37333	,	122
5,23	,	77352	,	-25040	,	-23832	,	74.19278	,	118
5,23	,	77368	,	-25029	,	-23827	,	61.977184	,	110
5,23	,	77400	,	-25034	,	-23823	,	47.55899	,	97
5,23	,	77416	,	-25029	,	-23810	,	33.353733	,	79
5,23	,	77432	,	-25026	,	-23811	,	20.918043	,	58
5,23	,	77464	,	-25041	,	-23814	,	11.043066	,	37
5,23	,	77480	,	-25037	,	-23832	,	3.8132029	,	19
5,23	,	77496	,	-25042	,	-23821	,	-1.1152334	,	6
5,23	,	77528	,	-25051	,	-23824	,	-4.2315283	,	0
5,23	,	77544	,	-25069	,	-23836	,	-6.1829424	,	0
5,23	,	77560	,	-25090	,	-23827	,	-7.795046	,	0
5,23	,	77592	,	-25099	,	-23845	,	-9.859636	,	0
5,23	,	77608	,	-25110	,	-23842	,	-12.792921	,	0
5,24	,	77640	,	-25107	,	-23861	,	-16.459805	,	0
5,24	,	77656	,	-25142	,	-23856	,	-20.435787	,	0
5,24	,	77672	,	-25134	,	-23864	,	-24.40979	,	0
5,24	,	77703	,	-25145	,	-23866	,	-28.104176	,	0
5,24	,	77720	,	-25170	,	-23870	,	-31.214622	,	0
5,24	,	77736	,	-25185	,	-23863	,	-33.74695	,	0
5,24	,	77768	,	-25199	,	-23883	,	-35.96933	,	0
5,24	,	77784	,	-25208	,	-23880	,	-38.045856	,	0
5,24	,	77816	,	-25200	,	-23886	,	-39.833244	,	0
5,24	,	77832	,	-25197	,	-23890	,	-40.828773	,	0
5,24	,	77848	,	-25161	,	-23889	,	-40.252186	,	0
5,24	,	77879	,	-25122	,	-23863	,	-37.107292	,	0
5,24	,	77896	,	-25066	,	-23814	,	-30.292799	,	3
5,24	,	77912	,	-25021	,	-23811	,	-18.96728	,	9
5,24	,	77944	,	-24981	,	-23816	,	-3.0301476	,	20
5,24	,	77960	,	-25004	,	-23821	,	16.347675	,	35
5,24	,	77976	,	-24990	,	-23782	,	36.575474	,	54
5,24	,	78008	,	-24983	,	-23801	,	54.612392	,	74
5,24	,	78024	,	-24955	,	-23796	,	68.33239	,	92
5,24	,	78056	,	-24969	,	-23794	,	76.8808	,	105
5,24	,	78072	,	-24970	,	-23790	,	80.11104	,	113
5,24	,	78088	,	-25006	,	-23796	,	78.06467	,	113
5,24	,	78120	,	-24960	,	-23796	,	71.17076	,	107
5,24	,	78135	,	-24957	,	-23777	,	60.860542	,	96
5,24	,	78152	,	-24956	,	-23784	,	49.243866	,	81
5,24	,	78184	,	-24943	,	-23768	,	38.087738	,	62
5,24	,	78200	,	-24954	,	-23794	,	28.454882	,	42
5,24	,	78231	,	-24960	,	-23780	,	20.710035	,	24
5,24	,	78247	,	-24961	,	-23794	,	14.644682	,	11
5,24	,	78263	,	-25001	,	-23807	,	9.7057085	,	3
5,24	,	78296	,	-24988	,	-23810	,	5.1380033	,	0
5,24	,	78312	,	-25017	,	-23814	,	0.37442017	,	0
5,24	,	78328	,	-25016	,	-23813	,	-4.749623	,	0
5,24	,	78359	,	-25037	,	-23805	,	-10.155931	,	0
5,24	,	78375	,	-25049	,	-23827	,	-15.657282	,	0
5,24	,	78391	,	-25063	,	-23831	,	-21.05862	,	0
5,24	,	78424	,	-25077	,	-23833	,	-26.177174	,	0
5,24	,	78440	,	-25101	,	-23852	,	-30.893799	,	0
5,24	,	78471	,	-25111	,	-23829	,	-35.2126	,	0
5,24	,	78487	,	-25118	,	-23843	,	-39.085777	,	0
5,24	,	78503	,	-25145	,	-23859	,	-42.348663	,	0
5,24	,	78535	,	-25148	,	-23845	,	-44.914223	,	0
5,24	,	78551	,	-25181	,	-23868	,	-46.846565	,	0
5,24	,	78567	,	-25168	,	-23859	,	-48.234894	,	0
5,24	,	78600	,	-25185	,	-23866	,	-48.980164	,	0
5,24	,	78616	,	-25211	,	-23873	,	-48.94834	,	0
5,25	,	78647	,	-25212	,	-23867	,	-48.311707	,	0
5,25	,	78663	,	-25155	,	-23854	,	-46.996113	,	0
5,25	,	78679	,	-25085	,	-23840	,	-43.740974	,	1
5,25	,	78711	,	-25023	,	-23791	,	-36.354057	,	4
5,25	,	78727	,	-24974	,	-23779	,	-23.091494	,	11
5,25	,	78743	,	-24906	,	-23779	,	-3.6240005	,	24
5,25	,	78775	,	-24915	,	-23768	,	20.77293	,	43
5,25	,	78792	,	-24876	,	-23762	,	47.325016	,	67
5,25	,	78823	,	-24877	,	-23751	,	72.57752	,	93
5,25	,	78839	,	-24873	,	-23750	,	93.42668	,	118
5,25	,	78856	,	-24871	,	-23750	,	107.60011	,	138
5,25	,	78887	,	-24898	,	-23762	,	113.83754	,	151
5,25	,	78903	,	-24890	,	-23765	,	111.89292	,	154
5,25	,	78919	,	-24918	,	-23772	,	102.51141	,	147
5,25	,	78951	,	-24878	,	-23733	,	87.4337	,	134
5,25	,	78967	,	-24865	,	-23743	,	69.34648	,	115
5,25	,	78983	,	-24869	,	-23741	,	51.246147	,	91
5,25	,	79015	,	-24857	,	-23744	,	35.3613	,	65
5,25	,	79031	,	-24876	,	-23748	,	22.753384	,	40
5,25	,	79063	,	-24903	,	-23752	,	13.349169	,	20
5,25	,	79079	,	-24895	,	-23763	,	6.266018	,	6
5,25	,	79095	,	-24927	,	-23771	,	0.5487957	,	0
5,25	,	79127	,	-24911	,	-23769	,	-4.4406724	,	0
5,25	,	79143	,	-24938	,	-23773	,	-8.985886	,	0
5,25	,	79159	,	-24941	,	-23789	,	-13.156243	,	0
5,25	,	79191	,	-24981	,	-23769	,	-17.127018	,	0
5,25	,	79207	,	-24999	,	-23800	,	-21.318966	,	0
5,25	,	79239	,	-25017	,	-23798	,	-26.149178	,	0
5,25	,	79255	,	-25028	,	-23794	,	-31.634415	,	0
5,25	,	79271	,	-25025	,	-23814	,	-37.264755	,	0
5,25	,	79303	,	-25061	,	-23825	,	-42.31429	,	0
5,25	,	79319	,	-25052	,	-23825	,	-46.292767	,	0
5,25	,	79335	,	-25069	,	-23825	,	-48.94052	,	0
5,25	,	79367	,	-25089	,	-23837	,	-50.157127	,	0
5,25	,	79383	,	-25080	,	-23839	,	-50.091217	,	0
5,25	,	79399	,	-25111	,	-23855	,	-48.98031	,	0
5,25	,	79431	,	-25124	,	-23827	,	-47.199757	,	1
5,25	,	79447	,	-25156	,	-23859	,	-45.399475	,	2
5,25	,	79479	,	-25163	,	-23864	,	-44.24218	,	3
5,25	,	79495	,	-25153	,	-23859	,	-43.917732	,	4
5,25	,	79511	,	-25110	,	-23832	,	-43.680298	,	4
5,25	,	79543	,	-25053	,	-23809	,	-41.789536	,	4
5,25	,	79559	,	-24989	,	-23794	,	-36.04863	,	5
5,25	,	79575	,	-24938	,	-23771	,	-24.717867	,	10
5,25	,	79607	,	-24922	,	-23771	,	-7.466196	,	21
5,26	,	79623	,	-24923	,	-23768	,	14.072401	,	37
5,26	,	79655	,	-24902	,	-23774	,	36.789154	,	57
5,26	,	79671	,	-24891	,	-23730	,	57.484188	,	78
5,26	,	79687	,	-24917	,	-23757	,	73.6861	,	97
5,26	,	79719	,	-24917	,	-23761	,	83.60191	,	113
5,26	,	79735	,	-24920	,	-23764	,	86.34654	,	122
5,26	,	79751	,	-24938	,	-23767	,	82.21466	,	123
5,26	,	79783	,	-24909	,	-23755	,	72.50299	,	118
5,26	,	79799	,	-24880	,	-23753	,	59.470345	,	107
5,26	,	79831	,	-24900	,	-23755	,	45.819378	,	90
5,26	,	79847	,	-24888	,	-23756	,	33.504513	,	69
5,26	,	79863	,	-24890	,	-23755	,	23.401814	,	47
5,26	,	79895	,	-24887	,	-23774	,	15.772211	,	27
5,26	,	79911	,	-24910	,	-23747	,	10.390973	,	11
5,26	,	79927	,	-24954	,	-23784	,	6.359586	,	2
5,26	,	79959	,	-24939	,	-23780	,	2.3960238	,	0
5,26	,	79975	,	-24958	,	-23784	,	-2.2536907	,	0
5,26	,	79991	,	-24993	,	-23795	,	-7.673011	,	0
5,26	,	80023	,	-25011	,	-23791	,	-13.922401	,	0
5,26	,	80039	,	-25003	,	-23789	,	-20.919123	,	0
5,26	,	80071	,	-25023	,	-23811	,	-28.015278	,	0
5,26	,	80087	,	-25025	,	-23798	,	-34.338287	,	0
5,26	,	80103	,	-25038	,	-23800	,	-39.253872	,	0
5,26	,	80135	,	-25053	,	-23832	,	-42.48942	,	0
5,26	,	80151	,	-25075	,	-23814	,	-44.206665	,	0
5,26	,	80167	,	-25083	,	-23835	,	-44.884987	,	0
5,26	,	80199	,	-25100	,	-23843	,	-44.996414	,	0
5,26	,	80215	,	-25105	,	-23835	,	-44.817017	,	0
5,26	,	80247	,	-25131	,	-23850	,	-44.487907	,	0
5,26	,	80263	,	-25155	,	-23850	,	-44.24375	,	0
5,26	,	80279	,	-25133	,	-23871	,	-44.277313	,	0
5,26	,	80311	,	-25140	,	-23854	,	-44.246742	,	0
5,26	,	80327	,	-25124	,	-23848	,	-43.379772	,	0
5,26	,	80343	,	-25073	,	-23819	,	-40.766106	,	0
5,26	,	80375	,	-25004	,	-23819	,	-35.109535	,	2
5,26	,	80391	,	-24976	,	-23771	,	-24.992727	,	7
5,26	,	80407	,	-24915	,	-23777	,	-9.836317	,	17
5,26	,	80439	,	-24910	,	-23761	,	9.624233	,	32
5,26	,	80455	,	-24903	,	-23768	,	31.347397	,	51
5,26	,	80487	,	-24903	,	-23769	,	52.36722	,	72
5,26	,	80502	,	-24916	,	-23761	,	69.672035	,	93
5,26	,	80519	,	-24911	,	-23767	,	81.00453	,	110
5,26	,	80551	,	-24951	,	-23778	,	85.1835	,	121
5,26	,	80567	,	-24932	,	-23772	,	82.09474	,	123
5,26	,	80583	,	-24916	,	-23772	,	72.893	,	118
5,26	,	80615	,	-24915	,	-23785	,	59.921356	,	108
5,27	,	80631	,	-24923	,	-23743	,	45.683342	,	93
5,27	,	80662	,	-24917	,	-23773	,	31.992603	,	74
5,27	,	80678	,	-24914	,	-23766	,	20.005608	,	53
5,27	,	80694	,	-24941	,	-23769	,	10.306217	,	32
5,27	,	80727	,	-24957	,	-23775	,	2.7141066	,	15
5,27	,	80743	,	-24956	,	-23786	,	-3.4322014	,	4
5,27	,	80759	,	-24970	,	-23789	,	-8.627952	,	0
