Data recorded on Tue Jul 25 13-41-43 CAT 2017
Time: 13:41:53
Time		Millis		IR PPG		Red PPG		Filtered		SSF
42,2	,	25941	,	-27579	,	-25192	,	-1.5416622	,	9
42,2	,	25957	,	-27572	,	-25189	,	7.9163637	,	16
42,2	,	25973	,	-27576	,	-25173	,	17.534653	,	25
42,2	,	26005	,	-27573	,	-25161	,	25.94586	,	34
42,2	,	26021	,	-27574	,	-25157	,	32.078247	,	42
42,2	,	26053	,	-27558	,	-25165	,	35.45013	,	48
42,2	,	26069	,	-27561	,	-25156	,	36.22865	,	51
42,2	,	26085	,	-27572	,	-25171	,	34.867115	,	50
42,2	,	26117	,	-27564	,	-25171	,	31.75849	,	47
42,2	,	26133	,	-27553	,	-25137	,	27.414852	,	42
42,2	,	26149	,	-27553	,	-25144	,	22.610718	,	35
42,2	,	26181	,	-27549	,	-25152	,	18.069927	,	26
42,2	,	26197	,	-27560	,	-25158	,	14.165856	,	17
42,2	,	26213	,	-27539	,	-25158	,	10.997872	,	9
42,2	,	26245	,	-27558	,	-25140	,	8.599447	,	3
42,2	,	26261	,	-27548	,	-25149	,	6.8862224	,	0
42,2	,	26293	,	-27553	,	-25149	,	5.6464233	,	0
42,2	,	26309	,	-27550	,	-25138	,	4.7085757	,	0
42,2	,	26325	,	-27556	,	-25152	,	3.9404066	,	0
42,2	,	26357	,	-27559	,	-25142	,	3.1877859	,	0
42,2	,	26373	,	-27568	,	-25155	,	2.275433	,	0
42,2	,	26389	,	-27578	,	-25152	,	0.9984168	,	0
42,2	,	26421	,	-27580	,	-25165	,	-0.81079304	,	0
42,2	,	26436	,	-27580	,	-25155	,	-3.108999	,	0
42,2	,	26469	,	-27587	,	-25181	,	-5.619823	,	0
42,2	,	26485	,	-27598	,	-25162	,	-8.080212	,	0
42,2	,	26501	,	-27607	,	-25183	,	-10.42547	,	0
42,2	,	26533	,	-27618	,	-25185	,	-12.72403	,	0
42,2	,	26549	,	-27637	,	-25198	,	-15.101203	,	0
42,2	,	26565	,	-27637	,	-25188	,	-17.677675	,	0
42,2	,	26597	,	-27639	,	-25201	,	-20.352245	,	0
42,2	,	26613	,	-27648	,	-25209	,	-22.768011	,	0
42,2	,	26629	,	-27667	,	-25188	,	-24.669771	,	0
42,2	,	26661	,	-27661	,	-25189	,	-26.06247	,	0
42,2	,	26677	,	-27673	,	-25210	,	-26.963736	,	0
42,2	,	26709	,	-27673	,	-25184	,	-27.312334	,	0
42,2	,	26725	,	-27673	,	-25207	,	-27.046028	,	0
42,2	,	26740	,	-27648	,	-25202	,	-25.969902	,	0
42,2	,	26773	,	-27628	,	-25186	,	-23.597198	,	1
42,2	,	26788	,	-27591	,	-25174	,	-19.250471	,	3
42,2	,	26805	,	-27593	,	-25172	,	-12.480073	,	7
42,2	,	26837	,	-27566	,	-25165	,	-3.5110521	,	13
42,2	,	26853	,	-27557	,	-25154	,	6.843487	,	21
42,2	,	26884	,	-27545	,	-25163	,	17.568424	,	31
42,2	,	26900	,	-27547	,	-25154	,	27.580582	,	41
42,2	,	26916	,	-27538	,	-25169	,	35.82969	,	51
42,3	,	26948	,	-27550	,	-25130	,	41.488937	,	59
42,3	,	26964	,	-27545	,	-25145	,	44.060074	,	63
42,3	,	26980	,	-27548	,	-25150	,	43.47754	,	63
42,3	,	27013	,	-27553	,	-25136	,	40.119057	,	59
42,3	,	27029	,	-27538	,	-25144	,	34.699364	,	53
42,3	,	27060	,	-27543	,	-25149	,	28.182455	,	45
42,3	,	27076	,	-27529	,	-25132	,	21.575031	,	35
42,3	,	27092	,	-27541	,	-25134	,	15.658724	,	25
42,3	,	27124	,	-27534	,	-25127	,	10.833049	,	15
42,3	,	27140	,	-27519	,	-25141	,	7.248946	,	7
42,3	,	27156	,	-27543	,	-25154	,	4.9404674	,	2
42,3	,	27189	,	-27547	,	-25126	,	3.5671124	,	0
42,3	,	27205	,	-27542	,	-25149	,	2.5249045	,	0
42,3	,	27220	,	-27541	,	-25162	,	1.4957318	,	0
42,3	,	27252	,	-27552	,	-25135	,	0.46708226	,	0
42,3	,	27268	,	-27555	,	-25154	,	-0.6134087	,	0
42,3	,	27300	,	-27559	,	-25139	,	-1.8675629	,	0
42,3	,	27316	,	-27572	,	-25166	,	-3.3742776	,	0
42,3	,	27333	,	-27561	,	-25171	,	-5.1243334	,	0
42,3	,	27364	,	-27576	,	-25159	,	-6.955861	,	0
42,3	,	27380	,	-27579	,	-25175	,	-8.689977	,	0
42,3	,	27396	,	-27588	,	-25175	,	-10.298967	,	0
42,3	,	27428	,	-27592	,	-25153	,	-11.817462	,	0
42,3	,	27444	,	-27603	,	-25188	,	-13.268081	,	0
42,3	,	27476	,	-27610	,	-25186	,	-14.694924	,	0
42,3	,	27492	,	-27622	,	-25199	,	-16.168907	,	0
42,3	,	27508	,	-27625	,	-25189	,	-17.730234	,	0
42,3	,	27540	,	-27631	,	-25196	,	-19.308363	,	0
42,3	,	27556	,	-27635	,	-25209	,	-20.731066	,	0
42,3	,	27572	,	-27641	,	-25199	,	-21.819931	,	0
42,3	,	27604	,	-27634	,	-25179	,	-22.404884	,	0
42,3	,	27620	,	-27594	,	-25181	,	-22.077759	,	0
42,3	,	27636	,	-27592	,	-25175	,	-20.095196	,	0
42,3	,	27668	,	-27561	,	-25123	,	-15.85233	,	1
42,3	,	27684	,	-27538	,	-25129	,	-9.199042	,	5
42,3	,	27716	,	-27513	,	-25133	,	-0.31371212	,	11
42,3	,	27732	,	-27532	,	-25124	,	10.132267	,	19
42,3	,	27748	,	-27507	,	-25113	,	20.823006	,	29
42,3	,	27780	,	-27507	,	-25128	,	30.353317	,	39
42,3	,	27796	,	-27507	,	-25130	,	37.73891	,	48
42,3	,	27812	,	-27503	,	-25116	,	42.382072	,	55
42,3	,	27844	,	-27502	,	-25129	,	44.07694	,	59
42,3	,	27860	,	-27498	,	-25126	,	43.050674	,	59
42,3	,	27892	,	-27513	,	-25160	,	39.76671	,	55
42,3	,	27908	,	-27508	,	-25102	,	34.70679	,	49
42,3	,	27924	,	-27499	,	-25111	,	28.461336	,	41
42,4	,	27956	,	-27493	,	-25117	,	21.881187	,	31
42,4	,	27972	,	-27491	,	-25129	,	15.856459	,	21
42,4	,	27988	,	-27492	,	-25133	,	10.975844	,	12
42,4	,	28020	,	-27481	,	-25136	,	7.4661226	,	5
42,4	,	28036	,	-27491	,	-25122	,	5.30503	,	1
42,4	,	28052	,	-27502	,	-25113	,	4.1729374	,	0
42,4	,	28084	,	-27500	,	-25130	,	3.487457	,	0
42,4	,	28100	,	-27497	,	-25100	,	2.792425	,	0
42,4	,	28132	,	-27507	,	-25139	,	1.9445522	,	0
42,4	,	28148	,	-27523	,	-25103	,	0.82659805	,	0
42,4	,	28164	,	-27526	,	-25139	,	-0.81089056	,	0
42,4	,	28196	,	-27532	,	-25155	,	-3.1055877	,	0
42,4	,	28212	,	-27524	,	-25149	,	-5.8543386	,	0
42,4	,	28228	,	-27552	,	-25128	,	-8.681131	,	0
42,4	,	28260	,	-27547	,	-25160	,	-11.392798	,	0
42,4	,	28276	,	-27554	,	-25159	,	-13.930583	,	0
42,4	,	28308	,	-27565	,	-25160	,	-16.179068	,	0
42,4	,	28324	,	-27577	,	-25168	,	-18.10779	,	0
42,4	,	28340	,	-27567	,	-25139	,	-19.74821	,	0
42,4	,	28372	,	-27583	,	-25180	,	-20.990883	,	0
42,4	,	28388	,	-27584	,	-25137	,	-21.718403	,	0
42,4	,	28404	,	-27598	,	-25194	,	-21.99308	,	0
42,4	,	28436	,	-27595	,	-25180	,	-21.967752	,	0
42,4	,	28452	,	-27616	,	-25173	,	-21.78842	,	0
42,4	,	28468	,	-27615	,	-25181	,	-21.624718	,	0
42,4	,	28500	,	-27595	,	-25180	,	-21.467693	,	0
42,4	,	28516	,	-27576	,	-25168	,	-20.798317	,	0
42,4	,	28548	,	-27556	,	-25158	,	-18.76599	,	0
42,4	,	28564	,	-27539	,	-25158	,	-14.7078085	,	2
42,4	,	28580	,	-27514	,	-25151	,	-8.407409	,	6
42,4	,	28612	,	-27506	,	-25132	,	-0.111227036	,	12
42,4	,	28628	,	-27510	,	-25102	,	9.3948345	,	20
42,4	,	28644	,	-27495	,	-25123	,	18.878086	,	29
42,4	,	28675	,	-27503	,	-25128	,	27.108606	,	38
42,4	,	28692	,	-27482	,	-25099	,	33.242203	,	46
42,4	,	28724	,	-27487	,	-25112	,	36.956528	,	52
42,4	,	28740	,	-27482	,	-25114	,	38.323334	,	55
42,4	,	28756	,	-27478	,	-25105	,	37.604805	,	54
42,4	,	28788	,	-27480	,	-25109	,	35.20691	,	50
42,4	,	28804	,	-27487	,	-25109	,	31.555902	,	44
42,4	,	28820	,	-27481	,	-25119	,	27.006346	,	36
42,4	,	28852	,	-27493	,	-25112	,	21.905888	,	27
42,4	,	28867	,	-27471	,	-25090	,	16.668022	,	18
42,4	,	28900	,	-27474	,	-25121	,	11.853085	,	10
42,4	,	28916	,	-27473	,	-25103	,	7.9870358	,	4
42,4	,	28932	,	-27485	,	-25128	,	5.2019057	,	1
42,5	,	28964	,	-27496	,	-25108	,	3.174478	,	0
42,5	,	28979	,	-27493	,	-25113	,	1.4080946	,	0
42,5	,	28995	,	-27476	,	-25107	,	-0.29524684	,	0
42,5	,	29027	,	-27486	,	-25121	,	-1.6944042	,	0
42,5	,	29043	,	-27489	,	-25112	,	-2.5634966	,	0
42,5	,	29059	,	-27498	,	-25135	,	-3.0209363	,	0
42,5	,	29092	,	-27512	,	-25113	,	-3.4323726	,	0
42,5	,	29108	,	-27529	,	-25110	,	-4.2766943	,	0
42,5	,	29140	,	-27536	,	-25145	,	-5.9780746	,	0
42,5	,	29156	,	-27536	,	-25120	,	-8.62096	,	0
42,5	,	29171	,	-27544	,	-25135	,	-11.860807	,	0
42,5	,	29204	,	-27552	,	-25164	,	-15.195881	,	0
42,5	,	29220	,	-27561	,	-25164	,	-18.256624	,	0
42,5	,	29235	,	-27564	,	-25149	,	-20.8364	,	0
42,5	,	29268	,	-27575	,	-25163	,	-22.822477	,	0
42,5	,	29284	,	-27581	,	-25181	,	-24.193583	,	0
42,5	,	29315	,	-27591	,	-25156	,	-25.022263	,	0
42,5	,	29331	,	-27595	,	-25177	,	-25.42305	,	0
42,5	,	29348	,	-27606	,	-25170	,	-25.506758	,	0
42,5	,	29379	,	-27618	,	-25181	,	-25.412834	,	0
42,5	,	29395	,	-27605	,	-25177	,	-25.231764	,	0
42,5	,	29411	,	-27590	,	-25157	,	-24.713503	,	0
42,5	,	29444	,	-27564	,	-25170	,	-23.182007	,	0
42,5	,	29460	,	-27547	,	-25157	,	-19.850273	,	1
42,5	,	29475	,	-27532	,	-25150	,	-14.266254	,	4
42,5	,	29508	,	-27520	,	-25134	,	-6.5829124	,	9
42,5	,	29524	,	-27526	,	-25147	,	2.4336548	,	16
42,5	,	29555	,	-27519	,	-25147	,	11.584507	,	25
42,5	,	29571	,	-27521	,	-25109	,	19.630848	,	34
42,5	,	29587	,	-27507	,	-25129	,	25.71872	,	42
42,5	,	29619	,	-27514	,	-25126	,	29.512093	,	48
42,5	,	29635	,	-27520	,	-25133	,	30.965027	,	51
42,5	,	29651	,	-27513	,	-25140	,	30.160936	,	51
42,5	,	29683	,	-27527	,	-25125	,	27.403557	,	48
42,5	,	29699	,	-27513	,	-25126	,	23.206295	,	43
42,5	,	29731	,	-27522	,	-25136	,	18.214142	,	36
42,5	,	29747	,	-27519	,	-25107	,	13.075987	,	27
42,5	,	29763	,	-27511	,	-25120	,	8.327568	,	18
42,5	,	29795	,	-27510	,	-25126	,	4.429679	,	10
42,5	,	29811	,	-27508	,	-25101	,	1.6931648	,	4
42,5	,	29827	,	-27517	,	-25139	,	0.12010193	,	1
42,5	,	29859	,	-27536	,	-25142	,	-0.67261434	,	0
42,5	,	29875	,	-27541	,	-25153	,	-1.3561873	,	0
42,5	,	29891	,	-27535	,	-25148	,	-2.4578335	,	0
42,5	,	29923	,	-27536	,	-25124	,	-3.9933493	,	0
42,5	,	29939	,	-27540	,	-25164	,	-5.638199	,	0
42,6	,	29971	,	-27544	,	-25153	,	-7.1101956	,	0
42,6	,	29987	,	-27546	,	-25146	,	-8.295204	,	0
42,6	,	30003	,	-27549	,	-25133	,	-9.170358	,	0
42,6	,	30035	,	-27570	,	-25177	,	-9.829227	,	0
42,6	,	30051	,	-27582	,	-25152	,	-10.601373	,	0
42,6	,	30067	,	-27579	,	-25167	,	-11.84357	,	0
42,6	,	30099	,	-27596	,	-25165	,	-13.606293	,	0
42,6	,	30115	,	-27603	,	-25154	,	-15.747696	,	0
42,6	,	30147	,	-27615	,	-25161	,	-18.14674	,	0
42,6	,	30163	,	-27611	,	-25188	,	-20.618652	,	0
42,6	,	30179	,	-27636	,	-25170	,	-22.90844	,	0
42,6	,	30211	,	-27635	,	-25196	,	-24.885098	,	0
42,6	,	30227	,	-27633	,	-25191	,	-26.458286	,	0
42,6	,	30243	,	-27632	,	-25189	,	-27.351227	,	0
42,6	,	30275	,	-27655	,	-25203	,	-27.346848	,	0
42,6	,	30291	,	-27640	,	-25187	,	-26.55666	,	0
42,6	,	30307	,	-27612	,	-25182	,	-24.984116	,	0
42,6	,	30339	,	-27597	,	-25185	,	-22.131271	,	1
42,6	,	30355	,	-27593	,	-25170	,	-17.48376	,	3
42,6	,	30387	,	-27568	,	-25169	,	-11.037006	,	7
42,6	,	30403	,	-27560	,	-25156	,	-3.1720657	,	13
42,6	,	30419	,	-27566	,	-25169	,	5.4393854	,	20
42,6	,	30451	,	-27561	,	-25154	,	13.768946	,	28
42,6	,	30467	,	-27553	,	-25154	,	20.783188	,	36
42,6	,	30483	,	-27563	,	-25156	,	25.819736	,	43
42,6	,	30515	,	-27551	,	-25189	,	28.576393	,	48
42,6	,	30531	,	-27550	,	-25144	,	29.122316	,	49
42,6	,	30563	,	-27562	,	-25164	,	27.809328	,	47
42,6	,	30579	,	-27554	,	-25157	,	25.016052	,	43
42,6	,	30595	,	-27558	,	-25173	,	21.163696	,	37
42,6	,	30627	,	-27570	,	-25144	,	16.704845	,	30
42,6	,	30643	,	-27565	,	-25168	,	11.968672	,	22
42,6	,	30659	,	-27560	,	-25139	,	7.2963753	,	14
42,6	,	30691	,	-27562	,	-25165	,	3.1467795	,	7
42,6	,	30707	,	-27565	,	-25161	,	-0.1300559	,	2
42,6	,	30723	,	-27568	,	-25139	,	-2.4600499	,	0
42,6	,	30755	,	-27564	,	-25180	,	-3.9476907	,	0
42,6	,	30771	,	-27576	,	-25125	,	-4.7614717	,	0
42,6	,	30803	,	-27585	,	-25158	,	-5.195005	,	0
42,6	,	30819	,	-27606	,	-25175	,	-5.733735	,	0
42,6	,	30835	,	-27590	,	-25167	,	-6.8081675	,	0
42,6	,	30867	,	-27604	,	-25169	,	-8.425945	,	0
42,6	,	30883	,	-27604	,	-25183	,	-10.279061	,	0
42,6	,	30899	,	-27627	,	-25194	,	-12.162649	,	0
42,6	,	30931	,	-27623	,	-25184	,	-14.080003	,	0
42,7	,	30947	,	-27635	,	-25189	,	-16.030024	,	0
42,7	,	30979	,	-27638	,	-25197	,	-17.899303	,	0
42,7	,	30995	,	-27636	,	-25191	,	-19.501251	,	0
42,7	,	31011	,	-27651	,	-25164	,	-20.63629	,	0
42,7	,	31043	,	-27653	,	-25187	,	-21.246857	,	0
42,7	,	31059	,	-27671	,	-25204	,	-21.482304	,	0
42,7	,	31075	,	-27683	,	-25200	,	-21.638527	,	0
42,7	,	31107	,	-27690	,	-25201	,	-22.03853	,	0
42,7	,	31123	,	-27671	,	-25210	,	-22.697649	,	0
42,7	,	31139	,	-27663	,	-25191	,	-23.08403	,	0
42,7	,	31171	,	-27645	,	-25184	,	-22.377071	,	0
42,7	,	31187	,	-27629	,	-25184	,	-19.895565	,	0
42,7	,	31219	,	-27606	,	-25183	,	-15.271471	,	2
42,7	,	31235	,	-27596	,	-25187	,	-8.507751	,	6
42,7	,	31251	,	-27591	,	-25126	,	-0.09577465	,	12
42,7	,	31282	,	-27582	,	-25163	,	9.017981	,	20
42,7	,	31299	,	-27583	,	-25156	,	17.721596	,	29
42,7	,	31315	,	-27578	,	-25164	,	25.02273	,	37
42,7	,	31347	,	-27574	,	-25154	,	30.24115	,	44
42,7	,	31363	,	-27584	,	-25157	,	33.05331	,	49
42,7	,	31397	,	-27568	,	-25170	,	33.43944	,	51
42,7	,	31410	,	-27574	,	-25178	,	31.73608	,	49
42,7	,	31426	,	-27582	,	-25155	,	28.479275	,	45
42,7	,	31458	,	-27573	,	-25156	,	24.152954	,	39
42,7	,	31475	,	-27572	,	-25173	,	19.283272	,	31
42,7	,	31491	,	-27570	,	-25147	,	14.470782	,	22
42,7	,	31522	,	-27577	,	-25150	,	10.1646	,	14
42,7	,	31538	,	-27573	,	-25163	,	6.561742	,	7
42,7	,	31554	,	-27567	,	-25153	,	3.745739	,	2
42,7	,	31586	,	-27574	,	-25169	,	1.7776256	,	0
42,7	,	31602	,	-27578	,	-25162	,	0.56508327	,	0
42,7	,	31634	,	-27589	,	-25173	,	-0.21599805	,	0
42,7	,	31651	,	-27600	,	-25172	,	-1.0233674	,	0
42,7	,	31666	,	-27593	,	-25167	,	-2.2167714	,	0
42,7	,	31699	,	-27590	,	-25188	,	-3.7688665	,	0
42,7	,	31714	,	-27608	,	-25206	,	-5.3867316	,	0
42,7	,	31730	,	-27617	,	-25157	,	-6.9786615	,	0
42,7	,	31762	,	-27620	,	-25184	,	-8.68869	,	0
42,7	,	31778	,	-27625	,	-25172	,	-10.565306	,	0
42,7	,	31810	,	-27636	,	-25195	,	-12.5110855	,	0
42,7	,	31826	,	-27646	,	-25198	,	-14.460705	,	0
42,7	,	31842	,	-27635	,	-25192	,	-16.331993	,	0
42,7	,	31874	,	-27649	,	-25195	,	-17.882277	,	0
42,7	,	31890	,	-27657	,	-25207	,	-18.920744	,	0
42,7	,	31906	,	-27660	,	-25197	,	-19.505405	,	0
42,7	,	31938	,	-27658	,	-25208	,	-19.727886	,	0
42,8	,	31954	,	-27681	,	-25240	,	-19.636204	,	0
42,8	,	31986	,	-27677	,	-25191	,	-19.407742	,	0
42,8	,	32002	,	-27703	,	-25225	,	-19.321398	,	0
42,8	,	32018	,	-27683	,	-25203	,	-19.542253	,	0
42,8	,	32050	,	-27673	,	-25213	,	-19.811363	,	0
42,8	,	32066	,	-27665	,	-25191	,	-19.445644	,	0
42,8	,	32082	,	-27638	,	-25186	,	-17.741604	,	0
42,8	,	32114	,	-27615	,	-25181	,	-14.136312	,	1
42,8	,	32130	,	-27625	,	-25167	,	-8.4173565	,	4
42,8	,	32146	,	-27600	,	-25177	,	-1.0534687	,	9
42,8	,	32178	,	-27605	,	-25154	,	7.0450006	,	16
42,8	,	32194	,	-27607	,	-25184	,	14.85322	,	24
42,8	,	32226	,	-27602	,	-25144	,	21.351954	,	31
42,8	,	32242	,	-27595	,	-25164	,	25.861708	,	37
42,8	,	32258	,	-27597	,	-25155	,	28.217417	,	41
42,8	,	32290	,	-27602	,	-25170	,	28.535324	,	43
42,8	,	32306	,	-27604	,	-25164	,	27.010494	,	42
42,8	,	32322	,	-27601	,	-25159	,	23.957285	,	39
42,8	,	32354	,	-27605	,	-25150	,	19.856745	,	34
42,8	,	32370	,	-27608	,	-25166	,	15.230901	,	27
42,8	,	32402	,	-27588	,	-25164	,	10.614461	,	19
42,8	,	32418	,	-27585	,	-25174	,	6.660158	,	12
42,8	,	32434	,	-27594	,	-25160	,	3.8900123	,	6
42,8	,	32466	,	-27587	,	-25152	,	2.3506665	,	2
42,8	,	32482	,	-27594	,	-25165	,	1.7525692	,	0
42,8	,	32498	,	-27604	,	-25147	,	1.6742378	,	0
42,8	,	32530	,	-27594	,	-25163	,	1.661407	,	0
42,8	,	32546	,	-27615	,	-25178	,	1.3937286	,	0
42,8	,	32562	,	-27611	,	-25145	,	0.66287917	,	0
42,8	,	32594	,	-27620	,	-25192	,	-0.64116365	,	0
42,8	,	32610	,	-27620	,	-25145	,	-2.4366798	,	0
42,8	,	32642	,	-27630	,	-25181	,	-4.5285068	,	0
42,8	,	32658	,	-27632	,	-25184	,	-6.7353644	,	0
42,8	,	32674	,	-27651	,	-25189	,	-8.972971	,	0
42,8	,	32706	,	-27641	,	-25194	,	-11.225286	,	0
42,8	,	32722	,	-27650	,	-25178	,	-13.35376	,	0
42,8	,	32738	,	-27659	,	-25189	,	-15.1402445	,	0
42,8	,	32770	,	-27669	,	-25199	,	-16.547321	,	0
42,8	,	32786	,	-27681	,	-25180	,	-17.734768	,	0
42,8	,	32818	,	-27683	,	-25189	,	-18.876663	,	0
42,8	,	32834	,	-27685	,	-25193	,	-19.985943	,	0
42,8	,	32850	,	-27695	,	-25177	,	-20.918285	,	0
42,8	,	32882	,	-27693	,	-25215	,	-21.530567	,	0
42,8	,	32898	,	-27704	,	-25200	,	-21.742569	,	0
42,8	,	32914	,	-27706	,	-25201	,	-21.556995	,	0
42,9	,	32946	,	-27705	,	-25202	,	-21.024708	,	0
42,9	,	32962	,	-27656	,	-25178	,	-19.898033	,	0
42,9	,	32978	,	-27641	,	-25189	,	-17.36221	,	1
42,9	,	33010	,	-27625	,	-25171	,	-12.575367	,	3
42,9	,	33026	,	-27617	,	-25172	,	-5.4432964	,	7
42,9	,	33058	,	-27599	,	-25149	,	3.37049	,	14
42,9	,	33074	,	-27608	,	-25160	,	12.816501	,	22
42,9	,	33090	,	-27608	,	-25142	,	21.624886	,	31
42,9	,	33122	,	-27607	,	-25163	,	28.561752	,	39
42,9	,	33138	,	-27598	,	-25144	,	32.87921	,	45
42,9	,	33154	,	-27592	,	-25154	,	34.52049	,	49
42,9	,	33186	,	-27587	,	-25164	,	33.94067	,	49
42,9	,	33202	,	-27589	,	-25165	,	31.765541	,	47
42,9	,	33234	,	-27598	,	-25149	,	28.49589	,	43
42,9	,	33250	,	-27583	,	-25129	,	24.492718	,	36
42,9	,	33266	,	-27581	,	-25155	,	20.209085	,	28
42,9	,	33298	,	-27582	,	-25133	,	16.17008	,	19
42,9	,	33314	,	-27573	,	-25153	,	12.745998	,	11
42,9	,	33330	,	-27582	,	-25133	,	10.095655	,	5
42,9	,	33362	,	-27575	,	-25145	,	8.169012	,	1
42,9	,	33378	,	-27585	,	-25163	,	6.766135	,	0
42,9	,	33394	,	-27588	,	-25126	,	5.6183233	,	0
42,9	,	33425	,	-27595	,	-25154	,	4.421097	,	0
42,9	,	33441	,	-27603	,	-25164	,	2.9141676	,	0
42,9	,	33474	,	-27605	,	-25138	,	0.96001506	,	0
42,9	,	33490	,	-27609	,	-25167	,	-1.4035144	,	0
42,9	,	33506	,	-27620	,	-25164	,	-4.0193133	,	0
42,9	,	33538	,	-27616	,	-25156	,	-6.711449	,	0
42,9	,	33554	,	-27625	,	-25173	,	-9.267375	,	0
42,9	,	33570	,	-27627	,	-25186	,	-11.476975	,	0
42,9	,	33601	,	-27625	,	-25185	,	-13.186395	,	0
42,9	,	33617	,	-27636	,	-25190	,	-14.292059	,	0
42,9	,	33650	,	-27637	,	-25162	,	-14.821545	,	0
42,9	,	33666	,	-27641	,	-25180	,	-14.914174	,	0
42,9	,	33682	,	-27661	,	-25191	,	-14.773192	,	0
42,9	,	33713	,	-27662	,	-25192	,	-14.717232	,	0
42,9	,	33730	,	-27682	,	-25191	,	-15.073416	,	0
42,9	,	33746	,	-27685	,	-25204	,	-16.036129	,	0
42,9	,	33778	,	-27683	,	-25188	,	-17.554726	,	0
42,9	,	33793	,	-27692	,	-25207	,	-19.28611	,	0
42,9	,	33826	,	-27686	,	-25201	,	-20.783674	,	0
42,9	,	33842	,	-27677	,	-25190	,	-21.598797	,	0
42,9	,	33858	,	-27661	,	-25175	,	-21.22689	,	0
42,9	,	33889	,	-27641	,	-25153	,	-19.15829	,	0
42,9	,	33906	,	-27612	,	-25161	,	-14.970475	,	2
42,9	,	33921	,	-27613	,	-25148	,	-8.534699	,	6
42,10	,	33953	,	-27600	,	-25145	,	-0.320611	,	12
42,10	,	33969	,	-27594	,	-25159	,	8.686266	,	20
42,10	,	34001	,	-27601	,	-25155	,	17.337988	,	29
42,10	,	34017	,	-27587	,	-25157	,	24.570404	,	37
42,10	,	34033	,	-27581	,	-25122	,	29.7229	,	44
42,10	,	34066	,	-27578	,	-25153	,	32.678715	,	49
42,10	,	34082	,	-27581	,	-25150	,	33.595192	,	51
42,10	,	34098	,	-27579	,	-25150	,	32.683178	,	49
42,10	,	34129	,	-27580	,	-25120	,	30.224163	,	45
42,10	,	34145	,	-27569	,	-25136	,	26.65068	,	39
42,10	,	34177	,	-27566	,	-25151	,	22.563807	,	31
42,10	,	34193	,	-27566	,	-25118	,	18.568844	,	22
42,10	,	34209	,	-27570	,	-25108	,	15.022598	,	14
42,10	,	34241	,	-27560	,	-25137	,	12.027157	,	7
42,10	,	34258	,	-27556	,	-25118	,	9.659102	,	2
42,10	,	34274	,	-27573	,	-25125	,	7.9446306	,	0
42,10	,	34305	,	-27563	,	-25107	,	6.6724825	,	0
42,10	,	34321	,	-27567	,	-25131	,	5.5787606	,	0
42,10	,	34337	,	-27579	,	-25110	,	4.5005913	,	0
42,10	,	34369	,	-27580	,	-25140	,	3.243068	,	0
42,10	,	34385	,	-27592	,	-25147	,	1.6134219	,	0
42,10	,	34417	,	-27585	,	-25147	,	-0.43063712	,	0
42,10	,	34433	,	-27594	,	-25137	,	-2.732862	,	0
42,10	,	34449	,	-27598	,	-25134	,	-5.0577755	,	0
42,10	,	34481	,	-27629	,	-25151	,	-7.3747683	,	0
42,10	,	34497	,	-27619	,	-25143	,	-9.896988	,	0
42,10	,	34513	,	-27611	,	-25158	,	-12.595723	,	0
42,10	,	34545	,	-27621	,	-25157	,	-14.981169	,	0
42,10	,	34561	,	-27616	,	-25180	,	-16.569458	,	0
42,10	,	34593	,	-27637	,	-25170	,	-17.246086	,	0
42,10	,	34609	,	-27644	,	-25171	,	-17.291702	,	0
42,10	,	34625	,	-27649	,	-25186	,	-17.16861	,	0
42,10	,	34657	,	-27662	,	-25178	,	-17.215084	,	0
42,10	,	34673	,	-27655	,	-25177	,	-17.54712	,	0
42,10	,	34689	,	-27647	,	-25171	,	-17.959057	,	0
42,10	,	34721	,	-27635	,	-25150	,	-17.904938	,	0
42,10	,	34737	,	-27605	,	-25155	,	-16.684628	,	0
42,10	,	34753	,	-27584	,	-25134	,	-13.592075	,	1
42,10	,	34785	,	-27557	,	-25105	,	-8.12153	,	4
42,10	,	34801	,	-27546	,	-25147	,	-0.25244093	,	9
42,10	,	34833	,	-27538	,	-25088	,	9.3889675	,	16
42,10	,	34849	,	-27523	,	-25100	,	19.67639	,	25
42,10	,	34865	,	-27506	,	-25070	,	29.455744	,	35
42,10	,	34897	,	-27509	,	-25095	,	37.838905	,	44
42,10	,	34913	,	-27510	,	-25079	,	44.085304	,	52
42,10	,	34929	,	-27510	,	-25085	,	47.576206	,	58
42,11	,	34961	,	-27512	,	-25095	,	48.027447	,	60
42,11	,	34977	,	-27507	,	-25086	,	45.61225	,	57
42,11	,	35009	,	-27506	,	-25077	,	40.919647	,	52
42,11	,	35025	,	-27493	,	-25088	,	34.838196	,	45
42,11	,	35041	,	-27489	,	-25104	,	28.39407	,	36
42,11	,	35073	,	-27478	,	-25061	,	22.525957	,	26
42,11	,	35089	,	-27480	,	-25079	,	17.859436	,	17
42,11	,	35105	,	-27478	,	-25072	,	14.581371	,	9
42,11	,	35137	,	-27479	,	-25082	,	12.491636	,	3
42,11	,	35153	,	-27477	,	-25083	,	11.218484	,	0
42,11	,	35169	,	-27490	,	-25076	,	10.345457	,	0
42,11	,	35201	,	-27484	,	-25080	,	9.443301	,	0
42,11	,	35217	,	-27480	,	-25079	,	8.269627	,	0
42,11	,	35249	,	-27483	,	-25094	,	6.884851	,	0
42,11	,	35265	,	-27504	,	-25118	,	5.345529	,	0
42,11	,	35281	,	-27499	,	-25095	,	3.4837885	,	0
42,11	,	35313	,	-27509	,	-25092	,	1.1683602	,	0
42,11	,	35329	,	-27530	,	-25095	,	-1.5985873	,	0
42,11	,	35345	,	-27534	,	-25094	,	-4.8720307	,	0
42,11	,	35377	,	-27543	,	-25095	,	-8.643455	,	0
42,11	,	35393	,	-27556	,	-25126	,	-12.70512	,	0
42,11	,	35425	,	-27544	,	-25131	,	-16.704498	,	0
42,11	,	35441	,	-27553	,	-25112	,	-20.126244	,	0
42,11	,	35457	,	-27554	,	-25111	,	-22.479088	,	0
42,11	,	35489	,	-27545	,	-25108	,	-23.501572	,	0
42,11	,	35505	,	-27559	,	-25151	,	-23.134533	,	0
42,11	,	35521	,	-27572	,	-25129	,	-21.652908	,	0
42,11	,	35553	,	-27603	,	-25129	,	-19.8148	,	1
42,11	,	35569	,	-27578	,	-25143	,	-18.456419	,	2
42,11	,	35601	,	-27584	,	-25126	,	-17.782429	,	3
42,11	,	35617	,	-27558	,	-25136	,	-17.271255	,	3
42,11	,	35633	,	-27539	,	-25116	,	-16.071133	,	3
42,11	,	35665	,	-27507	,	-25110	,	-13.261134	,	4
42,11	,	35681	,	-27494	,	-25104	,	-8.162569	,	6
42,11	,	35697	,	-27477	,	-25084	,	-0.7152519	,	11
42,11	,	35729	,	-27466	,	-25085	,	8.460558	,	18
42,11	,	35745	,	-27451	,	-25071	,	18.35694	,	26
42,11	,	35760	,	-27449	,	-25054	,	27.885971	,	34
42,11	,	35793	,	-27443	,	-25072	,	36.02747	,	42
42,11	,	35809	,	-27429	,	-25070	,	42.02524	,	50
42,11	,	35841	,	-27428	,	-25069	,	45.577946	,	55
42,11	,	35857	,	-27422	,	-25083	,	46.749763	,	57
42,11	,	35873	,	-27435	,	-25098	,	45.716354	,	56
42,11	,	35905	,	-27438	,	-25059	,	42.610138	,	51
42,11	,	35920	,	-27437	,	-25058	,	37.631874	,	44
42,11	,	35937	,	-27428	,	-25062	,	31.301601	,	35
42,12	,	35968	,	-27411	,	-25046	,	24.528532	,	26
42,12	,	35985	,	-27414	,	-25050	,	18.35652	,	17
42,12	,	36017	,	-27417	,	-25041	,	13.467432	,	9
42,12	,	36033	,	-27417	,	-25042	,	9.94969	,	4
42,12	,	36049	,	-27420	,	-25059	,	7.5353575	,	1
42,12	,	36081	,	-27417	,	-25055	,	5.886871	,	0
42,12	,	36097	,	-27427	,	-25065	,	4.698886	,	0
42,12	,	36112	,	-27429	,	-25056	,	3.6712708	,	0
42,12	,	36144	,	-27429	,	-25090	,	2.5546246	,	0
42,12	,	36160	,	-27449	,	-25064	,	1.1848285	,	0
42,12	,	36177	,	-27443	,	-25101	,	-0.58370423	,	0
42,12	,	36209	,	-27444	,	-25069	,	-2.7323952	,	0
42,12	,	36225	,	-27452	,	-25094	,	-4.9982886	,	0
42,12	,	36257	,	-27457	,	-25069	,	-7.136318	,	0
42,12	,	36272	,	-27483	,	-25081	,	-9.155314	,	0
42,12	,	36288	,	-27495	,	-25094	,	-11.361841	,	0
42,12	,	36320	,	-27500	,	-25110	,	-14.0867195	,	0
42,12	,	36336	,	-27507	,	-25121	,	-17.307623	,	0
42,12	,	36352	,	-27499	,	-25120	,	-20.601616	,	0
42,12	,	36384	,	-27519	,	-25112	,	-23.408598	,	0
42,12	,	36400	,	-27522	,	-25102	,	-25.404167	,	0
42,12	,	36432	,	-27532	,	-25140	,	-26.592192	,	0
42,12	,	36448	,	-27545	,	-25140	,	-27.147053	,	0
42,12	,	36464	,	-27548	,	-25147	,	-27.309727	,	0
42,12	,	36497	,	-27551	,	-25115	,	-27.228954	,	0
42,12	,	36513	,	-27508	,	-25105	,	-26.657629	,	0
42,12	,	36529	,	-27492	,	-25092	,	-24.774536	,	0
42,12	,	36560	,	-27473	,	-25098	,	-20.644642	,	1
42,12	,	36576	,	-27445	,	-25062	,	-13.8654785	,	5
42,12	,	36592	,	-27437	,	-25081	,	-4.6737766	,	11
42,12	,	36624	,	-27426	,	-25088	,	6.126277	,	20
42,12	,	36640	,	-27425	,	-25051	,	17.27675	,	30
42,12	,	36672	,	-27423	,	-25056	,	27.376993	,	41
42,12	,	36688	,	-27409	,	-25061	,	35.29062	,	51
42,12	,	36704	,	-27417	,	-25065	,	40.42047	,	58
42,12	,	36736	,	-27415	,	-25053	,	42.5978	,	63
42,12	,	36752	,	-27423	,	-25082	,	41.887695	,	64
42,12	,	36768	,	-27419	,	-25062	,	38.605324	,	60
42,12	,	36800	,	-27425	,	-25042	,	33.338436	,	54
42,12	,	36816	,	-27410	,	-25056	,	26.896328	,	45
42,12	,	36848	,	-27406	,	-25064	,	20.25297	,	35
42,12	,	36864	,	-27402	,	-25045	,	14.348383	,	24
42,12	,	36880	,	-27402	,	-25076	,	9.781128	,	14
42,12	,	36912	,	-27396	,	-25044	,	6.726081	,	7
42,12	,	36928	,	-27412	,	-25050	,	5.003228	,	2
42,13	,	36944	,	-27412	,	-25102	,	4.1152773	,	0
42,13	,	36976	,	-27417	,	-25032	,	3.4695382	,	0
42,13	,	36992	,	-27412	,	-25052	,	2.6974463	,	0
42,13	,	37008	,	-27431	,	-25090	,	1.6589116	,	0
42,13	,	37040	,	-27437	,	-25073	,	0.20410669	,	0
42,13	,	37056	,	-27449	,	-25067	,	-1.8594377	,	0
42,13	,	37088	,	-27445	,	-25077	,	-4.553145	,	0
42,13	,	37104	,	-27447	,	-25076	,	-7.5852323	,	0
42,13	,	37120	,	-27443	,	-25102	,	-10.4378605	,	0
42,13	,	37152	,	-27471	,	-25103	,	-12.726265	,	0
42,13	,	37168	,	-27477	,	-25095	,	-14.5373745	,	0
42,13	,	37184	,	-27483	,	-25120	,	-16.214785	,	0
42,13	,	37216	,	-27492	,	-25073	,	-17.928352	,	0
42,13	,	37232	,	-27499	,	-25130	,	-19.64769	,	0
42,13	,	37264	,	-27511	,	-25096	,	-21.306595	,	0
42,13	,	37280	,	-27504	,	-25134	,	-22.807114	,	0
42,13	,	37296	,	-27520	,	-25109	,	-23.965597	,	0
42,13	,	37328	,	-27523	,	-25110	,	-24.646954	,	0
42,13	,	37344	,	-27536	,	-25116	,	-24.900105	,	0
42,13	,	37360	,	-27536	,	-25135	,	-24.8585	,	0
42,13	,	37392	,	-27515	,	-25108	,	-24.466732	,	0
42,13	,	37408	,	-27494	,	-25104	,	-23.22824	,	0
42,13	,	37439	,	-27477	,	-25100	,	-20.385025	,	1
42,13	,	37456	,	-27450	,	-25074	,	-15.377335	,	3
42,13	,	37472	,	-27432	,	-25087	,	-8.060268	,	8
42,13	,	37504	,	-27411	,	-25060	,	1.2739344	,	15
42,13	,	37520	,	-27417	,	-25061	,	11.836727	,	24
42,13	,	37536	,	-27427	,	-25062	,	22.277954	,	34
42,13	,	37568	,	-27416	,	-25061	,	31.014076	,	44
42,13	,	37584	,	-27418	,	-25058	,	36.925007	,	52
42,13	,	37600	,	-27421	,	-25084	,	39.6125	,	57
42,13	,	37632	,	-27419	,	-25052	,	39.187893	,	58
42,13	,	37648	,	-27416	,	-25054	,	36.156063	,	56
42,13	,	37680	,	-27430	,	-25072	,	31.251972	,	51
42,13	,	37696	,	-27431	,	-25045	,	25.148146	,	44
42,13	,	37712	,	-27410	,	-25047	,	18.51786	,	35
42,13	,	37744	,	-27401	,	-25050	,	12.30413	,	25
42,13	,	37760	,	-27413	,	-25058	,	7.4141283	,	15
42,13	,	37776	,	-27419	,	-25048	,	4.1108694	,	7
42,13	,	37808	,	-27418	,	-25052	,	2.0475159	,	2
42,13	,	37823	,	-27434	,	-25056	,	0.70102024	,	0
42,13	,	37856	,	-27430	,	-25056	,	-0.42307103	,	0
42,13	,	37872	,	-27431	,	-25058	,	-1.6202723	,	0
42,13	,	37888	,	-27430	,	-25098	,	-2.8706048	,	0
42,13	,	37920	,	-27441	,	-25073	,	-4.040925	,	0
42,13	,	37936	,	-27446	,	-25077	,	-5.134129	,	0
42,14	,	37952	,	-27451	,	-25086	,	-6.2716265	,	0
42,14	,	37983	,	-27469	,	-25075	,	-7.5980673	,	0
42,14	,	38000	,	-27470	,	-25098	,	-9.268139	,	0
42,14	,	38016	,	-27473	,	-25075	,	-11.300295	,	0
42,14	,	38048	,	-27487	,	-25096	,	-13.509009	,	0
42,14	,	38063	,	-27495	,	-25094	,	-15.729551	,	0
42,14	,	38095	,	-27495	,	-25088	,	-17.869366	,	0
42,14	,	38112	,	-27495	,	-25104	,	-19.718344	,	0
42,14	,	38128	,	-27487	,	-25090	,	-20.907242	,	0
42,14	,	38159	,	-27518	,	-25099	,	-21.199413	,	0
42,14	,	38176	,	-27539	,	-25119	,	-20.93502	,	0
42,14	,	38192	,	-27550	,	-25129	,	-20.921902	,	0
42,14	,	38224	,	-27545	,	-25120	,	-21.694183	,	0
42,14	,	38240	,	-27531	,	-25135	,	-23.001923	,	0
42,14	,	38271	,	-27524	,	-25112	,	-23.980984	,	0
42,14	,	38287	,	-27485	,	-25088	,	-23.584316	,	0
42,14	,	38303	,	-27460	,	-25076	,	-20.796967	,	0
42,14	,	38336	,	-27443	,	-25062	,	-14.941256	,	2
42,14	,	38352	,	-27430	,	-25060	,	-6.1309614	,	7
42,14	,	38368	,	-27422	,	-25072	,	4.6945257	,	15
42,14	,	38400	,	-27416	,	-25047	,	16.129883	,	25
42,14	,	38415	,	-27402	,	-25055	,	26.753252	,	36
42,14	,	38431	,	-27403	,	-25049	,	35.473915	,	46
42,14	,	38463	,	-27398	,	-25048	,	41.596767	,	54
42,14	,	38479	,	-27405	,	-25044	,	44.75015	,	60
42,14	,	38511	,	-27399	,	-25042	,	44.88418	,	63
42,14	,	38527	,	-27401	,	-25046	,	42.313988	,	61
42,14	,	38544	,	-27392	,	-25050	,	37.695625	,	56
42,14	,	38575	,	-27398	,	-25064	,	31.861591	,	48
42,14	,	38591	,	-27386	,	-25040	,	25.62361	,	38
42,14	,	38607	,	-27393	,	-25049	,	19.666744	,	27
42,14	,	38639	,	-27390	,	-25040	,	14.44912	,	17
42,14	,	38655	,	-27388	,	-25037	,	10.174429	,	9
42,14	,	38687	,	-27387	,	-25035	,	6.9015846	,	3
42,14	,	38704	,	-27398	,	-25052	,	4.5445104	,	0
42,14	,	38719	,	-27402	,	-25045	,	2.8062434	,	0
42,14	,	38751	,	-27404	,	-25049	,	1.3163624	,	0
42,14	,	38767	,	-27407	,	-25060	,	-0.1538446	,	0
42,14	,	38783	,	-27422	,	-25061	,	-1.7168609	,	0
42,14	,	38815	,	-27426	,	-25079	,	-3.5159433	,	0
42,14	,	38831	,	-27421	,	-25057	,	-5.602274	,	0
42,14	,	38847	,	-27421	,	-25091	,	-7.7308793	,	0
42,14	,	38879	,	-27429	,	-25070	,	-9.531834	,	0
42,14	,	38895	,	-27459	,	-25074	,	-10.956507	,	0
42,14	,	38927	,	-27455	,	-25098	,	-12.376493	,	0
42,15	,	38943	,	-27458	,	-25084	,	-14.074896	,	0
42,15	,	38959	,	-27469	,	-25099	,	-15.94668	,	0
42,15	,	38991	,	-27474	,	-25095	,	-17.782486	,	0
42,15	,	39007	,	-27478	,	-25083	,	-19.435095	,	0
42,15	,	39023	,	-27486	,	-25090	,	-20.767876	,	0
42,15	,	39055	,	-27496	,	-25112	,	-21.719131	,	0
42,15	,	39071	,	-27496	,	-25099	,	-22.325577	,	0
42,15	,	39103	,	-27514	,	-25130	,	-22.658295	,	0
42,15	,	39119	,	-27506	,	-25082	,	-22.796352	,	0
42,15	,	39135	,	-27472	,	-25077	,	-22.53341	,	0
42,15	,	39167	,	-27446	,	-25069	,	-21.05409	,	0
42,15	,	39183	,	-27425	,	-25062	,	-17.331161	,	1
42,15	,	39199	,	-27404	,	-25058	,	-10.841638	,	4
42,15	,	39231	,	-27397	,	-25050	,	-1.8566456	,	10
42,15	,	39247	,	-27382	,	-25043	,	8.67743	,	18
42,15	,	39263	,	-27383	,	-25057	,	19.46126	,	28
42,15	,	39295	,	-27369	,	-25038	,	29.202574	,	38
42,15	,	39311	,	-27374	,	-25055	,	36.884594	,	47
42,15	,	39343	,	-27371	,	-25061	,	41.85233	,	54
42,15	,	39359	,	-27374	,	-25030	,	43.808487	,	58
42,15	,	39375	,	-27368	,	-25041	,	42.862495	,	58
42,15	,	39407	,	-27370	,	-25035	,	39.50981	,	55
42,15	,	39423	,	-27365	,	-25041	,	34.476658	,	49
42,15	,	39439	,	-27361	,	-25029	,	28.5735	,	41
42,15	,	39471	,	-27365	,	-25042	,	22.555775	,	31
42,15	,	39487	,	-27356	,	-25033	,	16.993572	,	21
42,15	,	39519	,	-27352	,	-25032	,	12.307045	,	12
42,15	,	39535	,	-27362	,	-25026	,	8.745941	,	5
42,15	,	39551	,	-27358	,	-25042	,	6.2409368	,	1
42,15	,	39583	,	-27355	,	-25050	,	4.540649	,	0
42,15	,	39599	,	-27370	,	-25019	,	3.393557	,	0
42,15	,	39615	,	-27388	,	-25071	,	2.382277	,	0
42,15	,	39647	,	-27382	,	-25034	,	0.96360373	,	0
42,15	,	39663	,	-27385	,	-25048	,	-1.0758238	,	0
42,15	,	39695	,	-27400	,	-25054	,	-3.5616643	,	0
42,15	,	39711	,	-27397	,	-25061	,	-6.2794685	,	0
42,15	,	39727	,	-27400	,	-25066	,	-9.002732	,	0
42,15	,	39759	,	-27422	,	-25073	,	-11.507617	,	0
42,15	,	39775	,	-27414	,	-25076	,	-13.7469635	,	0
42,15	,	39791	,	-27430	,	-25095	,	-15.728541	,	0
42,15	,	39823	,	-27441	,	-25085	,	-17.45644	,	0
42,15	,	39839	,	-27456	,	-25072	,	-19.079124	,	0
42,15	,	39854	,	-27457	,	-25081	,	-20.77602	,	0
42,15	,	39887	,	-27461	,	-25093	,	-22.505596	,	0
42,15	,	39903	,	-27481	,	-25107	,	-24.077393	,	0
42,15	,	39935	,	-27487	,	-25099	,	-25.441923	,	0
42,16	,	39951	,	-27485	,	-25096	,	-26.61821	,	0
42,16	,	39967	,	-27501	,	-25128	,	-27.49078	,	0
42,16	,	39999	,	-27508	,	-25097	,	-27.979229	,	0
42,16	,	40015	,	-27485	,	-25093	,	-28.014164	,	0
42,16	,	40031	,	-27483	,	-25093	,	-27.22908	,	0
42,16	,	40063	,	-27463	,	-25095	,	-25.085846	,	0
42,16	,	40079	,	-27433	,	-25060	,	-21.118237	,	2
42,16	,	40111	,	-27408	,	-25086	,	-14.929243	,	5
42,16	,	40152	,	-27392	,	-25067	,	3.728115	,	19
42,16	,	40175	,	-27391	,	-25062	,	14.39119	,	29
42,16	,	40191	,	-27390	,	-25047	,	24.171911	,	39
42,16	,	40207	,	-27391	,	-25079	,	31.870806	,	48
42,16	,	40239	,	-27388	,	-25052	,	36.717545	,	55
42,16	,	40255	,	-27388	,	-25047	,	38.49486	,	59
42,16	,	40270	,	-27392	,	-25082	,	37.443096	,	58
42,16	,	40303	,	-27394	,	-25062	,	34.052864	,	55
42,16	,	40319	,	-27388	,	-25045	,	28.980238	,	49
42,16	,	40351	,	-27376	,	-25052	,	23.090477	,	41
42,16	,	40367	,	-27372	,	-25063	,	17.374245	,	31
42,16	,	40382	,	-27378	,	-25059	,	12.595615	,	21
42,16	,	40415	,	-27378	,	-25057	,	9.00144	,	12
42,16	,	40431	,	-27388	,	-25039	,	6.40606	,	5
42,16	,	40447	,	-27386	,	-25047	,	4.450273	,	1
42,16	,	40478	,	-27388	,	-25056	,	2.8295293	,	0
42,16	,	40494	,	-27388	,	-25053	,	1.402122	,	0
42,16	,	40526	,	-27392	,	-25069	,	0.12589216	,	0
42,16	,	40542	,	-27405	,	-25056	,	-1.0838484	,	0
42,16	,	40558	,	-27413	,	-25089	,	-2.4425704	,	0
42,16	,	40590	,	-27418	,	-25059	,	-4.182501	,	0
42,16	,	40606	,	-27419	,	-25065	,	-6.334981	,	0
42,16	,	40622	,	-27428	,	-25065	,	-8.711151	,	0
42,16	,	40654	,	-27444	,	-25090	,	-11.135163	,	0
42,16	,	40670	,	-27454	,	-25069	,	-13.619236	,	0
42,16	,	40686	,	-27465	,	-25102	,	-16.254774	,	0
42,16	,	40718	,	-27450	,	-25094	,	-18.928038	,	0
42,16	,	40734	,	-27458	,	-25091	,	-21.18208	,	0
42,16	,	40766	,	-27471	,	-25130	,	-22.573898	,	0
42,16	,	40782	,	-27479	,	-25105	,	-23.097822	,	0
42,16	,	40798	,	-27484	,	-25099	,	-23.049881	,	0
42,16	,	40831	,	-27501	,	-25099	,	-22.75528	,	0
42,16	,	40847	,	-27507	,	-25116	,	-22.536255	,	0
42,16	,	40862	,	-27499	,	-25110	,	-22.547312	,	0
42,16	,	40894	,	-27478	,	-25083	,	-22.461027	,	0
42,16	,	40910	,	-27457	,	-25103	,	-21.472086	,	0
42,17	,	40942	,	-27433	,	-25070	,	-18.677998	,	0
42,17	,	40958	,	-27416	,	-25066	,	-13.500387	,	2
42,17	,	40975	,	-27395	,	-25074	,	-5.9125633	,	7
42,17	,	41006	,	-27396	,	-25056	,	3.5087156	,	14
42,17	,	41022	,	-27391	,	-25054	,	13.638054	,	23
42,17	,	41038	,	-27399	,	-25053	,	23.049421	,	33
42,17	,	41070	,	-27393	,	-25069	,	30.431551	,	42
42,17	,	41086	,	-27391	,	-25047	,	34.98352	,	49
42,17	,	41102	,	-27397	,	-25050	,	36.523384	,	53
42,17	,	41134	,	-27397	,	-25060	,	35.283394	,	54
42,17	,	41150	,	-27406	,	-25053	,	31.719767	,	52
42,17	,	41182	,	-27396	,	-25066	,	26.466888	,	47
42,17	,	41198	,	-27390	,	-25061	,	20.37366	,	40
42,17	,	41214	,	-27378	,	-25050	,	14.449395	,	31
42,17	,	41246	,	-27369	,	-25075	,	9.628831	,	21
42,17	,	41262	,	-27378	,	-25052	,	6.4575977	,	12
42,17	,	41278	,	-27392	,	-25057	,	4.8141136	,	5
42,17	,	41310	,	-27392	,	-25053	,	4.0283933	,	1
42,17	,	41327	,	-27383	,	-25039	,	3.466371	,	0
42,17	,	41358	,	-27390	,	-25052	,	2.8924603	,	0
42,17	,	41374	,	-27403	,	-25061	,	2.219987	,	0
42,17	,	41390	,	-27402	,	-25064	,	1.2519766	,	0
42,17	,	41422	,	-27406	,	-25062	,	-0.1522733	,	0
42,17	,	41438	,	-27417	,	-25065	,	-1.9606819	,	0
42,17	,	41454	,	-27424	,	-25062	,	-4.116677	,	0
42,17	,	41486	,	-27427	,	-25076	,	-6.5683017	,	0
42,17	,	41502	,	-27441	,	-25056	,	-9.202491	,	0
42,17	,	41534	,	-27446	,	-25077	,	-11.9047985	,	0
42,17	,	41550	,	-27450	,	-25092	,	-14.563665	,	0
42,17	,	41566	,	-27452	,	-25089	,	-16.98134	,	0
42,17	,	41598	,	-27471	,	-25087	,	-18.974308	,	0
42,17	,	41614	,	-27473	,	-25084	,	-20.552425	,	0
42,17	,	41630	,	-27485	,	-25110	,	-21.84	,	0
42,17	,	41662	,	-27482	,	-25113	,	-22.879673	,	0
42,17	,	41678	,	-27487	,	-25095	,	-23.562874	,	0
42,17	,	41694	,	-27500	,	-25130	,	-23.767838	,	0
42,17	,	41726	,	-27511	,	-25115	,	-23.591927	,	0
42,17	,	41742	,	-27507	,	-25099	,	-23.265253	,	0
42,17	,	41774	,	-27497	,	-25107	,	-22.777664	,	0
42,17	,	41790	,	-27470	,	-25081	,	-21.675426	,	0
42,17	,	41806	,	-27444	,	-25070	,	-19.1636	,	1
42,17	,	41838	,	-27428	,	-25082	,	-14.494276	,	3
42,17	,	41854	,	-27414	,	-25042	,	-7.4583225	,	7
42,17	,	41870	,	-27413	,	-25041	,	1.4009609	,	14
42,17	,	41902	,	-27396	,	-25061	,	11.01173	,	22
42,17	,	41918	,	-27382	,	-25045	,	20.290413	,	31
42,18	,	41950	,	-27385	,	-25043	,	28.426323	,	40
42,18	,	41966	,	-27378	,	-25055	,	34.765182	,	48
42,18	,	41982	,	-27376	,	-25028	,	38.826042	,	54
42,18	,	42014	,	-27389	,	-25035	,	40.386055	,	57
42,18	,	42030	,	-27396	,	-25031	,	39.35063	,	56
42,18	,	42046	,	-27390	,	-25037	,	35.82032	,	52
42,18	,	42078	,	-27384	,	-25040	,	30.363543	,	45
42,18	,	42094	,	-27368	,	-25041	,	24.015701	,	37
42,18	,	42110	,	-27366	,	-25038	,	17.94956	,	28
42,18	,	42142	,	-27367	,	-25037	,	13.022772	,	19
42,18	,	42158	,	-27367	,	-25032	,	9.523884	,	11
42,18	,	42190	,	-27365	,	-25038	,	7.315773	,	5
42,18	,	42206	,	-27367	,	-25058	,	6.094635	,	1
42,18	,	42222	,	-27378	,	-25032	,	5.4623485	,	0
42,18	,	42254	,	-27376	,	-25053	,	4.9550896	,	0
42,18	,	42270	,	-27390	,	-25051	,	4.175495	,	0
42,18	,	42286	,	-27387	,	-25043	,	2.88738	,	0
42,18	,	42318	,	-27401	,	-25050	,	1.0251226	,	0
42,18	,	42334	,	-27407	,	-25041	,	-1.382581	,	0
42,18	,	42365	,	-27404	,	-25048	,	-4.222511	,	0
42,18	,	42382	,	-27414	,	-25056	,	-7.213541	,	0
42,18	,	42398	,	-27410	,	-25055	,	-9.997032	,	0
42,18	,	42429	,	-27418	,	-25057	,	-12.27456	,	0
42,18	,	42446	,	-27428	,	-25091	,	-13.911402	,	0
42,18	,	42462	,	-27434	,	-25100	,	-15.011818	,	0
42,18	,	42494	,	-27456	,	-25067	,	-15.866081	,	0
42,18	,	42510	,	-27456	,	-25085	,	-16.83162	,	0
42,18	,	42526	,	-27455	,	-25078	,	-18.061676	,	0
42,18	,	42558	,	-27464	,	-25085	,	-19.357906	,	0
42,18	,	42574	,	-27478	,	-25090	,	-20.485144	,	0
42,18	,	42605	,	-27472	,	-25123	,	-21.377277	,	0
42,18	,	42622	,	-27492	,	-25117	,	-22.00771	,	0
42,18	,	42638	,	-27502	,	-25118	,	-22.44469	,	0
42,18	,	42669	,	-27508	,	-25125	,	-22.895138	,	0
42,18	,	42686	,	-27505	,	-25155	,	-23.4318	,	0
42,18	,	42702	,	-27500	,	-25087	,	-23.809422	,	0
42,18	,	42734	,	-27452	,	-25112	,	-23.37756	,	0
42,18	,	42750	,	-27439	,	-25076	,	-21.097393	,	0
42,18	,	42781	,	-27422	,	-25086	,	-16.134247	,	2
42,18	,	42797	,	-27412	,	-25075	,	-8.49612	,	6
42,18	,	42813	,	-27419	,	-25055	,	0.94496155	,	13
42,18	,	42845	,	-27409	,	-25069	,	10.787376	,	22
42,18	,	42862	,	-27394	,	-25071	,	19.69971	,	31
42,18	,	42878	,	-27397	,	-25092	,	26.871994	,	39
42,18	,	42909	,	-27403	,	-25067	,	31.836931	,	46
42,18	,	42925	,	-27402	,	-25075	,	34.25128	,	50
42,19	,	42942	,	-27401	,	-25041	,	34.05477	,	52
42,19	,	42973	,	-27406	,	-25065	,	31.572626	,	50
42,19	,	42989	,	-27404	,	-25052	,	27.372742	,	46
42,19	,	43022	,	-27403	,	-25051	,	22.128193	,	39
42,19	,	43037	,	-27399	,	-25056	,	16.551224	,	30
42,19	,	43053	,	-27395	,	-25045	,	11.3188	,	21
42,19	,	43086	,	-27400	,	-25066	,	6.9368935	,	13
42,19	,	43101	,	-27391	,	-25047	,	3.6466017	,	6
42,19	,	43118	,	-27386	,	-25056	,	1.536953	,	2
42,19	,	43149	,	-27394	,	-25072	,	0.58795404	,	0
42,19	,	43166	,	-27414	,	-25066	,	0.44045484	,	0
42,19	,	43197	,	-27409	,	-25065	,	0.42084008	,	0
42,19	,	43213	,	-27421	,	-25070	,	-0.023843735	,	0
42,19	,	43229	,	-27418	,	-25088	,	-1.0927494	,	0
42,19	,	43261	,	-27421	,	-25084	,	-2.6875367	,	0
42,19	,	43277	,	-27439	,	-25080	,	-4.5980873	,	0
42,19	,	43293	,	-27438	,	-25076	,	-6.729401	,	0
42,19	,	43325	,	-27444	,	-25113	,	-9.021118	,	0
42,19	,	43341	,	-27445	,	-25103	,	-11.28168	,	0
42,19	,	43373	,	-27457	,	-25081	,	-13.298193	,	0
42,19	,	43389	,	-27464	,	-25097	,	-15.000309	,	0
42,19	,	43405	,	-27484	,	-25111	,	-16.509459	,	0
42,19	,	43437	,	-27486	,	-25116	,	-18.055332	,	0
42,19	,	43453	,	-27502	,	-25113	,	-19.790031	,	0
42,19	,	43469	,	-27495	,	-25106	,	-21.656143	,	0
42,19	,	43501	,	-27504	,	-25118	,	-23.379484	,	0
42,19	,	43517	,	-27511	,	-25138	,	-24.644396	,	0
42,19	,	43533	,	-27528	,	-25132	,	-25.366001	,	0
42,19	,	43565	,	-27543	,	-25138	,	-25.775536	,	0
42,19	,	43581	,	-27557	,	-25163	,	-26.265152	,	0
42,19	,	43613	,	-27538	,	-25147	,	-27.003864	,	0
42,19	,	43629	,	-27539	,	-25131	,	-27.611858	,	0
42,19	,	43645	,	-27507	,	-25106	,	-27.295824	,	0
42,19	,	43677	,	-27487	,	-25103	,	-25.155874	,	0
42,19	,	43693	,	-27463	,	-25106	,	-20.465076	,	2
42,19	,	43709	,	-27457	,	-25103	,	-13.053024	,	6
42,19	,	43741	,	-27450	,	-25086	,	-3.535448	,	13
42,19	,	43757	,	-27454	,	-25116	,	6.8341255	,	22
42,19	,	43789	,	-27454	,	-25079	,	16.553495	,	32
42,19	,	43805	,	-27446	,	-25084	,	24.347609	,	41
42,19	,	43821	,	-27460	,	-25080	,	29.464012	,	48
42,19	,	43853	,	-27465	,	-25071	,	31.571136	,	53
42,19	,	43869	,	-27471	,	-25111	,	30.6422	,	55
42,19	,	43885	,	-27475	,	-25091	,	27.022366	,	53
42,19	,	43917	,	-27457	,	-25089	,	21.491524	,	49
42,19	,	43933	,	-27471	,	-25108	,	15.154636	,	42
42,20	,	43949	,	-27471	,	-25097	,	8.991508	,	33
42,20	,	43981	,	-27454	,	-25078	,	3.6460676	,	23
42,20	,	43997	,	-27467	,	-25081	,	-0.40625048	,	14
42,20	,	44029	,	-27468	,	-25108	,	-2.9979343	,	7
42,20	,	44045	,	-27459	,	-25116	,	-4.3192596	,	2
42,20	,	44061	,	-27475	,	-25108	,	-4.66774	,	0
42,20	,	44093	,	-27460	,	-25120	,	-4.3727665	,	0
42,20	,	44109	,	-27477	,	-25136	,	-3.749453	,	0
42,20	,	44125	,	-27487	,	-25086	,	-3.1529193	,	0
42,20	,	44157	,	-27512	,	-25117	,	-3.1296105	,	0
42,20	,	44173	,	-27503	,	-25109	,	-4.185718	,	0
42,20	,	44205	,	-27517	,	-25129	,	-6.3813477	,	0
42,20	,	44221	,	-27530	,	-25104	,	-9.413771	,	0
42,20	,	44237	,	-27527	,	-25148	,	-12.916999	,	0
42,20	,	44269	,	-27530	,	-25128	,	-16.420876	,	0
42,20	,	44285	,	-27540	,	-25136	,	-19.405466	,	0
42,20	,	44301	,	-27547	,	-25146	,	-21.587944	,	0
42,20	,	44333	,	-27559	,	-25159	,	-22.988167	,	0
42,20	,	44349	,	-27560	,	-25145	,	-23.77939	,	0
42,20	,	44365	,	-27563	,	-25137	,	-24.093723	,	0
42,20	,	44397	,	-27569	,	-25169	,	-23.95282	,	0
42,20	,	44413	,	-27585	,	-25150	,	-23.43051	,	0
42,20	,	44445	,	-27599	,	-25169	,	-22.821646	,	0
42,20	,	44461	,	-27605	,	-25184	,	-22.52214	,	0
42,20	,	44477	,	-27609	,	-25172	,	-22.716137	,	0
42,20	,	44509	,	-27606	,	-25159	,	-23.231369	,	0
42,20	,	44525	,	-27591	,	-25150	,	-23.584793	,	0
42,20	,	44541	,	-27583	,	-25161	,	-23.10793	,	0
42,20	,	44573	,	-27550	,	-25141	,	-21.105965	,	0
42,20	,	44589	,	-27542	,	-25167	,	-17.01292	,	2
42,20	,	44621	,	-27525	,	-25106	,	-10.676199	,	6
42,20	,	44637	,	-27517	,	-25114	,	-2.5351458	,	12
42,20	,	44653	,	-27521	,	-25119	,	6.4882946	,	20
42,20	,	44685	,	-27515	,	-25122	,	15.198477	,	29
42,20	,	44701	,	-27519	,	-25107	,	22.460138	,	37
42,20	,	44717	,	-27508	,	-25102	,	27.531021	,	44
42,20	,	44749	,	-27508	,	-25102	,	30.193909	,	49
42,20	,	44765	,	-27502	,	-25104	,	30.670008	,	51
42,20	,	44780	,	-27504	,	-25130	,	29.395977	,	49
42,20	,	44813	,	-27503	,	-25110	,	26.839787	,	45
42,20	,	44829	,	-27500	,	-25132	,	23.443974	,	39
42,20	,	44861	,	-27494	,	-25089	,	19.66742	,	31
42,20	,	44877	,	-27501	,	-25088	,	15.941536	,	22
42,20	,	44893	,	-27507	,	-25108	,	12.486206	,	14
42,20	,	44924	,	-27490	,	-25116	,	9.36375	,	7
42,21	,	44940	,	-27495	,	-25104	,	6.742422	,	2
42,21	,	44956	,	-27504	,	-25100	,	4.7670226	,	0
42,21	,	44989	,	-27509	,	-25112	,	3.2738318	,	0
42,21	,	45005	,	-27518	,	-25124	,	1.8981266	,	0
42,21	,	45037	,	-27507	,	-25137	,	0.38601327	,	0
42,21	,	45053	,	-27517	,	-25137	,	-1.2330655	,	0
42,21	,	45069	,	-27536	,	-25126	,	-2.8843217	,	0
42,21	,	45100	,	-27530	,	-25111	,	-4.687286	,	0
42,21	,	45116	,	-27547	,	-25123	,	-6.7505836	,	0
42,21	,	45132	,	-27553	,	-25151	,	-9.066966	,	0
42,21	,	45165	,	-27553	,	-25148	,	-11.560711	,	0
42,21	,	45181	,	-27563	,	-25153	,	-14.027333	,	0
42,21	,	45197	,	-27558	,	-25136	,	-16.191227	,	0
42,21	,	45229	,	-27570	,	-25130	,	-17.819452	,	0
42,21	,	45245	,	-27579	,	-25150	,	-18.847378	,	0
42,21	,	45277	,	-27579	,	-25160	,	-19.399046	,	0
42,21	,	45293	,	-27585	,	-25160	,	-19.588207	,	0
42,21	,	45309	,	-27600	,	-25175	,	-19.502867	,	0
42,21	,	45340	,	-27612	,	-25150	,	-19.379847	,	0
42,21	,	45357	,	-27614	,	-25170	,	-19.512913	,	0
42,21	,	45372	,	-27631	,	-25191	,	-20.041534	,	0
42,21	,	45404	,	-27642	,	-25159	,	-21.00656	,	0
42,21	,	45421	,	-27632	,	-25185	,	-22.339504	,	0
42,21	,	45452	,	-27619	,	-25151	,	-23.586048	,	0
42,21	,	45468	,	-27597	,	-25166	,	-23.87653	,	0
42,21	,	45484	,	-27588	,	-25151	,	-22.320732	,	0
42,21	,	45516	,	-27566	,	-25126	,	-18.425385	,	1
42,21	,	45533	,	-27538	,	-25120	,	-12.122705	,	4
42,21	,	45549	,	-27545	,	-25138	,	-3.7213497	,	10
42,21	,	45580	,	-27543	,	-25136	,	5.8559046	,	18
42,21	,	45596	,	-27528	,	-25124	,	15.258686	,	27
42,21	,	45612	,	-27535	,	-25111	,	23.331951	,	36
42,21	,	45645	,	-27531	,	-25106	,	29.295687	,	44
42,21	,	45661	,	-27514	,	-25108	,	32.78152	,	49
42,21	,	45692	,	-27518	,	-25114	,	33.963406	,	52
42,21	,	45708	,	-27520	,	-25125	,	33.268967	,	52
42,21	,	45724	,	-27544	,	-25122	,	30.933659	,	49
42,21	,	45756	,	-27538	,	-25140	,	26.989769	,	43
42,21	,	45772	,	-27535	,	-25143	,	21.682354	,	35
42,21	,	45789	,	-27526	,	-25115	,	15.720764	,	26
42,21	,	45820	,	-27522	,	-25097	,	10.029915	,	17
42,21	,	45836	,	-27524	,	-25120	,	5.353407	,	9
42,21	,	45868	,	-27536	,	-25108	,	1.9722915	,	4
42,21	,	45884	,	-27529	,	-25132	,	-0.28186226	,	1
42,21	,	45900	,	-27533	,	-25117	,	-1.7009506	,	0
42,21	,	45932	,	-27540	,	-25117	,	-2.533122	,	0
42,22	,	45948	,	-27533	,	-25133	,	-3.015824	,	0
42,22	,	45964	,	-27555	,	-25141	,	-3.377185	,	0
42,22	,	45996	,	-27552	,	-25113	,	-3.8893719	,	0
42,22	,	46012	,	-27546	,	-25131	,	-4.713598	,	0
42,22	,	46044	,	-27574	,	-25135	,	-5.796509	,	0
42,22	,	46060	,	-27562	,	-25150	,	-7.1244535	,	0
42,22	,	46076	,	-27576	,	-25162	,	-8.691824	,	0
42,22	,	46108	,	-27590	,	-25157	,	-10.432587	,	0
42,22	,	46124	,	-27590	,	-25160	,	-12.360424	,	0
42,22	,	46140	,	-27595	,	-25158	,	-14.413275	,	0
42,22	,	46172	,	-27609	,	-25166	,	-16.400139	,	0
42,22	,	46188	,	-27608	,	-25170	,	-18.195961	,	0
42,22	,	46220	,	-27611	,	-25156	,	-19.689161	,	0
42,22	,	46236	,	-27619	,	-25173	,	-20.711279	,	0
42,22	,	46252	,	-27618	,	-25174	,	-21.15747	,	0
42,22	,	46284	,	-27624	,	-25179	,	-21.017767	,	0
42,22	,	46300	,	-27645	,	-25190	,	-20.437187	,	0
42,22	,	46316	,	-27660	,	-25188	,	-19.85205	,	0
42,22	,	46348	,	-27662	,	-25200	,	-19.770744	,	0
42,22	,	46364	,	-27671	,	-25182	,	-20.372845	,	0
42,22	,	46396	,	-27663	,	-25178	,	-21.424416	,	0
42,22	,	46412	,	-27640	,	-25185	,	-22.302952	,	0
42,22	,	46428	,	-27616	,	-25173	,	-22.022926	,	0
42,22	,	46460	,	-27604	,	-25159	,	-19.612331	,	0
42,22	,	46476	,	-27589	,	-25167	,	-14.647208	,	2
42,22	,	46492	,	-27581	,	-25156	,	-7.4154215	,	6
42,22	,	46524	,	-27571	,	-25154	,	1.2792616	,	13
42,22	,	46540	,	-27576	,	-25139	,	10.342125	,	21
42,22	,	46556	,	-27569	,	-25153	,	18.592278	,	30
42,22	,	46588	,	-27575	,	-25139	,	25.032751	,	38
42,22	,	46604	,	-27568	,	-25130	,	29.063131	,	44
42,22	,	46636	,	-27574	,	-25151	,	30.53059	,	48
42,22	,	46652	,	-27565	,	-25133	,	29.678934	,	49
42,22	,	46668	,	-27556	,	-25136	,	27.101501	,	47
42,22	,	46700	,	-27563	,	-25129	,	23.570185	,	43
42,22	,	46716	,	-27552	,	-25126	,	19.738836	,	36
42,22	,	46732	,	-27553	,	-25115	,	16.084711	,	28
42,22	,	46764	,	-27555	,	-25129	,	12.928131	,	19
42,22	,	46780	,	-27551	,	-25103	,	10.368796	,	11
42,22	,	46812	,	-27553	,	-25136	,	8.366428	,	5
42,22	,	46828	,	-27544	,	-25138	,	6.868491	,	1
42,22	,	46844	,	-27554	,	-25124	,	5.825604	,	0
42,22	,	46876	,	-27555	,	-25127	,	5.091071	,	0
42,22	,	46892	,	-27552	,	-25126	,	4.440242	,	0
42,22	,	46908	,	-27560	,	-25136	,	3.7196608	,	0
42,23	,	46940	,	-27567	,	-25142	,	2.8019161	,	0
42,23	,	46956	,	-27567	,	-25144	,	1.545444	,	0
42,23	,	46972	,	-27577	,	-25113	,	-0.09356499	,	0
42,23	,	47004	,	-27587	,	-25151	,	-2.1001112	,	0
42,23	,	47020	,	-27600	,	-25165	,	-4.5201907	,	0
42,23	,	47052	,	-27592	,	-25138	,	-7.3372617	,	0
42,23	,	47068	,	-27604	,	-25148	,	-10.293991	,	0
42,23	,	47083	,	-27594	,	-25144	,	-12.984247	,	0
42,23	,	47116	,	-27617	,	-25162	,	-15.087527	,	0
42,23	,	47132	,	-27616	,	-25164	,	-16.55589	,	0
42,23	,	47148	,	-27613	,	-25167	,	-17.491392	,	0
42,23	,	47180	,	-27614	,	-25175	,	-17.855206	,	0
42,23	,	47196	,	-27639	,	-25191	,	-17.647339	,	0
42,23	,	47228	,	-27633	,	-25165	,	-17.17811	,	0
42,23	,	47243	,	-27652	,	-25183	,	-16.834568	,	0
42,23	,	47259	,	-27652	,	-25182	,	-16.841278	,	0
42,23	,	47292	,	-27659	,	-25171	,	-17.244331	,	0
42,23	,	47308	,	-27662	,	-25184	,	-17.916977	,	0
42,23	,	47324	,	-27651	,	-25167	,	-18.572315	,	0
42,23	,	47356	,	-27641	,	-25171	,	-18.729809	,	0
42,23	,	47371	,	-27614	,	-25154	,	-17.741945	,	0
42,23	,	47388	,	-27593	,	-25154	,	-14.928826	,	0
42,23	,	47420	,	-27572	,	-25126	,	-9.816267	,	2
42,23	,	47436	,	-27567	,	-25156	,	-2.4614449	,	7
42,23	,	47468	,	-27571	,	-25113	,	6.353625	,	14
42,23	,	47484	,	-27536	,	-25140	,	15.446514	,	22
42,23	,	47500	,	-27557	,	-25112	,	23.799595	,	31
42,23	,	47532	,	-27545	,	-25120	,	30.580315	,	39
42,23	,	47547	,	-27532	,	-25103	,	35.172955	,	45
42,23	,	47564	,	-27545	,	-25127	,	37.425945	,	49
42,23	,	47595	,	-27538	,	-25113	,	37.437897	,	51
42,23	,	47611	,	-27546	,	-25122	,	35.386467	,	49
42,23	,	47643	,	-27545	,	-25105	,	31.603735	,	44
42,23	,	47659	,	-27531	,	-25098	,	26.630033	,	37
42,23	,	47676	,	-27523	,	-25126	,	21.283817	,	29
42,23	,	47708	,	-27510	,	-25089	,	16.500156	,	20
42,23	,	47724	,	-27516	,	-25131	,	12.954648	,	12
42,23	,	47739	,	-27519	,	-25092	,	10.775088	,	6
42,23	,	47772	,	-27535	,	-25111	,	9.524006	,	2
42,23	,	47787	,	-27523	,	-25126	,	8.543161	,	0
42,23	,	47803	,	-27529	,	-25109	,	7.421876	,	0
42,23	,	47835	,	-27535	,	-25116	,	6.058845	,	0
42,23	,	47852	,	-27536	,	-25115	,	4.426287	,	0
42,23	,	47883	,	-27535	,	-25102	,	2.5644975	,	0
42,23	,	47899	,	-27547	,	-25118	,	0.59910226	,	0
42,23	,	47915	,	-27547	,	-25158	,	-1.4033129	,	0
42,24	,	47947	,	-27564	,	-25107	,	-3.481703	,	0
42,24	,	47963	,	-27555	,	-25130	,	-5.6758413	,	0
42,24	,	47979	,	-27568	,	-25139	,	-7.8908176	,	0
42,24	,	48011	,	-27572	,	-25141	,	-9.966063	,	0
42,24	,	48027	,	-27589	,	-25146	,	-11.877401	,	0
42,24	,	48059	,	-27585	,	-25148	,	-13.708618	,	0
42,24	,	48075	,	-27592	,	-25149	,	-15.4438	,	0
42,24	,	48091	,	-27593	,	-25122	,	-16.917461	,	0
42,24	,	48123	,	-27606	,	-25161	,	-17.985937	,	0
42,24	,	48139	,	-27608	,	-25153	,	-18.657156	,	0
42,24	,	48155	,	-27605	,	-25163	,	-18.975712	,	0
42,24	,	48187	,	-27619	,	-25139	,	-18.92403	,	0
42,24	,	48203	,	-27635	,	-25178	,	-18.629465	,	0
42,24	,	48219	,	-27654	,	-25173	,	-18.516514	,	0
42,24	,	48251	,	-27654	,	-25186	,	-19.036737	,	0
42,24	,	48267	,	-27650	,	-25184	,	-20.224735	,	0
42,24	,	48299	,	-27641	,	-25167	,	-21.559334	,	0
42,24	,	48315	,	-27627	,	-25150	,	-22.222736	,	0
42,24	,	48331	,	-27599	,	-25147	,	-21.364006	,	0
42,24	,	48363	,	-27565	,	-25142	,	-18.175373	,	0
42,24	,	48379	,	-27548	,	-25138	,	-12.085073	,	3
42,24	,	48395	,	-27541	,	-25130	,	-3.1978626	,	9
42,24	,	48427	,	-27539	,	-25099	,	7.486186	,	17
42,24	,	48443	,	-27515	,	-25098	,	18.502453	,	27
42,24	,	48475	,	-27524	,	-25093	,	28.537672	,	38
42,24	,	48491	,	-27525	,	-25084	,	36.52369	,	48
42,24	,	48507	,	-27506	,	-25091	,	41.68858	,	55
42,24	,	48539	,	-27512	,	-25104	,	43.867252	,	60
42,24	,	48555	,	-27504	,	-25100	,	43.39463	,	62
42,24	,	48571	,	-27514	,	-25100	,	40.746876	,	59
42,24	,	48604	,	-27511	,	-25083	,	36.40555	,	53
42,24	,	48619	,	-27493	,	-25082	,	30.971617	,	45
42,24	,	48651	,	-27498	,	-25104	,	25.262487	,	35
42,24	,	48667	,	-27491	,	-25068	,	20.027792	,	24
42,24	,	48683	,	-27489	,	-25097	,	15.694308	,	14
42,24	,	48715	,	-27493	,	-25066	,	12.392073	,	7
42,24	,	48731	,	-27482	,	-25062	,	10.045834	,	2
42,24	,	48747	,	-27494	,	-25072	,	8.488938	,	0
42,24	,	48779	,	-27489	,	-25084	,	7.464865	,	0
42,24	,	48795	,	-27491	,	-25076	,	6.6726837	,	0
42,24	,	48811	,	-27496	,	-25076	,	5.892386	,	0
42,24	,	48843	,	-27498	,	-25097	,	4.967551	,	0
42,24	,	48859	,	-27501	,	-25121	,	3.7954178	,	0
42,24	,	48891	,	-27509	,	-25088	,	2.3403666	,	0
42,24	,	48907	,	-27516	,	-25089	,	0.5726912	,	0
42,24	,	48923	,	-27523	,	-25095	,	-1.5459133	,	0
42,25	,	48955	,	-27535	,	-25093	,	-4.03304	,	0
42,25	,	48971	,	-27538	,	-25099	,	-6.85991	,	0
42,25	,	48987	,	-27540	,	-25126	,	-9.868202	,	0
42,25	,	49019	,	-27533	,	-25106	,	-12.693568	,	0
42,25	,	49035	,	-27553	,	-25127	,	-14.934181	,	0
42,25	,	49067	,	-27556	,	-25118	,	-16.483797	,	0
42,25	,	49083	,	-27561	,	-25125	,	-17.510393	,	0
42,25	,	49099	,	-27568	,	-25140	,	-18.172373	,	0
42,25	,	49131	,	-27572	,	-25124	,	-18.555664	,	0
42,25	,	49147	,	-27574	,	-25118	,	-18.70266	,	0
42,25	,	49163	,	-27583	,	-25110	,	-18.627504	,	0
42,25	,	49195	,	-27604	,	-25141	,	-18.470715	,	0
42,25	,	49211	,	-27614	,	-25148	,	-18.590359	,	0
42,25	,	49227	,	-27603	,	-25167	,	-19.232664	,	0
42,25	,	49259	,	-27602	,	-25119	,	-20.132547	,	0
42,25	,	49275	,	-27581	,	-25138	,	-20.603058	,	0
42,25	,	49307	,	-27582	,	-25145	,	-19.91909	,	0
42,25	,	49323	,	-27551	,	-25101	,	-17.578405	,	0
42,25	,	49339	,	-27531	,	-25103	,	-13.265093	,	2
42,25	,	49371	,	-27512	,	-25091	,	-6.8262854	,	6
42,25	,	49387	,	-27503	,	-25107	,	1.4877167	,	12
42,25	,	49403	,	-27495	,	-25087	,	10.905956	,	20
42,25	,	49435	,	-27495	,	-25083	,	20.305317	,	29
42,25	,	49451	,	-27479	,	-25080	,	28.558268	,	38
42,25	,	49483	,	-27491	,	-25080	,	34.83336	,	46
42,25	,	49499	,	-27487	,	-25082	,	38.58708	,	52
42,25	,	49515	,	-27485	,	-25068	,	39.58131	,	55
42,25	,	49547	,	-27492	,	-25068	,	37.98652	,	53
42,25	,	49562	,	-27495	,	-25084	,	34.228477	,	49
42,25	,	49579	,	-27476	,	-25081	,	28.9397	,	43
42,25	,	49611	,	-27487	,	-25069	,	23.0067	,	35
42,25	,	49627	,	-27484	,	-25066	,	17.229082	,	26
42,25	,	49643	,	-27476	,	-25062	,	12.097448	,	17
42,25	,	49675	,	-27479	,	-25087	,	7.943245	,	9
42,25	,	49691	,	-27477	,	-25065	,	4.9321165	,	3
42,25	,	49722	,	-27490	,	-25070	,	2.9449744	,	0
42,25	,	49738	,	-27486	,	-25084	,	1.6359394	,	0
42,25	,	49755	,	-27487	,	-25095	,	0.67528415	,	0
42,25	,	49787	,	-27486	,	-25073	,	-0.07517564	,	0
42,25	,	49803	,	-27497	,	-25104	,	-0.6801113	,	0
42,25	,	49819	,	-27513	,	-25123	,	-1.3641444	,	0
42,25	,	49850	,	-27506	,	-25094	,	-2.4538186	,	0
42,25	,	49866	,	-27517	,	-25090	,	-4.05015	,	0
42,25	,	49899	,	-27526	,	-25108	,	-6.029984	,	0
42,25	,	49915	,	-27534	,	-25092	,	-8.300507	,	0
42,25	,	49931	,	-27538	,	-25124	,	-10.789392	,	0
42,26	,	49962	,	-27561	,	-25100	,	-13.41534	,	0
42,26	,	49978	,	-27550	,	-25104	,	-16.115194	,	0
42,26	,	49994	,	-27551	,	-25121	,	-18.628866	,	0
42,26	,	50026	,	-27570	,	-25130	,	-20.559185	,	0
42,26	,	50042	,	-27572	,	-25136	,	-21.793823	,	0
42,26	,	50058	,	-27585	,	-25160	,	-22.506525	,	0
42,26	,	50091	,	-27574	,	-25116	,	-22.831224	,	0
42,26	,	50106	,	-27611	,	-25164	,	-22.846222	,	0
42,26	,	50138	,	-27622	,	-25164	,	-22.881924	,	0
42,26	,	50154	,	-27606	,	-25163	,	-23.319973	,	0
42,26	,	50170	,	-27584	,	-25150	,	-23.864143	,	0
42,26	,	50202	,	-27568	,	-25135	,	-23.510809	,	0
42,26	,	50218	,	-27537	,	-25118	,	-21.191229	,	0
42,26	,	50234	,	-27530	,	-25097	,	-16.260475	,	2
42,26	,	50266	,	-27508	,	-25090	,	-8.744826	,	6
42,26	,	50282	,	-27490	,	-25122	,	0.7454128	,	13
42,26	,	50314	,	-27493	,	-25126	,	11.254786	,	22
42,26	,	50330	,	-27486	,	-25075	,	21.552849	,	32
42,26	,	50346	,	-27475	,	-25100	,	30.414738	,	42
42,26	,	50378	,	-27467	,	-25096	,	37.059486	,	50
42,26	,	50394	,	-27480	,	-25077	,	41.134098	,	56
42,26	,	50411	,	-27476	,	-25096	,	42.452778	,	60
42,26	,	50443	,	-27482	,	-25088	,	41.03621	,	59
42,26	,	50458	,	-27479	,	-25102	,	37.244713	,	55
42,26	,	50490	,	-27480	,	-25093	,	31.718962	,	48
42,26	,	50506	,	-27477	,	-25073	,	25.25268	,	39
42,26	,	50522	,	-27460	,	-25104	,	18.728668	,	29
42,26	,	50554	,	-27463	,	-25085	,	13.023256	,	19
42,26	,	50570	,	-27458	,	-25050	,	8.725927	,	11
42,26	,	50586	,	-27459	,	-25076	,	5.9701977	,	5
42,26	,	50618	,	-27460	,	-25094	,	4.5450134	,	1
42,26	,	50634	,	-27467	,	-25066	,	4.02753	,	0
42,26	,	50650	,	-27468	,	-25071	,	3.9088273	,	0
42,26	,	50682	,	-27476	,	-25069	,	3.7351274	,	0
42,26	,	50698	,	-27467	,	-25095	,	3.2295382	,	0
42,26	,	50730	,	-27471	,	-25075	,	2.38421	,	0
42,26	,	50746	,	-27481	,	-25092	,	1.32161	,	0
42,26	,	50762	,	-27478	,	-25084	,	0.0791204	,	0
42,26	,	50794	,	-27483	,	-25129	,	-1.3178213	,	0
42,26	,	50810	,	-27499	,	-25077	,	-2.8343868	,	0
42,26	,	50826	,	-27495	,	-25097	,	-4.5317802	,	0
42,26	,	50858	,	-27513	,	-25110	,	-6.4708776	,	0
42,26	,	50874	,	-27512	,	-25115	,	-8.644146	,	0
42,26	,	50906	,	-27516	,	-25100	,	-10.951473	,	0
42,26	,	50922	,	-27521	,	-25124	,	-13.163143	,	0
42,26	,	50938	,	-27523	,	-25098	,	-15.032875	,	0
42,27	,	50970	,	-27534	,	-25130	,	-16.4218	,	0
42,27	,	50986	,	-27546	,	-25104	,	-17.38475	,	0
42,27	,	51002	,	-27536	,	-25122	,	-18.072668	,	0
42,27	,	51034	,	-27555	,	-25141	,	-18.518463	,	0
42,27	,	51050	,	-27565	,	-25098	,	-18.77884	,	0
42,27	,	51066	,	-27521	,	-25091	,	-18.844366	,	0
42,27	,	51098	,	-27483	,	-25079	,	-17.984848	,	0
42,27	,	51114	,	-27463	,	-25085	,	-14.885092	,	0
42,27	,	51146	,	-27444	,	-25057	,	-8.7100725	,	3
42,27	,	51162	,	-27427	,	-25049	,	0.35793686	,	9
42,27	,	51178	,	-27425	,	-25046	,	11.319575	,	18
42,27	,	51210	,	-27410	,	-25034	,	22.725166	,	28
42,27	,	51226	,	-27402	,	-25039	,	33.148617	,	39
42,27	,	51242	,	-27400	,	-25016	,	41.520973	,	49
42,27	,	51274	,	-27386	,	-25044	,	47.197906	,	57
42,27	,	51290	,	-27387	,	-25016	,	49.994568	,	62
42,27	,	51322	,	-27387	,	-25022	,	50.069748	,	64
42,27	,	51338	,	-27386	,	-25035	,	47.73276	,	61
42,27	,	51354	,	-27390	,	-25010	,	43.40343	,	55
42,27	,	51386	,	-27368	,	-25010	,	37.697495	,	46
42,27	,	51402	,	-27366	,	-25014	,	31.506092	,	36
42,27	,	51418	,	-27370	,	-25009	,	25.697401	,	25
42,27	,	51450	,	-27361	,	-25008	,	20.730558	,	15
42,27	,	51466	,	-27364	,	-25014	,	16.738018	,	7
42,27	,	51482	,	-27366	,	-25019	,	13.671655	,	2
42,27	,	51513	,	-27378	,	-25014	,	11.258154	,	0
42,27	,	51529	,	-27359	,	-25001	,	9.167691	,	0
42,27	,	51562	,	-27380	,	-25010	,	7.2565374	,	0
42,27	,	51578	,	-27364	,	-25007	,	5.488395	,	0
42,27	,	51594	,	-27378	,	-25008	,	3.844985	,	0
42,27	,	51626	,	-27385	,	-25007	,	2.27572	,	0
42,27	,	51642	,	-27379	,	-25009	,	0.6563809	,	0
42,27	,	51657	,	-27387	,	-25022	,	-1.0347452	,	0
42,27	,	51690	,	-27394	,	-25019	,	-2.730928	,	0
42,27	,	51706	,	-27394	,	-25023	,	-4.420851	,	0
42,27	,	51738	,	-27396	,	-25034	,	-6.0506268	,	0
42,27	,	51754	,	-27407	,	-25049	,	-7.520525	,	0
42,27	,	51770	,	-27409	,	-25031	,	-8.832796	,	0
42,27	,	51801	,	-27424	,	-25040	,	-10.096031	,	0
42,27	,	51818	,	-27437	,	-25038	,	-11.494018	,	0
42,27	,	51834	,	-27449	,	-25055	,	-13.264217	,	0
42,27	,	51866	,	-27448	,	-25051	,	-15.507393	,	0
42,27	,	51882	,	-27454	,	-25055	,	-18.009861	,	0
42,27	,	51898	,	-27466	,	-25048	,	-20.401337	,	0
42,27	,	51930	,	-27473	,	-25086	,	-22.446636	,	0
42,28	,	51946	,	-27479	,	-25065	,	-24.067883	,	0
42,28	,	51977	,	-27464	,	-25079	,	-25.118916	,	0
42,28	,	51993	,	-27460	,	-25074	,	-25.226902	,	0
42,28	,	52009	,	-27454	,	-25058	,	-23.982475	,	0
42,28	,	52041	,	-27397	,	-25024	,	-20.996124	,	1
42,28	,	52057	,	-27391	,	-25014	,	-15.70282	,	3
42,28	,	52073	,	-27369	,	-25008	,	-7.79661	,	8
42,28	,	52105	,	-27356	,	-25014	,	2.2534962	,	15
42,28	,	52122	,	-27351	,	-24998	,	13.387327	,	25
42,28	,	52153	,	-27352	,	-25000	,	24.24673	,	36
42,28	,	52170	,	-27346	,	-24998	,	33.45568	,	46
42,28	,	52185	,	-27354	,	-24996	,	39.963657	,	55
42,28	,	52217	,	-27331	,	-24996	,	43.294304	,	61
42,28	,	52234	,	-27342	,	-24998	,	43.631638	,	63
42,28	,	52249	,	-27341	,	-25002	,	41.506813	,	61
42,28	,	52281	,	-27343	,	-24995	,	37.450397	,	56
42,28	,	52297	,	-27340	,	-24987	,	32.02657	,	49
42,28	,	52314	,	-27341	,	-24985	,	25.885143	,	39
42,28	,	52346	,	-27328	,	-24996	,	19.717216	,	28
42,28	,	52361	,	-27312	,	-24990	,	14.290985	,	18
42,28	,	52393	,	-27309	,	-24983	,	10.34354	,	9
42,28	,	52409	,	-27328	,	-24980	,	8.136584	,	3
42,28	,	52425	,	-27319	,	-24971	,	7.2442017	,	0
42,28	,	52457	,	-27327	,	-24962	,	6.9822593	,	0
42,28	,	52473	,	-27339	,	-24969	,	6.758728	,	0
42,28	,	52490	,	-27342	,	-24979	,	6.0599327	,	0
42,28	,	52521	,	-27346	,	-24979	,	4.5713162	,	0
42,28	,	52537	,	-27362	,	-25005	,	2.2483654	,	0
42,28	,	52569	,	-27351	,	-24997	,	-0.7667463	,	0
42,28	,	52585	,	-27371	,	-24999	,	-4.154437	,	0
42,28	,	52601	,	-27376	,	-25008	,	-7.602876	,	0
42,28	,	52633	,	-27385	,	-24995	,	-10.971245	,	0
42,28	,	52649	,	-27383	,	-25015	,	-14.123228	,	0
42,28	,	52665	,	-27391	,	-25016	,	-16.818907	,	0
42,28	,	52697	,	-27394	,	-25022	,	-18.839914	,	0
42,28	,	52713	,	-27412	,	-25011	,	-20.16227	,	0
42,28	,	52745	,	-27414	,	-25039	,	-20.988487	,	0
42,28	,	52761	,	-27420	,	-25018	,	-21.542812	,	0
42,28	,	52777	,	-27434	,	-25021	,	-21.944592	,	0
42,28	,	52809	,	-27435	,	-25031	,	-22.290033	,	0
42,28	,	52825	,	-27455	,	-25029	,	-22.683619	,	0
42,28	,	52841	,	-27446	,	-25025	,	-23.178848	,	0
42,28	,	52873	,	-27457	,	-25035	,	-23.66824	,	0
42,28	,	52889	,	-27462	,	-25043	,	-23.946114	,	0
42,28	,	52905	,	-27469	,	-25062	,	-23.924011	,	0
42,28	,	52937	,	-27475	,	-25081	,	-23.6394	,	0
42,29	,	52953	,	-27474	,	-25030	,	-23.129547	,	0
42,29	,	52985	,	-27438	,	-25043	,	-22.175062	,	0
42,29	,	53001	,	-27412	,	-25023	,	-20.0406	,	0
42,29	,	53017	,	-27389	,	-25013	,	-15.77884	,	2
42,29	,	53049	,	-27380	,	-25015	,	-8.942237	,	6
42,29	,	53066	,	-27378	,	-25003	,	0.012414932	,	12
42,29	,	53081	,	-27379	,	-25000	,	9.858448	,	20
42,29	,	53113	,	-27371	,	-25004	,	19.124138	,	29
42,29	,	53129	,	-27365	,	-25002	,	26.667356	,	38
42,29	,	53161	,	-27373	,	-24985	,	31.852192	,	45
42,29	,	53177	,	-27371	,	-25009	,	34.38001	,	50
42,29	,	53193	,	-27369	,	-24990	,	34.260082	,	52
42,29	,	53225	,	-27371	,	-25004	,	31.87294	,	50
42,29	,	53241	,	-27378	,	-24999	,	27.800453	,	46
42,29	,	53257	,	-27363	,	-24990	,	22.688265	,	40
42,29	,	53289	,	-27365	,	-24985	,	17.291542	,	32
42,29	,	53305	,	-27358	,	-24996	,	12.353681	,	23
42,29	,	53321	,	-27360	,	-24983	,	8.370967	,	14
42,29	,	53353	,	-27367	,	-24992	,	5.483137	,	7
42,29	,	53369	,	-27373	,	-25006	,	3.4773684	,	2
42,29	,	53401	,	-27371	,	-24996	,	1.9805682	,	0
42,29	,	53417	,	-27364	,	-25013	,	0.7688799	,	0
42,29	,	53433	,	-27381	,	-24991	,	-0.2066617	,	0
42,29	,	53465	,	-27380	,	-25000	,	-1.06947	,	0
42,29	,	53481	,	-27398	,	-25004	,	-2.0796676	,	0
42,29	,	53497	,	-27393	,	-25015	,	-3.4706223	,	0
42,29	,	53529	,	-27389	,	-25007	,	-5.2154517	,	0
42,29	,	53545	,	-27411	,	-25003	,	-7.0630956	,	0
42,29	,	53577	,	-27408	,	-25024	,	-8.892243	,	0
42,29	,	53593	,	-27418	,	-25025	,	-10.718111	,	0
42,29	,	53609	,	-27419	,	-25031	,	-12.484333	,	0
42,29	,	53641	,	-27425	,	-25022	,	-14.074444	,	0
42,29	,	53657	,	-27432	,	-25047	,	-15.386414	,	0
42,29	,	53673	,	-27445	,	-25023	,	-16.430027	,	0
42,29	,	53705	,	-27462	,	-25055	,	-17.40957	,	0
42,29	,	53721	,	-27462	,	-25060	,	-18.594933	,	0
42,29	,	53737	,	-27454	,	-25059	,	-19.968166	,	0
42,29	,	53769	,	-27474	,	-25048	,	-21.187834	,	0
42,29	,	53785	,	-27484	,	-25052	,	-22.060764	,	0
42,29	,	53817	,	-27482	,	-25064	,	-22.672707	,	0
42,29	,	53833	,	-27484	,	-25056	,	-23.026089	,	0
42,29	,	53849	,	-27504	,	-25054	,	-23.041414	,	0
42,29	,	53881	,	-27509	,	-25070	,	-22.855694	,	0
42,29	,	53897	,	-27488	,	-25081	,	-22.599169	,	0
42,29	,	53913	,	-27466	,	-25045	,	-21.873741	,	0
42,30	,	53944	,	-27422	,	-25033	,	-19.707544	,	0
42,30	,	53961	,	-27413	,	-25025	,	-15.066799	,	2
42,30	,	53993	,	-27398	,	-25019	,	-7.5884457	,	6
42,30	,	54009	,	-27401	,	-25052	,	2.059722	,	13
42,30	,	54024	,	-27386	,	-25005	,	12.516445	,	22
42,30	,	54057	,	-27389	,	-25015	,	22.333788	,	32
42,30	,	54073	,	-27388	,	-25024	,	30.327137	,	41
42,30	,	54089	,	-27383	,	-25000	,	35.704674	,	48
42,30	,	54120	,	-27371	,	-25002	,	38.24321	,	53
42,30	,	54137	,	-27372	,	-24994	,	38.28145	,	55
42,30	,	54169	,	-27375	,	-24995	,	36.364906	,	53
42,30	,	54185	,	-27373	,	-25022	,	32.97413	,	49
42,30	,	54201	,	-27372	,	-24986	,	28.566263	,	42
42,30	,	54233	,	-27371	,	-24982	,	23.639172	,	33
42,30	,	54249	,	-27355	,	-24992	,	18.740597	,	23
42,30	,	54265	,	-27342	,	-24986	,	14.522758	,	14
42,30	,	54297	,	-27343	,	-25002	,	11.580994	,	7
42,30	,	54312	,	-27364	,	-25009	,	9.994544	,	2
42,30	,	54328	,	-27363	,	-25017	,	9.183174	,	0
42,30	,	54361	,	-27367	,	-25015	,	8.408422	,	0
42,30	,	54377	,	-27362	,	-25008	,	7.275208	,	0
42,30	,	54408	,	-27359	,	-25017	,	5.792174	,	0
42,30	,	54424	,	-27380	,	-25024	,	4.096258	,	0
42,30	,	54441	,	-27387	,	-25030	,	2.1114964	,	0
42,30	,	54472	,	-27393	,	-25028	,	-0.37521482	,	0
42,30	,	54489	,	-27386	,	-25038	,	-3.3314252	,	0
42,30	,	54504	,	-27404	,	-25032	,	-6.440698	,	0
42,30	,	54536	,	-27418	,	-25035	,	-9.485612	,	0
42,30	,	54552	,	-27424	,	-25037	,	-12.51234	,	0
42,30	,	54584	,	-27425	,	-25043	,	-15.526366	,	0
42,30	,	54600	,	-27429	,	-25053	,	-18.284714	,	0
42,30	,	54616	,	-27450	,	-25022	,	-20.534252	,	0
42,30	,	54649	,	-27436	,	-25069	,	-22.209242	,	0
42,30	,	54665	,	-27469	,	-25064	,	-23.338783	,	0
42,30	,	54681	,	-27464	,	-25083	,	-24.072876	,	0
42,30	,	54713	,	-27468	,	-25084	,	-24.581425	,	0
42,30	,	54728	,	-27481	,	-25094	,	-24.856913	,	0
42,30	,	54745	,	-27495	,	-25091	,	-24.931751	,	0
42,30	,	54776	,	-27501	,	-25079	,	-25.011532	,	0
42,30	,	54792	,	-27506	,	-25087	,	-25.24591	,	0
42,30	,	54824	,	-27518	,	-25085	,	-25.616102	,	0
42,30	,	54840	,	-27524	,	-25109	,	-26.045975	,	0
42,30	,	54856	,	-27532	,	-25076	,	-26.467882	,	0
42,30	,	54888	,	-27506	,	-25092	,	-26.65345	,	0
42,30	,	54904	,	-27475	,	-25062	,	-25.905766	,	0
42,30	,	54921	,	-27458	,	-25054	,	-23.179653	,	0
42,31	,	54952	,	-27432	,	-25042	,	-17.724464	,	2
42,31	,	54968	,	-27424	,	-25052	,	-9.520044	,	7
42,31	,	55000	,	-27416	,	-25056	,	0.69306564	,	15
42,31	,	55016	,	-27418	,	-25036	,	11.598707	,	25
42,31	,	55032	,	-27410	,	-25033	,	21.712112	,	35
42,31	,	55064	,	-27397	,	-25033	,	29.891417	,	45
42,31	,	55080	,	-27406	,	-25058	,	35.55749	,	53
42,31	,	55097	,	-27395	,	-25018	,	38.5244	,	58
42,31	,	55128	,	-27392	,	-25037	,	38.93102	,	60
42,31	,	55144	,	-27392	,	-25036	,	37.2351	,	58
42,31	,	55160	,	-27391	,	-25035	,	33.99913	,	53
42,31	,	55192	,	-27385	,	-25029	,	29.772612	,	45
42,31	,	55208	,	-27384	,	-25025	,	25.113575	,	35
42,31	,	55240	,	-27383	,	-25017	,	20.514334	,	25
42,31	,	55256	,	-27383	,	-25030	,	16.302732	,	15
42,31	,	55272	,	-27377	,	-25021	,	12.670089	,	7
42,31	,	55304	,	-27381	,	-25020	,	9.725109	,	2
42,31	,	55320	,	-27380	,	-25041	,	7.4589925	,	0
42,31	,	55336	,	-27389	,	-25014	,	5.721599	,	0
42,31	,	55368	,	-27399	,	-25035	,	4.226964	,	0
42,31	,	55384	,	-27400	,	-25042	,	2.630321	,	0
42,31	,	55416	,	-27404	,	-25037	,	0.73457074	,	0
42,31	,	55432	,	-27419	,	-25064	,	-1.4797512	,	0
42,31	,	55448	,	-27424	,	-25044	,	-4.027809	,	0
42,31	,	55480	,	-27424	,	-25046	,	-6.8691382	,	0
42,31	,	55496	,	-27436	,	-25055	,	-9.79127	,	0
42,31	,	55512	,	-27447	,	-25062	,	-12.593004	,	0
42,31	,	55544	,	-27443	,	-25057	,	-15.175749	,	0
42,31	,	55560	,	-27450	,	-25108	,	-17.37305	,	0
42,31	,	55576	,	-27453	,	-25048	,	-18.973816	,	0
42,31	,	55608	,	-27473	,	-25081	,	-19.95456	,	0
42,31	,	55624	,	-27479	,	-25083	,	-20.56464	,	0
42,31	,	55656	,	-27485	,	-25100	,	-21.116844	,	0
42,31	,	55672	,	-27495	,	-25081	,	-21.757196	,	0
42,31	,	55688	,	-27489	,	-25104	,	-22.432259	,	0
42,31	,	55720	,	-27513	,	-25086	,	-22.9999	,	0
42,31	,	55736	,	-27515	,	-25101	,	-23.448349	,	0
42,31	,	55752	,	-27522	,	-25103	,	-23.87613	,	0
42,31	,	55784	,	-27537	,	-25140	,	-24.322548	,	0
42,31	,	55800	,	-27541	,	-25126	,	-24.818592	,	0
42,31	,	55832	,	-27553	,	-25091	,	-25.393978	,	0
42,31	,	55848	,	-27542	,	-25110	,	-25.940264	,	0
42,31	,	55864	,	-27526	,	-25089	,	-26.04715	,	0
42,31	,	55896	,	-27502	,	-25075	,	-24.96781	,	0
42,31	,	55912	,	-27473	,	-25070	,	-21.843277	,	1
42,31	,	55928	,	-27463	,	-25074	,	-16.095573	,	4
42,32	,	55960	,	-27458	,	-25060	,	-7.8682413	,	9
42,32	,	55976	,	-27453	,	-25057	,	1.8790293	,	17
42,32	,	55992	,	-27443	,	-25062	,	11.818825	,	26
42,32	,	56024	,	-27442	,	-25064	,	20.75921	,	35
42,32	,	56040	,	-27445	,	-25070	,	27.795961	,	43
42,32	,	56072	,	-27441	,	-25030	,	32.32867	,	50
42,32	,	56088	,	-27436	,	-25044	,	34.18805	,	54
42,32	,	56104	,	-27444	,	-25043	,	33.6146	,	54
42,32	,	56136	,	-27450	,	-25055	,	30.985533	,	51
42,32	,	56152	,	-27451	,	-25051	,	26.695219	,	46
42,32	,	56168	,	-27449	,	-25054	,	21.27604	,	38
42,32	,	56200	,	-27438	,	-25050	,	15.467858	,	29
42,32	,	56216	,	-27439	,	-25047	,	10.088961	,	20
42,32	,	56248	,	-27438	,	-25051	,	5.749794	,	12
42,32	,	56264	,	-27431	,	-25049	,	2.7142577	,	5
42,32	,	56280	,	-27436	,	-25062	,	0.98597336	,	1
42,32	,	56312	,	-27431	,	-25045	,	0.36824512	,	0
42,32	,	56328	,	-27429	,	-25043	,	0.5591116	,	0
42,32	,	56344	,	-27435	,	-25048	,	1.2494025	,	0
42,32	,	56376	,	-27436	,	-25049	,	2.097206	,	0
42,32	,	56392	,	-27455	,	-25047	,	2.6905046	,	0
42,32	,	56408	,	-27456	,	-25061	,	2.5783665	,	0
42,32	,	56440	,	-27465	,	-25054	,	1.461602	,	0
42,32	,	56456	,	-27464	,	-25057	,	-0.6197295	,	0
42,32	,	56488	,	-27470	,	-25088	,	-3.3366623	,	0
42,32	,	56504	,	-27478	,	-25068	,	-6.284262	,	0
42,32	,	56520	,	-27493	,	-25074	,	-9.214724	,	0
42,32	,	56552	,	-27485	,	-25064	,	-12.02243	,	0
42,32	,	56567	,	-27500	,	-25073	,	-14.55005	,	0
42,32	,	56584	,	-27503	,	-25114	,	-16.645126	,	0
42,32	,	56616	,	-27528	,	-25075	,	-18.363394	,	0
42,32	,	56632	,	-27523	,	-25108	,	-19.924057	,	0
42,32	,	56664	,	-27538	,	-25107	,	-21.451468	,	0
42,32	,	56680	,	-27539	,	-25115	,	-22.89021	,	0
42,32	,	56696	,	-27550	,	-25127	,	-24.127537	,	0
42,32	,	56728	,	-27556	,	-25125	,	-25.076324	,	0
42,32	,	56744	,	-27565	,	-25111	,	-25.711517	,	0
42,32	,	56760	,	-27571	,	-25135	,	-26.063353	,	0
42,32	,	56792	,	-27580	,	-25108	,	-26.183681	,	0
42,32	,	56807	,	-27529	,	-25121	,	-25.865128	,	0
42,32	,	56839	,	-27519	,	-25087	,	-24.29137	,	0
42,32	,	56855	,	-27499	,	-25067	,	-20.493519	,	1
42,32	,	56871	,	-27463	,	-25068	,	-14.016841	,	4
42,32	,	56904	,	-27467	,	-25064	,	-5.0062265	,	10
42,32	,	56920	,	-27458	,	-25057	,	5.690753	,	19
42,32	,	56936	,	-27456	,	-25072	,	16.633614	,	29
42,33	,	56968	,	-27447	,	-25049	,	26.386538	,	39
42,33	,	56983	,	-27439	,	-25068	,	33.968243	,	48
42,33	,	56999	,	-27442	,	-25072	,	38.90724	,	55
42,33	,	57032	,	-27439	,	-25059	,	41.07578	,	59
42,33	,	57048	,	-27440	,	-25059	,	40.601856	,	60
42,33	,	57080	,	-27435	,	-25043	,	37.891495	,	57
42,33	,	57096	,	-27436	,	-25053	,	33.569138	,	51
42,33	,	57112	,	-27438	,	-25033	,	28.305346	,	42
42,33	,	57143	,	-27427	,	-25041	,	22.717506	,	32
42,33	,	57160	,	-27424	,	-25033	,	17.427277	,	22
42,33	,	57176	,	-27425	,	-25050	,	12.968178	,	13
42,33	,	57208	,	-27421	,	-25048	,	9.586336	,	6
42,33	,	57223	,	-27428	,	-25076	,	7.2404995	,	2
42,33	,	57255	,	-27433	,	-25045	,	5.6657047	,	0
42,33	,	57271	,	-27425	,	-25053	,	4.511369	,	0
42,33	,	57287	,	-27435	,	-25040	,	3.542614	,	0
42,33	,	57319	,	-27434	,	-25055	,	2.619416	,	0
42,33	,	57335	,	-27438	,	-25052	,	1.6317749	,	0
42,33	,	57351	,	-27454	,	-25041	,	0.47162044	,	0
42,33	,	57383	,	-27449	,	-25063	,	-1.007584	,	0
42,33	,	57399	,	-27463	,	-25044	,	-2.8708587	,	0
42,33	,	57415	,	-27463	,	-25059	,	-5.047038	,	0
42,33	,	57447	,	-27461	,	-25054	,	-7.353615	,	0
42,33	,	57463	,	-27464	,	-25072	,	-9.475173	,	0
42,33	,	57495	,	-27484	,	-25054	,	-11.188524	,	0
42,33	,	57511	,	-27484	,	-25079	,	-12.587802	,	0
42,33	,	57527	,	-27487	,	-25061	,	-13.849112	,	0
42,33	,	57559	,	-27496	,	-25076	,	-14.984955	,	0
42,33	,	57575	,	-27501	,	-25076	,	-15.966033	,	0
42,33	,	57591	,	-27524	,	-25083	,	-16.893637	,	0
42,33	,	57623	,	-27527	,	-25079	,	-18.003984	,	0
42,33	,	57639	,	-27529	,	-25110	,	-19.422874	,	0
42,33	,	57671	,	-27543	,	-25098	,	-21.0052	,	0
42,33	,	57687	,	-27546	,	-25090	,	-22.540527	,	0
42,33	,	57703	,	-27541	,	-25106	,	-23.81784	,	0
42,33	,	57735	,	-27538	,	-25097	,	-24.488472	,	0
42,33	,	57751	,	-27552	,	-25113	,	-24.24438	,	0
42,33	,	57767	,	-27529	,	-25105	,	-23.014027	,	0
42,33	,	57799	,	-27509	,	-25062	,	-20.663479	,	1
42,33	,	57815	,	-27478	,	-25072	,	-16.7392	,	3
42,33	,	57831	,	-27453	,	-25068	,	-10.711909	,	6
42,33	,	57863	,	-27443	,	-25062	,	-2.4266405	,	12
42,33	,	57879	,	-27432	,	-25032	,	7.5824466	,	20
42,33	,	57911	,	-27424	,	-25038	,	18.207525	,	30
42,33	,	57927	,	-27423	,	-25041	,	28.161745	,	40
42,34	,	57943	,	-27414	,	-25033	,	36.303707	,	49
42,34	,	57975	,	-27408	,	-25017	,	41.901264	,	57
42,34	,	57991	,	-27391	,	-25015	,	44.800037	,	61
42,34	,	58023	,	-27392	,	-25019	,	45.336903	,	61
42,34	,	58039	,	-27407	,	-25018	,	43.921432	,	58
42,34	,	58055	,	-27405	,	-25019	,	40.717636	,	52
42,34	,	58087	,	-27387	,	-25014	,	35.974823	,	44
42,34	,	58103	,	-27387	,	-25016	,	30.399797	,	34
42,34	,	58119	,	-27397	,	-25006	,	24.785072	,	24
42,34	,	58151	,	-27384	,	-25008	,	19.575499	,	15
42,34	,	58167	,	-27377	,	-25014	,	15.0661545	,	7
42,34	,	58183	,	-27380	,	-25027	,	11.563599	,	2
42,34	,	58215	,	-27368	,	-25019	,	9.206665	,	0
42,34	,	58231	,	-27379	,	-25020	,	7.900192	,	0
42,34	,	58263	,	-27378	,	-25017	,	7.326269	,	0
42,34	,	58279	,	-27382	,	-25026	,	7.035322	,	0
42,34	,	58295	,	-27397	,	-25026	,	6.5899787	,	0
42,34	,	58327	,	-27393	,	-25016	,	5.620763	,	0
42,34	,	58343	,	-27389	,	-25026	,	4.023981	,	0
42,34	,	58359	,	-27399	,	-25026	,	2.0241385	,	0
42,34	,	58391	,	-27402	,	-25026	,	-0.1342032	,	0
42,34	,	58407	,	-27414	,	-25058	,	-2.3690372	,	0
42,34	,	58439	,	-27420	,	-25027	,	-4.7056518	,	0
42,34	,	58455	,	-27417	,	-25050	,	-7.129457	,	0
42,34	,	58471	,	-27435	,	-25035	,	-9.512303	,	0
42,34	,	58503	,	-27434	,	-25051	,	-11.7536125	,	0
42,34	,	58519	,	-27440	,	-25040	,	-13.794019	,	0
42,34	,	58535	,	-27446	,	-25034	,	-15.526788	,	0
42,34	,	58567	,	-27457	,	-25038	,	-16.900927	,	0
42,34	,	58583	,	-27454	,	-25069	,	-17.947565	,	0
42,34	,	58599	,	-27459	,	-25046	,	-18.638622	,	0
42,34	,	58631	,	-27465	,	-25070	,	-18.903664	,	0
42,34	,	58647	,	-27483	,	-25103	,	-18.833702	,	0
42,34	,	58679	,	-27498	,	-25043	,	-18.782482	,	0
42,34	,	58695	,	-27505	,	-25074	,	-19.176334	,	0
42,34	,	58711	,	-27505	,	-25071	,	-20.167538	,	0
42,34	,	58743	,	-27503	,	-25065	,	-21.4818	,	0
42,34	,	58759	,	-27499	,	-25072	,	-22.567513	,	0
42,34	,	58775	,	-27468	,	-25074	,	-22.72638	,	0
42,34	,	58807	,	-27445	,	-25030	,	-21.109972	,	0
42,34	,	58823	,	-27415	,	-25024	,	-16.9197	,	1
42,34	,	58855	,	-27400	,	-25022	,	-9.80783	,	5
42,34	,	58871	,	-27384	,	-25014	,	-0.13133717	,	12
42,34	,	58887	,	-27395	,	-25039	,	11.007555	,	21
42,34	,	58919	,	-27377	,	-25010	,	22.024773	,	32
42,34	,	58934	,	-27370	,	-25017	,	31.500364	,	43
42,35	,	58950	,	-27380	,	-25010	,	38.542496	,	52
42,35	,	58983	,	-27375	,	-25002	,	42.61403	,	59
42,35	,	58999	,	-27365	,	-25014	,	43.581905	,	63
42,35	,	59014	,	-27376	,	-25011	,	41.82882	,	62
42,35	,	59046	,	-27364	,	-24999	,	37.991215	,	58
42,35	,	59063	,	-27359	,	-25002	,	32.831604	,	51
42,35	,	59095	,	-27350	,	-25003	,	27.241055	,	42
42,35	,	59111	,	-27354	,	-25000	,	22.00325	,	31
42,35	,	59127	,	-27349	,	-25014	,	17.558765	,	20
42,35	,	59159	,	-27349	,	-24984	,	14.035055	,	11
42,35	,	59175	,	-27343	,	-24983	,	11.411883	,	4
42,35	,	59191	,	-27344	,	-24991	,	9.607577	,	0
42,35	,	59223	,	-27338	,	-24990	,	8.495396	,	0
42,35	,	59239	,	-27348	,	-24992	,	7.885525	,	0
42,35	,	59270	,	-27356	,	-24993	,	7.440235	,	0
42,35	,	59287	,	-27369	,	-25001	,	6.6738296	,	0
42,35	,	59303	,	-27365	,	-24995	,	5.1883454	,	0
42,35	,	59334	,	-27371	,	-25013	,	2.9354436	,	0
42,35	,	59350	,	-27376	,	-25010	,	0.15888572	,	0
42,35	,	59367	,	-27390	,	-25015	,	-2.894002	,	0
42,35	,	59398	,	-27401	,	-25000	,	-6.1324925	,	0
42,35	,	59414	,	-27405	,	-25016	,	-9.53389	,	0
42,35	,	59446	,	-27421	,	-25013	,	-13.015355	,	0
42,35	,	59463	,	-27411	,	-25027	,	-16.386072	,	0
42,35	,	59479	,	-27415	,	-25014	,	-19.272049	,	0
42,35	,	59511	,	-27422	,	-25025	,	-21.252232	,	0
42,35	,	59526	,	-27426	,	-25030	,	-22.173815	,	0
42,35	,	59542	,	-27448	,	-25035	,	-22.24548	,	0
42,35	,	59574	,	-27447	,	-25040	,	-21.910583	,	0
42,35	,	59590	,	-27455	,	-25046	,	-21.55334	,	0
42,35	,	59607	,	-27459	,	-25072	,	-21.309778	,	0
42,35	,	59638	,	-27472	,	-25043	,	-21.198868	,	0
42,35	,	59654	,	-27494	,	-25062	,	-21.343807	,	0
42,35	,	59686	,	-27502	,	-25057	,	-22.012577	,	0
42,35	,	59702	,	-27501	,	-25097	,	-23.315567	,	0
42,35	,	59718	,	-27501	,	-25065	,	-24.931168	,	0
42,35	,	59750	,	-27472	,	-25060	,	-26.136948	,	0
42,35	,	59766	,	-27474	,	-25066	,	-26.02662	,	0
42,35	,	59782	,	-27440	,	-25031	,	-23.86293	,	0
42,35	,	59814	,	-27412	,	-25022	,	-19.174454	,	2
42,35	,	59830	,	-27393	,	-25024	,	-11.725452	,	6
42,35	,	59862	,	-27394	,	-25015	,	-1.8662415	,	13
42,35	,	59878	,	-27392	,	-25008	,	9.23016	,	22
42,35	,	59895	,	-27383	,	-25005	,	19.979017	,	33
42,35	,	59927	,	-27367	,	-25009	,	29.096571	,	43
42,36	,	59942	,	-27377	,	-25007	,	35.875633	,	52
42,36	,	59958	,	-27370	,	-25008	,	39.94871	,	58
42,36	,	59990	,	-27368	,	-25006	,	41.219246	,	62
42,36	,	60006	,	-27371	,	-25016	,	39.945267	,	61
42,36	,	60023	,	-27368	,	-25005	,	36.616447	,	57
42,36	,	60054	,	-27378	,	-25007	,	31.796267	,	50
42,36	,	60070	,	-27361	,	-25007	,	26.091219	,	41
42,36	,	60102	,	-27367	,	-24994	,	20.189869	,	30
42,36	,	60118	,	-27349	,	-24996	,	14.798395	,	20
42,36	,	60134	,	-27357	,	-25000	,	10.474999	,	11
42,36	,	60166	,	-27363	,	-24993	,	7.4142094	,	5
42,36	,	60182	,	-27357	,	-25001	,	5.401213	,	1
42,36	,	60198	,	-27367	,	-24999	,	4.079294	,	0
42,36	,	60230	,	-27371	,	-25007	,	3.0924032	,	0
42,36	,	60246	,	-27374	,	-24997	,	2.0985324	,	0
42,36	,	60278	,	-27384	,	-25014	,	0.852044	,	0
42,36	,	60294	,	-27373	,	-25009	,	-0.71640575	,	0
42,36	,	60310	,	-27389	,	-25029	,	-2.4745717	,	0
42,36	,	60342	,	-27397	,	-25010	,	-4.3075266	,	0
42,36	,	60358	,	-27396	,	-25023	,	-6.2396193	,	0
42,36	,	60374	,	-27405	,	-25033	,	-8.234569	,	0
42,36	,	60406	,	-27411	,	-25035	,	-10.17885	,	0
42,36	,	60422	,	-27420	,	-25049	,	-12.021147	,	0
42,36	,	60438	,	-27424	,	-25050	,	-13.757397	,	0
42,36	,	60470	,	-27435	,	-25038	,	-15.381931	,	0
42,36	,	60486	,	-27432	,	-25039	,	-16.859795	,	0
42,36	,	60518	,	-27447	,	-25044	,	-18.111788	,	0
42,36	,	60534	,	-27452	,	-25046	,	-19.108345	,	0
42,36	,	60550	,	-27451	,	-25056	,	-19.87178	,	0
42,36	,	60582	,	-27466	,	-25042	,	-20.383343	,	0
42,36	,	60598	,	-27474	,	-25074	,	-20.693502	,	0
42,36	,	60614	,	-27494	,	-25077	,	-21.026897	,	0
42,36	,	60646	,	-27491	,	-25054	,	-21.62907	,	0
42,36	,	60662	,	-27502	,	-25073	,	-22.534296	,	0
42,36	,	60694	,	-27493	,	-25091	,	-23.502617	,	0
42,36	,	60710	,	-27481	,	-25075	,	-24.053192	,	0
42,36	,	60726	,	-27466	,	-25052	,	-23.523903	,	0
42,36	,	60758	,	-27430	,	-25039	,	-21.193382	,	0
42,36	,	60774	,	-27407	,	-25014	,	-16.397358	,	2
42,36	,	60790	,	-27387	,	-25033	,	-8.811982	,	6
42,36	,	60822	,	-27388	,	-25017	,	1.1479177	,	13
42,36	,	60838	,	-27357	,	-25023	,	12.382513	,	22
42,36	,	60870	,	-27362	,	-25013	,	23.609837	,	33
42,36	,	60886	,	-27363	,	-25001	,	33.58392	,	44
42,36	,	60902	,	-27358	,	-25004	,	41.144394	,	53
42,36	,	60933	,	-27351	,	-24997	,	45.58489	,	60
42,37	,	60950	,	-27366	,	-25006	,	46.77629	,	64
42,37	,	60966	,	-27369	,	-25001	,	44.864548	,	63
42,37	,	60998	,	-27359	,	-24993	,	40.254646	,	59
42,37	,	61014	,	-27356	,	-24998	,	33.806416	,	52
42,37	,	61030	,	-27346	,	-25019	,	26.670614	,	43
42,37	,	61062	,	-27341	,	-24978	,	19.943613	,	32
42,37	,	61078	,	-27343	,	-24981	,	14.401602	,	21
42,37	,	61110	,	-27338	,	-24981	,	10.353031	,	12
42,37	,	61126	,	-27334	,	-24985	,	7.760376	,	5
42,37	,	61141	,	-27339	,	-24993	,	6.408327	,	1
42,37	,	61174	,	-27340	,	-24989	,	5.909477	,	0
42,37	,	61190	,	-27353	,	-24993	,	5.7375126	,	0
42,37	,	61206	,	-27352	,	-24999	,	5.3693905	,	0
42,37	,	61238	,	-27362	,	-25000	,	4.4471064	,	0
42,37	,	61254	,	-27371	,	-24997	,	2.803913	,	0
42,37	,	61286	,	-27372	,	-25008	,	0.42567277	,	0
42,37	,	61301	,	-27390	,	-24994	,	-2.5627065	,	0
42,37	,	61317	,	-27386	,	-24998	,	-5.9647245	,	0
42,37	,	61349	,	-27399	,	-25004	,	-9.518046	,	0
42,37	,	61366	,	-27395	,	-25013	,	-12.889929	,	0
42,37	,	61382	,	-27407	,	-25012	,	-15.762212	,	0
42,37	,	61414	,	-27413	,	-25013	,	-17.952782	,	0
42,37	,	61430	,	-27430	,	-25020	,	-19.52556	,	0
42,37	,	61446	,	-27425	,	-25034	,	-20.690536	,	0
42,37	,	61478	,	-27428	,	-25023	,	-21.517971	,	0
42,37	,	61493	,	-27446	,	-25034	,	-21.947046	,	0
42,37	,	61525	,	-27448	,	-25063	,	-22.061262	,	0
42,37	,	61541	,	-27453	,	-25033	,	-22.03302	,	0
42,37	,	61557	,	-27459	,	-25075	,	-21.922596	,	0
42,37	,	61589	,	-27482	,	-25051	,	-21.810923	,	0
42,37	,	61606	,	-27492	,	-25062	,	-21.973871	,	0
42,37	,	61622	,	-27495	,	-25063	,	-22.675352	,	0
42,37	,	61653	,	-27504	,	-25081	,	-23.868156	,	0
42,37	,	61669	,	-27472	,	-25041	,	-25.089912	,	0
42,37	,	61701	,	-27454	,	-25040	,	-25.404348	,	0
42,37	,	61717	,	-27436	,	-25026	,	-23.70436	,	0
42,37	,	61733	,	-27415	,	-25017	,	-19.306389	,	1
42,37	,	61765	,	-27393	,	-25034	,	-12.147226	,	5
42,37	,	61782	,	-27389	,	-24989	,	-2.7190838	,	12
42,37	,	61798	,	-27371	,	-25004	,	7.9951944	,	21
42,37	,	61830	,	-27362	,	-24996	,	18.810738	,	31
42,37	,	61845	,	-27357	,	-24991	,	28.647432	,	41
42,37	,	61861	,	-27363	,	-24993	,	36.56336	,	50
42,37	,	61894	,	-27349	,	-24995	,	41.83393	,	57
42,37	,	61910	,	-27338	,	-24991	,	44.25784	,	62
42,38	,	61942	,	-27356	,	-25019	,	44.112556	,	63
42,38	,	61958	,	-27365	,	-24992	,	41.64852	,	59
42,38	,	61974	,	-27359	,	-24985	,	37.032486	,	52
42,38	,	62005	,	-27363	,	-25005	,	30.742636	,	43
42,38	,	62021	,	-27351	,	-24983	,	23.615149	,	33
42,38	,	62037	,	-27349	,	-24979	,	16.611395	,	23
42,38	,	62069	,	-27351	,	-24989	,	10.54433	,	14
42,38	,	62085	,	-27345	,	-24989	,	5.8617163	,	7
42,38	,	62117	,	-27358	,	-24991	,	2.6297045	,	2
42,38	,	62133	,	-27351	,	-24993	,	0.6168895	,	0
42,38	,	62149	,	-27365	,	-24997	,	-0.5621083	,	0
42,38	,	62181	,	-27366	,	-25008	,	-1.3318138	,	0
42,38	,	62197	,	-27366	,	-24991	,	-2.0400376	,	0
42,38	,	62213	,	-27362	,	-24954	,	-2.786426	,	0
42,38	,	62245	,	-27379	,	-25012	,	-3.5209036	,	0
42,38	,	62261	,	-27386	,	-25000	,	-4.346755	,	0
42,38	,	62277	,	-27395	,	-25008	,	-5.521802	,	0
42,38	,	62309	,	-27405	,	-25015	,	-7.2267046	,	0
42,38	,	62325	,	-27408	,	-25023	,	-9.461999	,	0
42,38	,	62357	,	-27415	,	-25014	,	-12.047521	,	0
42,38	,	62373	,	-27429	,	-25024	,	-14.733137	,	0
42,38	,	62389	,	-27438	,	-25024	,	-17.376823	,	0
42,38	,	62421	,	-27442	,	-25027	,	-19.909561	,	0
42,38	,	62437	,	-27445	,	-25024	,	-22.170475	,	0
42,38	,	62453	,	-27446	,	-25034	,	-23.894596	,	0
42,38	,	62485	,	-27444	,	-25042	,	-24.80275	,	0
42,38	,	62501	,	-27453	,	-25031	,	-24.719532	,	0
42,38	,	62533	,	-27474	,	-25065	,	-23.79741	,	0
42,38	,	62549	,	-27479	,	-25058	,	-22.570091	,	0
42,38	,	62565	,	-27489	,	-25065	,	-21.599152	,	1
42,38	,	62597	,	-27494	,	-25059	,	-21.15777	,	1
42,38	,	62613	,	-27497	,	-25101	,	-21.223425	,	1
42,38	,	62629	,	-27486	,	-25063	,	-21.500504	,	1
42,38	,	62661	,	-27463	,	-25043	,	-21.362541	,	1
42,38	,	62677	,	-27443	,	-25033	,	-19.932999	,	1
42,38	,	62709	,	-27413	,	-25029	,	-16.38176	,	2
42,38	,	62725	,	-27399	,	-25022	,	-10.255154	,	5
42,38	,	62741	,	-27388	,	-25014	,	-1.746521	,	11
42,38	,	62773	,	-27366	,	-25001	,	8.335326	,	18
42,38	,	62789	,	-27374	,	-25013	,	18.867817	,	28
42,38	,	62805	,	-27369	,	-24993	,	28.562307	,	38
42,38	,	62837	,	-27378	,	-25005	,	36.140045	,	47
42,38	,	62853	,	-27365	,	-24994	,	40.723377	,	54
42,38	,	62869	,	-27364	,	-24998	,	42.12342	,	58
42,38	,	62901	,	-27367	,	-25017	,	40.728447	,	58
42,38	,	62917	,	-27366	,	-25004	,	37.148563	,	55
42,39	,	62949	,	-27369	,	-25023	,	32.03683	,	49
42,39	,	62965	,	-27362	,	-24983	,	26.078762	,	41
42,39	,	62981	,	-27361	,	-24992	,	19.979006	,	31
42,39	,	63013	,	-27337	,	-25000	,	14.477969	,	21
42,39	,	63029	,	-27349	,	-24987	,	10.256638	,	12
42,39	,	63045	,	-27354	,	-24999	,	7.549122	,	5
42,39	,	63077	,	-27349	,	-24988	,	6.024353	,	1
42,39	,	63093	,	-27365	,	-25004	,	5.1516027	,	0
42,39	,	63125	,	-27356	,	-24990	,	4.4456005	,	0
42,39	,	63141	,	-27376	,	-24998	,	3.5371747	,	0
42,39	,	63157	,	-27364	,	-25001	,	2.2291393	,	0
42,39	,	63189	,	-27375	,	-25017	,	0.54136753	,	0
42,39	,	63205	,	-27376	,	-24984	,	-1.3609704	,	0
42,39	,	63221	,	-27383	,	-25009	,	-3.3367712	,	0
42,39	,	63253	,	-27390	,	-25015	,	-5.3131375	,	0
42,39	,	63269	,	-27397	,	-25012	,	-7.276028	,	0
42,39	,	63285	,	-27404	,	-25009	,	-9.2470045	,	0
42,39	,	63317	,	-27408	,	-25013	,	-11.221811	,	0
42,39	,	63332	,	-27424	,	-25016	,	-13.180323	,	0
42,39	,	63364	,	-27411	,	-25034	,	-15.064825	,	0
42,39	,	63381	,	-27428	,	-25029	,	-16.690317	,	0
42,39	,	63397	,	-27435	,	-25040	,	-17.907768	,	0
42,39	,	63429	,	-27433	,	-25055	,	-18.74515	,	0
42,39	,	63445	,	-27455	,	-25023	,	-19.291431	,	0
42,39	,	63461	,	-27457	,	-25076	,	-19.719872	,	0
42,39	,	63493	,	-27461	,	-25036	,	-20.211468	,	0
42,39	,	63508	,	-27463	,	-25047	,	-20.730818	,	0
42,39	,	63540	,	-27452	,	-25028	,	-21.01181	,	0
42,39	,	63557	,	-27426	,	-25024	,	-20.536892	,	0
42,39	,	63572	,	-27403	,	-25011	,	-18.54046	,	0
42,39	,	63605	,	-27388	,	-25009	,	-14.350825	,	1
42,39	,	63621	,	-27367	,	-24991	,	-7.7920523	,	5
42,39	,	63637	,	-27345	,	-24987	,	0.80499554	,	11
42,39	,	63668	,	-27345	,	-25004	,	10.733891	,	19
42,39	,	63684	,	-27347	,	-24974	,	20.860413	,	28
42,39	,	63701	,	-27331	,	-24979	,	29.847385	,	38
42,39	,	63732	,	-27334	,	-24975	,	36.697853	,	46
42,39	,	63748	,	-27325	,	-24976	,	40.94052	,	52
42,39	,	63780	,	-27333	,	-24987	,	42.47249	,	56
42,39	,	63797	,	-27343	,	-24973	,	41.374725	,	56
42,39	,	63813	,	-27321	,	-24990	,	37.944138	,	52
42,39	,	63844	,	-27330	,	-24975	,	32.883797	,	46
42,39	,	63860	,	-27323	,	-24978	,	27.085035	,	38
42,39	,	63876	,	-27315	,	-24967	,	21.319574	,	29
42,39	,	63908	,	-27306	,	-24993	,	16.2664	,	19
42,39	,	63924	,	-27317	,	-24953	,	12.383046	,	11
42,40	,	63956	,	-27322	,	-24979	,	9.634645	,	5
42,40	,	63972	,	-27313	,	-24972	,	7.6525874	,	1
42,40	,	63989	,	-27305	,	-24986	,	6.2058754	,	0
42,40	,	64020	,	-27316	,	-24977	,	5.26814	,	0
42,40	,	64036	,	-27328	,	-24983	,	4.646948	,	0
42,40	,	64052	,	-27328	,	-24984	,	3.9092472	,	0
42,40	,	64084	,	-27344	,	-24985	,	2.6715672	,	0
42,40	,	64100	,	-27338	,	-24988	,	0.77235675	,	0
42,40	,	64116	,	-27352	,	-24994	,	-1.7062601	,	0
42,40	,	64148	,	-27361	,	-25017	,	-4.575428	,	0
42,40	,	64164	,	-27357	,	-24983	,	-7.6522994	,	0
42,40	,	64196	,	-27374	,	-25006	,	-10.697697	,	0
42,40	,	64212	,	-27380	,	-25008	,	-13.527761	,	0
42,40	,	64228	,	-27383	,	-25004	,	-16.082453	,	0
42,40	,	64260	,	-27398	,	-25009	,	-18.305998	,	0
42,40	,	64276	,	-27396	,	-25018	,	-20.151854	,	0
42,40	,	64292	,	-27397	,	-25029	,	-21.533848	,	0
42,40	,	64324	,	-27408	,	-25021	,	-22.30499	,	0
42,40	,	64340	,	-27410	,	-25011	,	-22.438625	,	0
42,40	,	64372	,	-27414	,	-25022	,	-22.046162	,	0
42,40	,	64388	,	-27436	,	-25047	,	-21.333195	,	0
42,40	,	64404	,	-27433	,	-25025	,	-20.632849	,	0
42,40	,	64436	,	-27396	,	-25022	,	-19.985767	,	0
42,40	,	64452	,	-27366	,	-25003	,	-18.610674	,	0
42,40	,	64468	,	-27350	,	-24994	,	-15.314135	,	1
42,40	,	64500	,	-27331	,	-24979	,	-9.42568	,	4
42,40	,	64516	,	-27299	,	-24971	,	-1.0491552	,	9
42,40	,	64548	,	-27296	,	-24959	,	9.214151	,	17
42,40	,	64564	,	-27297	,	-24957	,	20.275951	,	27
42,40	,	64580	,	-27282	,	-24964	,	30.676962	,	38
42,40	,	64612	,	-27268	,	-24956	,	39.21403	,	48
42,40	,	64628	,	-27270	,	-24955	,	45.2865	,	56
42,40	,	64644	,	-27259	,	-24951	,	48.68844	,	62
42,40	,	64676	,	-27262	,	-24957	,	49.455772	,	64
42,40	,	64692	,	-27262	,	-24946	,	47.816723	,	61
42,40	,	64708	,	-27276	,	-24954	,	44.058975	,	56
42,40	,	64740	,	-27255	,	-24946	,	38.57524	,	48
42,40	,	64756	,	-27248	,	-24941	,	32.12593	,	38
42,40	,	64788	,	-27232	,	-24932	,	25.795813	,	27
42,40	,	64804	,	-27248	,	-24932	,	20.46916	,	17
42,40	,	64820	,	-27239	,	-24933	,	16.415165	,	9
42,40	,	64852	,	-27241	,	-24934	,	13.460707	,	3
42,40	,	64868	,	-27241	,	-24944	,	11.337846	,	0
42,40	,	64884	,	-27233	,	-24929	,	9.809523	,	0
42,40	,	64916	,	-27251	,	-24937	,	8.657563	,	0
42,40	,	64932	,	-27260	,	-24939	,	7.5171514	,	0
42,41	,	64964	,	-27249	,	-24942	,	5.982996	,	0
42,41	,	64980	,	-27252	,	-24949	,	4.022351	,	0
42,41	,	64996	,	-27259	,	-24933	,	1.8995383	,	0
42,41	,	65028	,	-27264	,	-24930	,	-0.213269	,	0
42,41	,	65044	,	-27273	,	-24957	,	-2.3145585	,	0
42,41	,	65060	,	-27279	,	-24967	,	-4.4690485	,	0
42,41	,	65092	,	-27282	,	-24976	,	-6.701389	,	0
42,41	,	65108	,	-27288	,	-24955	,	-8.929266	,	0
42,41	,	65124	,	-27312	,	-24956	,	-11.107176	,	0
42,41	,	65156	,	-27308	,	-24966	,	-13.349252	,	0
42,41	,	65172	,	-27312	,	-24969	,	-15.674082	,	0
42,41	,	65204	,	-27314	,	-24972	,	-17.820814	,	0
42,41	,	65220	,	-27330	,	-24979	,	-19.51761	,	0
42,41	,	65236	,	-27337	,	-24981	,	-20.74897	,	0
42,41	,	65268	,	-27334	,	-24992	,	-21.620512	,	0
42,41	,	65284	,	-27348	,	-24983	,	-22.14262	,	0
42,41	,	65300	,	-27359	,	-24989	,	-22.363384	,	0
42,41	,	65332	,	-27359	,	-25005	,	-22.455437	,	0
42,41	,	65348	,	-27341	,	-24978	,	-22.385418	,	0
42,41	,	65379	,	-27288	,	-24954	,	-21.486374	,	0
42,41	,	65396	,	-27260	,	-24934	,	-18.47052	,	0
42,41	,	65412	,	-27250	,	-24941	,	-12.267542	,	3
42,41	,	65444	,	-27235	,	-24929	,	-2.9272442	,	9
42,41	,	65459	,	-27219	,	-24923	,	8.478475	,	18
42,41	,	65475	,	-27208	,	-24927	,	20.527136	,	29
42,41	,	65507	,	-27210	,	-24913	,	31.811384	,	41
42,41	,	65524	,	-27210	,	-24913	,	41.0185	,	52
42,41	,	65556	,	-27197	,	-24911	,	47.176865	,	61
42,41	,	65572	,	-27188	,	-24927	,	50.012825	,	67
42,41	,	65588	,	-27187	,	-24902	,	49.902874	,	69
42,41	,	65620	,	-27197	,	-24911	,	47.410255	,	66
42,41	,	65636	,	-27192	,	-24912	,	42.99881	,	60
42,41	,	65651	,	-27186	,	-24911	,	37.189262	,	51
42,41	,	65683	,	-27178	,	-24909	,	30.731169	,	40
42,41	,	65700	,	-27170	,	-24906	,	24.481024	,	28
42,41	,	65716	,	-27180	,	-24914	,	19.091955	,	17
42,41	,	65748	,	-27172	,	-24910	,	14.7911415	,	8
42,41	,	65763	,	-27163	,	-24902	,	11.566801	,	2
42,41	,	65795	,	-27184	,	-24910	,	9.331061	,	0
42,41	,	65811	,	-27181	,	-24933	,	7.740283	,	0
42,41	,	65827	,	-27184	,	-24898	,	6.3252683	,	0
42,41	,	65859	,	-27195	,	-24927	,	4.782389	,	0
42,41	,	65875	,	-27200	,	-24919	,	2.9178274	,	0
42,41	,	65892	,	-27217	,	-24916	,	0.55943847	,	0
42,41	,	65923	,	-27203	,	-24928	,	-2.3182864	,	0
42,41	,	65939	,	-27218	,	-24934	,	-5.448555	,	0
42,42	,	65972	,	-27227	,	-24939	,	-8.49007	,	0
42,42	,	65988	,	-27235	,	-24928	,	-11.325717	,	0
42,42	,	66004	,	-27243	,	-24943	,	-13.968695	,	0
42,42	,	66035	,	-27233	,	-24944	,	-16.325668	,	0
42,42	,	66051	,	-27253	,	-24970	,	-18.172504	,	0
42,42	,	66067	,	-27254	,	-24941	,	-19.401987	,	0
42,42	,	66099	,	-27266	,	-24956	,	-20.132936	,	0
42,42	,	66115	,	-27270	,	-24954	,	-20.550255	,	0
42,42	,	66131	,	-27282	,	-24966	,	-20.824091	,	0
42,42	,	66163	,	-27285	,	-24967	,	-21.092472	,	0
42,42	,	66179	,	-27296	,	-24985	,	-21.420422	,	0
42,42	,	66211	,	-27306	,	-24993	,	-21.839294	,	0
42,42	,	66227	,	-27310	,	-24985	,	-22.378769	,	0
42,42	,	66243	,	-27323	,	-24995	,	-23.020416	,	0
42,42	,	66275	,	-27309	,	-24991	,	-23.626308	,	0
42,42	,	66291	,	-27297	,	-25008	,	-23.78577	,	0
42,42	,	66307	,	-27273	,	-24959	,	-22.789268	,	0
42,42	,	66339	,	-27221	,	-24953	,	-19.733402	,	0
42,42	,	66355	,	-27209	,	-24940	,	-13.738433	,	3
42,42	,	66387	,	-27203	,	-24930	,	-4.634712	,	8
42,42	,	66403	,	-27197	,	-24917	,	6.5853662	,	17
42,42	,	66419	,	-27172	,	-24927	,	18.349133	,	28
42,42	,	66451	,	-27180	,	-24926	,	29.254707	,	39
42,42	,	66467	,	-27176	,	-24914	,	38.16132	,	49
42,42	,	66483	,	-27178	,	-24929	,	44.16101	,	57
42,42	,	66515	,	-27168	,	-24926	,	46.833023	,	62
42,42	,	66531	,	-27167	,	-24926	,	46.37323	,	64
42,42	,	66547	,	-27166	,	-24923	,	43.392776	,	61
42,42	,	66579	,	-27161	,	-24919	,	38.650246	,	56
42,42	,	66595	,	-27159	,	-24923	,	32.936424	,	47
42,42	,	66627	,	-27157	,	-24925	,	26.984991	,	36
42,42	,	66643	,	-27155	,	-24908	,	21.356098	,	25
42,42	,	66659	,	-27146	,	-24911	,	16.448946	,	15
42,42	,	66691	,	-27143	,	-24922	,	12.573496	,	7
42,42	,	66707	,	-27150	,	-24925	,	9.850156	,	2
42,42	,	66723	,	-27154	,	-24926	,	8.059689	,	0
42,42	,	66755	,	-27159	,	-24922	,	6.7560596	,	0
42,42	,	66771	,	-27160	,	-24919	,	5.5297995	,	0
42,42	,	66803	,	-27165	,	-24924	,	4.1453094	,	0
42,42	,	66819	,	-27183	,	-24932	,	2.4487836	,	0
42,42	,	66835	,	-27187	,	-24936	,	0.24119163	,	0
42,42	,	66867	,	-27185	,	-24933	,	-2.5422897	,	0
42,42	,	66883	,	-27198	,	-24938	,	-5.67087	,	0
42,42	,	66899	,	-27211	,	-24953	,	-8.884096	,	0
42,42	,	66931	,	-27208	,	-24951	,	-12.055444	,	0
42,43	,	66947	,	-27215	,	-24955	,	-14.993996	,	0
42,43	,	66979	,	-27230	,	-24963	,	-17.479229	,	0
42,43	,	66995	,	-27232	,	-24967	,	-19.475521	,	0
42,43	,	67011	,	-27234	,	-24962	,	-21.011738	,	0
42,43	,	67043	,	-27247	,	-24981	,	-22.055023	,	0
42,43	,	67059	,	-27255	,	-24969	,	-22.662777	,	0
42,43	,	67075	,	-27266	,	-24991	,	-23.026867	,	0
42,43	,	67107	,	-27282	,	-24990	,	-23.386919	,	0
42,43	,	67123	,	-27274	,	-24988	,	-23.908295	,	0
42,43	,	67139	,	-27274	,	-24985	,	-24.452648	,	0
42,43	,	67171	,	-27274	,	-24982	,	-24.606369	,	0
42,43	,	67187	,	-27254	,	-24958	,	-23.91481	,	0
42,43	,	67219	,	-27237	,	-24957	,	-21.890259	,	0
42,43	,	67235	,	-27203	,	-24952	,	-17.99126	,	2
42,43	,	67251	,	-27185	,	-24925	,	-11.791587	,	5
42,43	,	67283	,	-27176	,	-24925	,	-3.3174067	,	11
42,43	,	67299	,	-27161	,	-24931	,	6.74524	,	19
42,43	,	67315	,	-27157	,	-24930	,	17.277458	,	29
42,43	,	67347	,	-27152	,	-24920	,	27.065027	,	39
42,43	,	67363	,	-27146	,	-24925	,	35.04888	,	48
42,43	,	67395	,	-27144	,	-24903	,	40.539608	,	55
42,43	,	67411	,	-27138	,	-24927	,	43.28317	,	60
42,43	,	67427	,	-27146	,	-24919	,	43.364883	,	60
42,43	,	67459	,	-27147	,	-24909	,	41.038754	,	57
42,43	,	67475	,	-27146	,	-24914	,	36.688614	,	51
42,43	,	67491	,	-27138	,	-24900	,	30.942953	,	43
42,43	,	67523	,	-27123	,	-24900	,	24.709202	,	33
42,43	,	67539	,	-27131	,	-24898	,	18.936848	,	23
42,43	,	67555	,	-27131	,	-24901	,	14.1878395	,	14
42,43	,	67587	,	-27129	,	-24901	,	10.5359	,	7
42,43	,	67603	,	-27128	,	-24898	,	7.8560314	,	2
42,43	,	67635	,	-27126	,	-24909	,	6.006766	,	0
42,43	,	67651	,	-27143	,	-24901	,	4.7560525	,	0
42,43	,	67667	,	-27139	,	-24914	,	3.7158897	,	0
42,43	,	67699	,	-27146	,	-24928	,	2.539161	,	0
42,43	,	67715	,	-27159	,	-24939	,	1.041137	,	0
42,43	,	67731	,	-27166	,	-24910	,	-0.93076897	,	0
42,43	,	67763	,	-27177	,	-24928	,	-3.488187	,	0
42,43	,	67779	,	-27187	,	-24930	,	-6.6146016	,	0
42,43	,	67811	,	-27185	,	-24929	,	-10.133041	,	0
42,43	,	67827	,	-27191	,	-24943	,	-13.665887	,	0
42,43	,	67843	,	-27206	,	-24939	,	-16.814054	,	0
42,43	,	67874	,	-27208	,	-24939	,	-19.401743	,	0
42,43	,	67890	,	-27222	,	-24950	,	-21.435389	,	0
42,43	,	67906	,	-27231	,	-24950	,	-23.012365	,	0
42,43	,	67939	,	-27228	,	-24954	,	-24.22864	,	0
42,44	,	67955	,	-27246	,	-24974	,	-25.077137	,	0
42,44	,	67971	,	-27249	,	-24947	,	-25.57407	,	0
42,44	,	68003	,	-27258	,	-24962	,	-25.818802	,	0
42,44	,	68019	,	-27281	,	-24992	,	-25.96171	,	0
42,44	,	68050	,	-27284	,	-24983	,	-26.252434	,	0
42,44	,	68066	,	-27272	,	-24981	,	-26.759998	,	0
42,44	,	68083	,	-27282	,	-24976	,	-27.125463	,	0
42,44	,	68115	,	-27257	,	-24976	,	-26.805054	,	0
42,44	,	68131	,	-27226	,	-24951	,	-25.130093	,	0
42,44	,	68146	,	-27209	,	-24936	,	-21.28968	,	1
42,44	,	68178	,	-27177	,	-24925	,	-14.742722	,	4
42,44	,	68194	,	-27163	,	-24937	,	-5.533022	,	10
42,44	,	68226	,	-27165	,	-24905	,	5.6030064	,	19
42,44	,	68242	,	-27154	,	-24930	,	17.279108	,	30
42,44	,	68259	,	-27159	,	-24919	,	27.913483	,	41
42,44	,	68290	,	-27158	,	-24916	,	36.18589	,	51
42,44	,	68306	,	-27158	,	-24917	,	41.250732	,	59
42,44	,	68322	,	-27150	,	-24917	,	42.892155	,	64
42,44	,	68354	,	-27150	,	-24922	,	41.506096	,	64
42,44	,	68370	,	-27160	,	-24928	,	37.789803	,	61
42,44	,	68386	,	-27142	,	-24920	,	32.493416	,	55
42,44	,	68418	,	-27140	,	-24927	,	26.49213	,	46
42,44	,	68434	,	-27152	,	-24936	,	20.63097	,	35
42,44	,	68466	,	-27159	,	-24902	,	15.303337	,	24
42,44	,	68482	,	-27145	,	-24912	,	10.557064	,	14
42,44	,	68499	,	-27143	,	-24917	,	6.546852	,	6
42,44	,	68530	,	-27147	,	-24923	,	3.5217977	,	1
42,44	,	68546	,	-27149	,	-24917	,	1.512579	,	0
42,44	,	68562	,	-27161	,	-24917	,	0.25965977	,	0
42,44	,	68594	,	-27169	,	-24932	,	-0.68107533	,	0
42,44	,	68610	,	-27165	,	-24929	,	-1.7190131	,	0
42,44	,	68642	,	-27174	,	-24947	,	-3.0038116	,	0
42,44	,	68658	,	-27182	,	-24946	,	-4.52205	,	0
42,44	,	68674	,	-27195	,	-24967	,	-6.3153834	,	0
42,44	,	68706	,	-27191	,	-24934	,	-8.4237	,	0
42,44	,	68722	,	-27209	,	-24960	,	-10.753203	,	0
42,44	,	68738	,	-27222	,	-24955	,	-13.217789	,	0
42,44	,	68770	,	-27223	,	-24964	,	-15.820536	,	0
42,44	,	68786	,	-27234	,	-24960	,	-18.463488	,	0
42,44	,	68802	,	-27239	,	-24966	,	-20.931194	,	0
42,44	,	68834	,	-27248	,	-24974	,	-23.041267	,	0
42,44	,	68850	,	-27257	,	-24978	,	-24.702257	,	0
42,44	,	68882	,	-27262	,	-24986	,	-25.903244	,	0
42,44	,	68898	,	-27274	,	-24987	,	-26.676567	,	0
42,44	,	68914	,	-27283	,	-25007	,	-27.108953	,	0
42,45	,	68946	,	-27294	,	-24985	,	-27.352722	,	0
42,45	,	68962	,	-27298	,	-25006	,	-27.542027	,	0
42,45	,	68978	,	-27320	,	-25015	,	-27.771418	,	0
42,45	,	69010	,	-27300	,	-25002	,	-28.053928	,	0
42,45	,	69026	,	-27287	,	-24986	,	-28.021954	,	0
42,45	,	69058	,	-27262	,	-24982	,	-26.845936	,	0
42,45	,	69074	,	-27241	,	-24976	,	-23.633635	,	1
42,45	,	69090	,	-27235	,	-24962	,	-17.917316	,	4
42,45	,	69122	,	-27208	,	-24962	,	-9.887687	,	9
42,45	,	69138	,	-27209	,	-24957	,	-0.24654102	,	17
42,45	,	69154	,	-27207	,	-24977	,	9.943912	,	26
42,45	,	69186	,	-27217	,	-24950	,	19.332916	,	36
42,45	,	69202	,	-27211	,	-24950	,	26.63185	,	45
42,45	,	69218	,	-27215	,	-24959	,	31.054722	,	52
42,45	,	69250	,	-27215	,	-24952	,	32.435253	,	56
42,45	,	69266	,	-27215	,	-24959	,	31.077038	,	56
42,45	,	69298	,	-27215	,	-24964	,	27.595585	,	53
42,45	,	69314	,	-27210	,	-24962	,	22.784645	,	48
42,45	,	69330	,	-27215	,	-24949	,	17.46192	,	40
42,45	,	69362	,	-27205	,	-24953	,	12.328927	,	31
42,45	,	69378	,	-27211	,	-24950	,	7.8987503	,	21
42,45	,	69394	,	-27206	,	-24966	,	4.4485683	,	12
42,45	,	69426	,	-27208	,	-24954	,	2.0294943	,	5
42,45	,	69442	,	-27210	,	-24969	,	0.5378845	,	1
42,45	,	69474	,	-27224	,	-24970	,	-0.2999456	,	0
42,45	,	69490	,	-27212	,	-24971	,	-0.8598357	,	0
42,45	,	69506	,	-27224	,	-24978	,	-1.3899004	,	0
42,45	,	69538	,	-27232	,	-24971	,	-2.025564	,	0
42,45	,	69554	,	-27230	,	-24979	,	-2.910261	,	0
42,45	,	69570	,	-27233	,	-24984	,	-4.0616684	,	0
42,45	,	69602	,	-27249	,	-25002	,	-5.3968487	,	0
42,45	,	69618	,	-27260	,	-24978	,	-6.9789095	,	0
42,45	,	69650	,	-27268	,	-24992	,	-8.980699	,	0
42,45	,	69666	,	-27272	,	-24987	,	-11.431856	,	0
42,45	,	69682	,	-27278	,	-25008	,	-14.129344	,	0
42,45	,	69714	,	-27289	,	-25006	,	-16.783682	,	0
42,45	,	69730	,	-27293	,	-25013	,	-19.18502	,	0
42,45	,	69746	,	-27299	,	-25013	,	-21.194126	,	0
42,45	,	69778	,	-27314	,	-25025	,	-22.735828	,	0
42,45	,	69794	,	-27324	,	-25027	,	-23.900566	,	0
42,45	,	69810	,	-27332	,	-25030	,	-24.882961	,	0
42,45	,	69842	,	-27344	,	-25026	,	-25.812984	,	0
42,45	,	69858	,	-27338	,	-25028	,	-26.667896	,	0
42,45	,	69889	,	-27356	,	-25042	,	-27.285	,	0
42,45	,	69906	,	-27356	,	-25037	,	-27.535803	,	0
42,45	,	69922	,	-27320	,	-25020	,	-27.200207	,	0
42,46	,	69954	,	-27303	,	-25008	,	-25.592964	,	0
42,46	,	69970	,	-27280	,	-24986	,	-21.843697	,	1
42,46	,	69986	,	-27268	,	-24986	,	-15.542876	,	4
42,46	,	70018	,	-27259	,	-24993	,	-6.9975414	,	10
42,46	,	70034	,	-27258	,	-24976	,	2.8479366	,	18
42,46	,	70066	,	-27252	,	-24983	,	12.709194	,	27
42,46	,	70081	,	-27249	,	-24973	,	21.378092	,	36
42,46	,	70097	,	-27254	,	-24980	,	27.963802	,	44
42,46	,	70130	,	-27239	,	-24965	,	31.979181	,	50
42,46	,	70145	,	-27238	,	-24969	,	33.458687	,	54
42,46	,	70162	,	-27241	,	-24978	,	32.823303	,	54
42,46	,	70193	,	-27249	,	-24973	,	30.499128	,	51
42,46	,	70209	,	-27238	,	-24975	,	26.849741	,	45
42,46	,	70241	,	-27243	,	-24980	,	22.360386	,	37
42,46	,	70258	,	-27233	,	-24972	,	17.623158	,	28
42,46	,	70274	,	-27240	,	-24980	,	13.168621	,	19
42,46	,	70306	,	-27243	,	-24980	,	9.301268	,	11
42,46	,	70322	,	-27226	,	-24966	,	6.1485415	,	5
42,46	,	70338	,	-27242	,	-24975	,	3.826851	,	1
42,46	,	70369	,	-27233	,	-24971	,	2.3246827	,	0
42,46	,	70385	,	-27246	,	-24984	,	1.4174495	,	0
42,46	,	70401	,	-27255	,	-24978	,	0.7452446	,	0
42,46	,	70433	,	-27258	,	-24979	,	-0.10568452	,	0
42,46	,	70449	,	-27268	,	-24980	,	-1.4177568	,	0
42,46	,	70481	,	-27287	,	-24982	,	-3.338672	,	0
42,46	,	70497	,	-27278	,	-24992	,	-5.9257894	,	0
42,46	,	70513	,	-27293	,	-25001	,	-8.983411	,	0
42,46	,	70545	,	-27298	,	-25006	,	-12.157315	,	0
42,46	,	70561	,	-27305	,	-25012	,	-15.177558	,	0
42,46	,	70577	,	-27318	,	-25013	,	-17.883644	,	0
42,46	,	70609	,	-27319	,	-25008	,	-20.196793	,	0
42,46	,	70625	,	-27342	,	-25023	,	-22.125519	,	0
42,46	,	70657	,	-27346	,	-25035	,	-23.793688	,	0
42,46	,	70673	,	-27340	,	-25042	,	-25.265974	,	0
42,46	,	70689	,	-27352	,	-25036	,	-26.347816	,	0
42,46	,	70721	,	-27365	,	-25044	,	-26.858147	,	0
42,46	,	70737	,	-27372	,	-25066	,	-26.904863	,	0
42,46	,	70753	,	-27388	,	-25075	,	-26.763767	,	0
42,46	,	70785	,	-27379	,	-25056	,	-26.636116	,	0
42,46	,	70801	,	-27367	,	-25046	,	-26.36539	,	0
42,46	,	70833	,	-27350	,	-25043	,	-25.361164	,	0
42,46	,	70849	,	-27339	,	-25019	,	-22.934875	,	1
42,46	,	70865	,	-27293	,	-24995	,	-18.533924	,	3
42,46	,	70897	,	-27275	,	-24993	,	-11.707101	,	7
42,46	,	70913	,	-27263	,	-24994	,	-2.396265	,	13
42,46	,	70929	,	-27270	,	-24986	,	8.596278	,	22
42,47	,	70961	,	-27264	,	-24979	,	19.72585	,	32
42,47	,	70977	,	-27265	,	-24991	,	29.358557	,	43
42,47	,	70993	,	-27262	,	-24989	,	36.322243	,	52
42,47	,	71025	,	-27266	,	-24980	,	40.055122	,	58
42,47	,	71041	,	-27257	,	-24995	,	40.56275	,	60
42,47	,	71073	,	-27256	,	-24991	,	38.352234	,	58
42,47	,	71089	,	-27261	,	-24988	,	34.19615	,	54
42,47	,	71105	,	-27261	,	-24987	,	28.82203	,	48
42,47	,	71137	,	-27264	,	-24990	,	22.836775	,	39
42,47	,	71153	,	-27261	,	-24991	,	16.790472	,	29
42,47	,	71169	,	-27256	,	-24990	,	11.200684	,	18
42,47	,	71201	,	-27260	,	-24992	,	6.5016346	,	9
42,47	,	71217	,	-27257	,	-24996	,	2.9244256	,	3
42,47	,	71249	,	-27250	,	-24985	,	0.5209594	,	0
42,47	,	71265	,	-27267	,	-24996	,	-0.7959349	,	0
42,47	,	71281	,	-27268	,	-25005	,	-1.3747375	,	0
42,47	,	71313	,	-27278	,	-24972	,	-1.7375515	,	0
42,47	,	71329	,	-27276	,	-25001	,	-2.287912	,	0
42,47	,	71345	,	-27295	,	-25009	,	-3.2415848	,	0
42,47	,	71377	,	-27312	,	-25005	,	-4.8104963	,	0
42,47	,	71393	,	-27311	,	-25021	,	-7.1993074	,	0
42,47	,	71409	,	-27325	,	-25010	,	-10.347139	,	0
42,47	,	71441	,	-27323	,	-25025	,	-13.902289	,	0
42,47	,	71457	,	-27336	,	-25046	,	-17.415161	,	0
42,47	,	71489	,	-27333	,	-25030	,	-20.472939	,	0
42,47	,	71505	,	-27343	,	-25031	,	-22.762112	,	0
42,47	,	71521	,	-27346	,	-25049	,	-24.12078	,	0
42,47	,	71553	,	-27363	,	-25040	,	-24.62257	,	0
42,47	,	71569	,	-27372	,	-25047	,	-24.590004	,	0
42,47	,	71585	,	-27381	,	-25047	,	-24.428844	,	0
42,47	,	71617	,	-27388	,	-25056	,	-24.406406	,	0
42,47	,	71633	,	-27384	,	-25055	,	-24.537529	,	0
42,47	,	71665	,	-27394	,	-25058	,	-24.620308	,	0
42,47	,	71681	,	-27394	,	-25072	,	-24.427254	,	0
42,47	,	71697	,	-27376	,	-25050	,	-23.73618	,	0
42,47	,	71729	,	-27362	,	-25029	,	-22.139336	,	0
42,47	,	71745	,	-27331	,	-25013	,	-19.048975	,	1
42,47	,	71761	,	-27306	,	-25022	,	-13.888919	,	4
42,47	,	71793	,	-27303	,	-24987	,	-6.4388885	,	9
42,47	,	71809	,	-27284	,	-25000	,	2.82872	,	16
42,47	,	71825	,	-27284	,	-25007	,	12.888987	,	25
42,47	,	71857	,	-27279	,	-24999	,	22.526413	,	35
42,47	,	71873	,	-27270	,	-24997	,	30.629353	,	44
42,47	,	71905	,	-27283	,	-24997	,	36.401527	,	52
42,47	,	71921	,	-27277	,	-24999	,	39.3608	,	57
42,47	,	71937	,	-27276	,	-25002	,	39.408817	,	58
42,48	,	71969	,	-27293	,	-25010	,	36.844604	,	55
42,48	,	71985	,	-27284	,	-25002	,	32.148056	,	50
42,48	,	72001	,	-27274	,	-25021	,	26.040127	,	43
42,48	,	72033	,	-27267	,	-24973	,	19.573174	,	34
42,48	,	72049	,	-27268	,	-24990	,	13.765152	,	24
42,48	,	72081	,	-27267	,	-24979	,	9.204536	,	15
42,48	,	72097	,	-27266	,	-24984	,	6.024932	,	7
42,48	,	72113	,	-27272	,	-24984	,	4.060373	,	2
42,48	,	72144	,	-27271	,	-24989	,	2.9696383	,	0
42,48	,	72161	,	-27273	,	-24981	,	2.3767197	,	0
42,48	,	72177	,	-27273	,	-24998	,	1.995257	,	0
42,48	,	72209	,	-27286	,	-24996	,	1.5956391	,	0
42,48	,	72225	,	-27279	,	-24997	,	0.9651958	,	0
42,48	,	72241	,	-27289	,	-25014	,	0.01718533	,	0
42,48	,	72273	,	-27296	,	-24993	,	-1.2344633	,	0
42,48	,	72289	,	-27302	,	-25004	,	-2.814049	,	0
42,48	,	72321	,	-27314	,	-25014	,	-4.762132	,	0
42,48	,	72337	,	-27326	,	-25013	,	-7.1148767	,	0
42,48	,	72353	,	-27321	,	-25037	,	-9.840894	,	0
42,48	,	72385	,	-27333	,	-25019	,	-12.707431	,	0
42,48	,	72401	,	-27338	,	-25026	,	-15.39984	,	0
42,48	,	72417	,	-27353	,	-25019	,	-17.75214	,	0
42,48	,	72449	,	-27350	,	-25028	,	-19.7346	,	0
42,48	,	72464	,	-27364	,	-25029	,	-21.315311	,	0
42,48	,	72497	,	-27377	,	-25049	,	-22.515957	,	0
42,48	,	72513	,	-27363	,	-25028	,	-23.401752	,	0
42,48	,	72529	,	-27338	,	-25018	,	-23.682514	,	0
42,48	,	72561	,	-27323	,	-24993	,	-22.58651	,	0
42,48	,	72577	,	-27298	,	-25000	,	-19.335278	,	1
42,48	,	72593	,	-27257	,	-24987	,	-13.445182	,	4
42,48	,	72625	,	-27261	,	-24981	,	-4.841486	,	9
42,48	,	72641	,	-27253	,	-24971	,	5.76198	,	17
42,48	,	72657	,	-27243	,	-24970	,	16.930038	,	27
42,48	,	72688	,	-27236	,	-24970	,	27.201265	,	38
42,48	,	72704	,	-27233	,	-24968	,	35.500076	,	48
42,48	,	72736	,	-27230	,	-24979	,	41.15765	,	56
42,48	,	72752	,	-27236	,	-24957	,	43.86855	,	61
42,48	,	72768	,	-27227	,	-24955	,	43.669807	,	62
42,48	,	72800	,	-27229	,	-24958	,	40.967236	,	59
42,48	,	72817	,	-27228	,	-24944	,	36.428062	,	54
42,48	,	72833	,	-27231	,	-24953	,	30.7586	,	46
42,48	,	72864	,	-27218	,	-24957	,	24.646929	,	36
42,48	,	72880	,	-27209	,	-24947	,	18.846508	,	25
42,48	,	72912	,	-27210	,	-24945	,	14.060015	,	15
42,48	,	72929	,	-27211	,	-24950	,	10.62069	,	7
42,49	,	72944	,	-27213	,	-24954	,	8.405725	,	2
42,49	,	72976	,	-27213	,	-24958	,	7.0540433	,	0
42,49	,	72992	,	-27214	,	-24956	,	6.1872563	,	0
42,49	,	73008	,	-27227	,	-24967	,	5.454024	,	0
42,49	,	73040	,	-27234	,	-24967	,	4.47421	,	0
42,49	,	73057	,	-27237	,	-24969	,	2.932163	,	0
42,49	,	73088	,	-27242	,	-24967	,	0.75377727	,	0
42,49	,	73104	,	-27250	,	-24971	,	-1.9175043	,	0
42,49	,	73120	,	-27257	,	-24976	,	-4.881379	,	0
42,49	,	73152	,	-27264	,	-24990	,	-7.9549923	,	0
42,49	,	73168	,	-27267	,	-24977	,	-10.94954	,	0
42,49	,	73184	,	-27278	,	-24985	,	-13.682061	,	0
42,49	,	73216	,	-27282	,	-24983	,	-16.043556	,	0
42,49	,	73232	,	-27290	,	-25000	,	-17.998205	,	0
42,49	,	73248	,	-27293	,	-25001	,	-19.523571	,	0
42,49	,	73280	,	-27295	,	-25016	,	-20.571136	,	0
42,49	,	73296	,	-27305	,	-25014	,	-21.097973	,	0
42,49	,	73328	,	-27307	,	-25010	,	-21.14799	,	0
42,49	,	73344	,	-27316	,	-25011	,	-20.844872	,	0
42,49	,	73360	,	-27327	,	-25017	,	-20.369694	,	0
42,49	,	73392	,	-27326	,	-25013	,	-19.922619	,	0
42,49	,	73408	,	-27311	,	-25012	,	-19.480106	,	0
42,49	,	73424	,	-27293	,	-24996	,	-18.589123	,	0
42,49	,	73456	,	-27272	,	-24980	,	-16.522186	,	0
42,49	,	73472	,	-27246	,	-24978	,	-12.608267	,	2
42,49	,	73504	,	-27211	,	-24958	,	-6.4080772	,	5
42,49	,	73520	,	-27193	,	-24938	,	2.1946068	,	11
42,49	,	73536	,	-27184	,	-24959	,	12.756681	,	19
42,49	,	73568	,	-27196	,	-24950	,	24.0728	,	29
42,49	,	73584	,	-27172	,	-24939	,	34.503002	,	40
42,49	,	73600	,	-27168	,	-24934	,	42.76069	,	50
42,49	,	73632	,	-27160	,	-24945	,	48.26754	,	58
42,49	,	73648	,	-27174	,	-24939	,	50.833973	,	63
42,49	,	73664	,	-27172	,	-24947	,	50.383743	,	63
42,49	,	73696	,	-27169	,	-24920	,	47.089058	,	60
42,49	,	73712	,	-27165	,	-24940	,	41.56273	,	54
42,49	,	73744	,	-27156	,	-24936	,	34.75648	,	46
42,49	,	73760	,	-27163	,	-24937	,	27.657383	,	36
42,49	,	73776	,	-27142	,	-24935	,	21.07472	,	25
42,49	,	73808	,	-27154	,	-24928	,	15.59656	,	15
42,49	,	73824	,	-27144	,	-24922	,	11.497832	,	7
42,49	,	73840	,	-27154	,	-24931	,	8.700267	,	2
42,49	,	73872	,	-27157	,	-24929	,	6.8762474	,	0
42,49	,	73888	,	-27151	,	-24935	,	5.60943	,	0
42,49	,	73920	,	-27161	,	-24948	,	4.5850716	,	0
42,49	,	73936	,	-27176	,	-24932	,	3.517013	,	0
42,50	,	73952	,	-27176	,	-24946	,	2.0484073	,	0
42,50	,	73984	,	-27182	,	-24953	,	-0.01277113	,	0
42,50	,	74000	,	-27192	,	-24952	,	-2.5910418	,	0
42,50	,	74016	,	-27200	,	-24957	,	-5.5360026	,	0
42,50	,	74048	,	-27214	,	-24961	,	-8.737735	,	0
42,50	,	74064	,	-27221	,	-24970	,	-12.110425	,	0
42,50	,	74080	,	-27225	,	-24965	,	-15.512019	,	0
42,50	,	74112	,	-27220	,	-24966	,	-18.631723	,	0
42,50	,	74128	,	-27237	,	-24971	,	-21.085045	,	0
42,50	,	74160	,	-27251	,	-25009	,	-22.756977	,	0
42,50	,	74176	,	-27250	,	-24965	,	-23.851334	,	0
42,50	,	74192	,	-27260	,	-24995	,	-24.550457	,	0
42,50	,	74223	,	-27273	,	-24991	,	-24.94189	,	0
42,50	,	74240	,	-27286	,	-25008	,	-25.207104	,	0
42,50	,	74256	,	-27291	,	-25001	,	-25.572342	,	0
42,50	,	74288	,	-27290	,	-24999	,	-26.068653	,	0
42,50	,	74304	,	-27277	,	-25006	,	-26.381601	,	0
42,50	,	74336	,	-27264	,	-24989	,	-25.898281	,	0
42,50	,	74352	,	-27224	,	-24977	,	-23.834229	,	0
42,50	,	74368	,	-27191	,	-24970	,	-19.316559	,	2
42,50	,	74399	,	-27183	,	-24981	,	-11.763816	,	6
42,50	,	74416	,	-27171	,	-24924	,	-1.4887257	,	13
42,50	,	74432	,	-27167	,	-24947	,	10.27654	,	23
42,50	,	74464	,	-27160	,	-24944	,	21.928944	,	34
42,50	,	74480	,	-27162	,	-24937	,	31.984928	,	45
42,50	,	74512	,	-27149	,	-24933	,	39.38819	,	55
42,50	,	74528	,	-27143	,	-24928	,	43.716564	,	62
42,50	,	74544	,	-27149	,	-24933	,	45.084858	,	66
42,50	,	74576	,	-27153	,	-24941	,	43.78985	,	65
42,50	,	74592	,	-27161	,	-24935	,	40.146553	,	61
42,50	,	74608	,	-27146	,	-24934	,	34.6449	,	54
42,50	,	74639	,	-27158	,	-24943	,	28.052769	,	44
42,50	,	74656	,	-27148	,	-24911	,	21.200659	,	33
42,50	,	74672	,	-27153	,	-24918	,	14.765928	,	22
42,50	,	74704	,	-27148	,	-24911	,	9.234791	,	12
42,50	,	74720	,	-27136	,	-24922	,	4.9496937	,	5
42,50	,	74751	,	-27142	,	-24925	,	2.1374035	,	1
42,50	,	74767	,	-27145	,	-24932	,	0.73608255	,	0
42,50	,	74783	,	-27152	,	-24933	,	0.32046556	,	0
42,50	,	74815	,	-27162	,	-24932	,	0.29537022	,	0
42,50	,	74832	,	-27172	,	-24927	,	0.06445429	,	0
42,50	,	74848	,	-27168	,	-24946	,	-0.7866857	,	0
42,50	,	74880	,	-27171	,	-24951	,	-2.2892072	,	0
42,50	,	74896	,	-27193	,	-24939	,	-4.2602262	,	0
42,50	,	74927	,	-27197	,	-24953	,	-6.6544757	,	0
42,51	,	74944	,	-27203	,	-24950	,	-9.4789095	,	0
42,51	,	74960	,	-27212	,	-24960	,	-12.566936	,	0
42,51	,	74991	,	-27214	,	-24953	,	-15.637196	,	0
42,51	,	75007	,	-27211	,	-24947	,	-18.339264	,	0
42,51	,	75024	,	-27219	,	-24970	,	-20.291801	,	0
42,51	,	75055	,	-27238	,	-24965	,	-21.358295	,	0
42,51	,	75071	,	-27236	,	-24977	,	-21.769659	,	0
42,51	,	75088	,	-27239	,	-24975	,	-21.793747	,	0
42,51	,	75119	,	-27250	,	-24992	,	-21.53497	,	0
42,51	,	75135	,	-27262	,	-24992	,	-21.131428	,	0
42,51	,	75167	,	-27276	,	-24991	,	-20.865719	,	0
42,51	,	75184	,	-27281	,	-24989	,	-21.01754	,	0
42,51	,	75200	,	-27278	,	-24995	,	-21.617565	,	0
42,51	,	75231	,	-27262	,	-24990	,	-22.266289	,	0
42,51	,	75247	,	-27244	,	-24969	,	-22.1848	,	0
42,51	,	75263	,	-27223	,	-24964	,	-20.498613	,	0
42,51	,	75295	,	-27199	,	-24950	,	-16.549751	,	1
42,51	,	75311	,	-27196	,	-24947	,	-10.163472	,	4
42,51	,	75343	,	-27176	,	-24952	,	-1.7960453	,	10
42,51	,	75359	,	-27175	,	-24951	,	7.635291	,	18
42,51	,	75375	,	-27161	,	-24935	,	17.060087	,	27
42,51	,	75407	,	-27162	,	-24943	,	25.47699	,	36
42,51	,	75423	,	-27168	,	-24943	,	32.034843	,	44
42,51	,	75439	,	-27174	,	-24940	,	36.025055	,	50
42,51	,	75471	,	-27185	,	-24955	,	36.987553	,	53
42,51	,	75487	,	-27186	,	-24957	,	34.872295	,	52
42,51	,	75503	,	-27171	,	-24955	,	30.195744	,	49
42,51	,	75535	,	-27178	,	-24952	,	24.000414	,	43
42,51	,	75551	,	-27167	,	-24936	,	17.441322	,	35
42,51	,	75583	,	-27168	,	-24941	,	11.446056	,	26
42,51	,	75599	,	-27161	,	-24947	,	6.6418257	,	17
42,51	,	75615	,	-27172	,	-24929	,	3.2901888	,	9
42,51	,	75647	,	-27168	,	-24935	,	1.2600393	,	3
42,51	,	75664	,	-27166	,	-24938	,	0.21959376	,	0
42,51	,	75679	,	-27178	,	-24950	,	-0.1738298	,	0
42,51	,	75711	,	-27179	,	-24950	,	-0.3013525	,	0
42,51	,	75727	,	-27191	,	-24953	,	-0.5659228	,	0
42,51	,	75759	,	-27200	,	-24957	,	-1.3126917	,	0
42,51	,	75775	,	-27199	,	-24960	,	-2.740224	,	0
42,51	,	75791	,	-27204	,	-24954	,	-4.760188	,	0
42,51	,	75823	,	-27218	,	-24969	,	-7.1148033	,	0
42,51	,	75839	,	-27218	,	-24965	,	-9.618872	,	0
42,51	,	75855	,	-27237	,	-24979	,	-12.173679	,	0
42,51	,	75887	,	-27251	,	-24979	,	-14.78457	,	0
42,51	,	75903	,	-27254	,	-24983	,	-17.530125	,	0
42,51	,	75919	,	-27265	,	-24987	,	-20.352444	,	0
42,52	,	75951	,	-27272	,	-25002	,	-23.046236	,	0
42,52	,	75967	,	-27270	,	-24993	,	-25.35926	,	0
42,52	,	75999	,	-27263	,	-24997	,	-26.925013	,	0
42,52	,	76015	,	-27289	,	-25012	,	-27.423717	,	0
42,52	,	76031	,	-27304	,	-25000	,	-27.026556	,	0
42,52	,	76063	,	-27311	,	-25015	,	-26.347216	,	0
42,52	,	76079	,	-27316	,	-25008	,	-25.883848	,	0
42,52	,	76095	,	-27322	,	-25030	,	-25.753231	,	0
42,52	,	76127	,	-27293	,	-24994	,	-25.667751	,	0
42,52	,	76143	,	-27271	,	-24984	,	-24.834038	,	0
42,52	,	76175	,	-27236	,	-24972	,	-22.140465	,	0
42,52	,	76191	,	-27220	,	-24969	,	-16.70196	,	2
42,52	,	76207	,	-27205	,	-24958	,	-8.356747	,	7
42,52	,	76239	,	-27198	,	-24951	,	2.1830273	,	15
42,52	,	76255	,	-27185	,	-24948	,	13.63059	,	25
42,52	,	76271	,	-27176	,	-24945	,	24.622456	,	36
42,52	,	76303	,	-27167	,	-24951	,	34.055428	,	46
42,52	,	76319	,	-27174	,	-24943	,	41.13454	,	55
42,52	,	76335	,	-27165	,	-24938	,	45.33757	,	62
42,52	,	76367	,	-27169	,	-24938	,	46.511116	,	66
42,52	,	76383	,	-27168	,	-24945	,	44.888557	,	65
42,52	,	76415	,	-27173	,	-24945	,	40.939598	,	60
42,52	,	76431	,	-27165	,	-24930	,	35.291283	,	52
42,52	,	76447	,	-27161	,	-24935	,	28.743816	,	42
42,52	,	76479	,	-27161	,	-24936	,	22.158667	,	31
42,52	,	76495	,	-27155	,	-24940	,	16.234787	,	21
42,52	,	76511	,	-27154	,	-24939	,	11.414938	,	12
42,52	,	76543	,	-27160	,	-24944	,	7.8521748	,	5
42,52	,	76559	,	-27159	,	-24929	,	5.393734	,	1
42,52	,	76590	,	-27176	,	-24947	,	3.6663961	,	0
42,52	,	76607	,	-27176	,	-24944	,	2.1860766	,	0
42,52	,	76623	,	-27169	,	-24944	,	0.62381864	,	0
42,52	,	76655	,	-27188	,	-24960	,	-1.0442971	,	0
42,52	,	76671	,	-27186	,	-24966	,	-2.799008	,	0
42,52	,	76687	,	-27199	,	-24961	,	-4.70151	,	0
42,52	,	76719	,	-27205	,	-24969	,	-6.796534	,	0
42,52	,	76735	,	-27211	,	-24956	,	-9.081024	,	0
42,52	,	76767	,	-27219	,	-24969	,	-11.475898	,	0
42,52	,	76783	,	-27225	,	-24992	,	-13.852222	,	0
42,52	,	76799	,	-27240	,	-24961	,	-16.120161	,	0
42,52	,	76830	,	-27255	,	-24973	,	-18.32379	,	0
42,52	,	76847	,	-27250	,	-24978	,	-20.544502	,	0
42,52	,	76863	,	-27258	,	-24990	,	-22.642754	,	0
42,52	,	76895	,	-27279	,	-24990	,	-24.391327	,	0
42,52	,	76911	,	-27288	,	-24996	,	-25.82278	,	0
42,52	,	76927	,	-27282	,	-25003	,	-27.059511	,	0
42,53	,	76959	,	-27296	,	-25015	,	-27.995129	,	0
42,53	,	76974	,	-27293	,	-25006	,	-28.421719	,	0
42,53	,	77006	,	-27302	,	-25012	,	-28.221733	,	0
42,53	,	77022	,	-27307	,	-25019	,	-27.408436	,	0
42,53	,	77039	,	-27292	,	-24992	,	-26.037857	,	0
42,53	,	77071	,	-27246	,	-24973	,	-23.791643	,	1
42,53	,	77087	,	-27218	,	-24963	,	-19.748053	,	3
42,53	,	77103	,	-27208	,	-24957	,	-13.042177	,	7
42,53	,	77135	,	-27202	,	-24949	,	-3.7592487	,	13
42,53	,	77150	,	-27199	,	-24948	,	6.995982	,	22
42,53	,	77182	,	-27186	,	-24952	,	17.731651	,	32
42,53	,	77198	,	-27184	,	-24952	,	27.16769	,	42
42,53	,	77214	,	-27186	,	-24954	,	34.403263	,	51
42,53	,	77246	,	-27180	,	-24961	,	38.880783	,	58
42,53	,	77263	,	-27186	,	-24958	,	40.426987	,	61
42,53	,	77278	,	-27194	,	-24938	,	39.1817	,	60
42,53	,	77311	,	-27191	,	-24959	,	35.48915	,	56
42,53	,	77327	,	-27187	,	-24945	,	29.972448	,	50
42,53	,	77343	,	-27190	,	-24955	,	23.499449	,	41
42,53	,	77374	,	-27195	,	-24942	,	16.890066	,	31
42,53	,	77391	,	-27187	,	-24950	,	10.747204	,	21
42,53	,	77423	,	-27197	,	-24961	,	5.4925623	,	12
42,53	,	77438	,	-27181	,	-24948	,	1.3970442	,	5
42,53	,	77454	,	-27190	,	-24946	,	-1.3848319	,	1
42,53	,	77486	,	-27192	,	-24956	,	-2.8930116	,	0
42,53	,	77502	,	-27197	,	-24968	,	-3.4419103	,	0
42,53	,	77519	,	-27200	,	-24945	,	-3.464673	,	0
42,53	,	77551	,	-27218	,	-24970	,	-3.4111862	,	0
42,53	,	77566	,	-27218	,	-24972	,	-3.736605	,	0
42,53	,	77598	,	-27240	,	-24968	,	-4.7885323	,	0
42,53	,	77614	,	-27243	,	-24975	,	-6.745062	,	0
42,53	,	77630	,	-27256	,	-24974	,	-9.585637	,	0
42,53	,	77662	,	-27252	,	-24979	,	-13.023985	,	0
42,53	,	77678	,	-27259	,	-24974	,	-16.544468	,	0
42,53	,	77694	,	-27285	,	-24995	,	-19.705437	,	0
42,53	,	77726	,	-27283	,	-24998	,	-22.415434	,	0
42,53	,	77742	,	-27284	,	-25013	,	-24.67171	,	0
42,53	,	77758	,	-27303	,	-24982	,	-26.341398	,	0
42,53	,	77790	,	-27306	,	-25012	,	-27.403835	,	0
42,53	,	77806	,	-27317	,	-25008	,	-27.989792	,	0
42,53	,	77838	,	-27322	,	-25016	,	-28.214912	,	0
42,53	,	77854	,	-27324	,	-25015	,	-28.127415	,	0
42,53	,	77870	,	-27334	,	-25031	,	-27.71444	,	0
42,53	,	77902	,	-27342	,	-25029	,	-27.006107	,	0
42,53	,	77918	,	-27357	,	-25030	,	-26.177765	,	0
42,53	,	77934	,	-27340	,	-25050	,	-25.382935	,	0
42,54	,	77966	,	-27330	,	-25015	,	-24.397976	,	0
42,54	,	77982	,	-27316	,	-25031	,	-22.627247	,	0
42,54	,	78014	,	-27284	,	-24978	,	-19.417393	,	1
42,54	,	78030	,	-27259	,	-24979	,	-14.18995	,	4
42,54	,	78046	,	-27266	,	-24999	,	-6.750435	,	9
42,54	,	78078	,	-27250	,	-24983	,	2.2929087	,	16
42,54	,	78094	,	-27250	,	-24991	,	11.769984	,	25
42,54	,	78110	,	-27252	,	-24977	,	20.455048	,	34
42,54	,	78142	,	-27250	,	-24980	,	27.28657	,	42
42,54	,	78158	,	-27252	,	-24974	,	31.560043	,	48
42,54	,	78174	,	-27259	,	-24977	,	33.02422	,	52
42,54	,	78206	,	-27250	,	-24997	,	31.835835	,	52
42,54	,	78222	,	-27264	,	-25006	,	28.490635	,	49
42,54	,	78254	,	-27258	,	-24961	,	23.636461	,	44
42,54	,	78270	,	-27243	,	-24981	,	18.04337	,	37
42,54	,	78286	,	-27244	,	-24972	,	12.645769	,	28
42,54	,	78318	,	-27237	,	-24983	,	8.237426	,	19
42,54	,	78334	,	-27246	,	-24978	,	5.1603117	,	11
42,54	,	78350	,	-27247	,	-24974	,	3.2941155	,	5
42,54	,	78382	,	-27244	,	-24984	,	2.2781045	,	1
42,54	,	78398	,	-27244	,	-24983	,	1.7901521	,	0
42,54	,	78430	,	-27248	,	-24978	,	1.6026925	,	0
42,54	,	78446	,	-27262	,	-24989	,	1.4521315	,	0
42,54	,	78462	,	-27260	,	-25000	,	1.0093001	,	0
42,54	,	78494	,	-27270	,	-24984	,	0.04144329	,	0
42,54	,	78510	,	-27269	,	-24994	,	-1.4769499	,	0
42,54	,	78526	,	-27280	,	-24996	,	-3.4248207	,	0
42,54	,	78558	,	-27286	,	-25002	,	-5.656266	,	0
42,54	,	78574	,	-27298	,	-25005	,	-8.086266	,	0
42,54	,	78590	,	-27298	,	-25002	,	-10.646984	,	0
42,54	,	78622	,	-27307	,	-25011	,	-13.19069	,	0
42,54	,	78638	,	-27317	,	-25006	,	-15.545406	,	0
42,54	,	78671	,	-27321	,	-25015	,	-17.622475	,	0
42,54	,	78686	,	-27344	,	-25037	,	-19.452278	,	0
42,54	,	78702	,	-27344	,	-25038	,	-21.181068	,	0
42,54	,	78734	,	-27336	,	-25022	,	-22.810143	,	0
42,54	,	78750	,	-27355	,	-25036	,	-24.054173	,	0
42,54	,	78766	,	-27362	,	-25039	,	-24.73925	,	0
42,54	,	78798	,	-27368	,	-25035	,	-24.986723	,	0
42,54	,	78814	,	-27363	,	-25030	,	-24.89917	,	0
42,54	,	78846	,	-27341	,	-25018	,	-24.268131	,	0
42,54	,	78862	,	-27318	,	-25007	,	-22.5023	,	0
42,54	,	78878	,	-27294	,	-24991	,	-18.856659	,	1
42,54	,	78910	,	-27274	,	-24984	,	-12.843694	,	4
42,54	,	78926	,	-27271	,	-24968	,	-4.575385	,	10
42,55	,	78942	,	-27253	,	-24992	,	5.171117	,	18
42,55	,	78974	,	-27251	,	-24974	,	15.271034	,	27
42,55	,	78990	,	-27258	,	-24978	,	24.529848	,	37
42,55	,	79021	,	-27242	,	-24973	,	31.854801	,	46
42,55	,	79037	,	-27246	,	-24968	,	36.59378	,	53
42,55	,	79054	,	-27254	,	-24976	,	38.564213	,	57
42,55	,	79086	,	-27257	,	-24976	,	37.785515	,	57
42,55	,	79102	,	-27253	,	-24970	,	34.52457	,	54
42,55	,	79118	,	-27252	,	-24966	,	29.429472	,	48
42,55	,	79150	,	-27241	,	-24969	,	23.41866	,	40
42,55	,	79166	,	-27231	,	-24966	,	17.506655	,	31
42,55	,	79182	,	-27231	,	-24965	,	12.575413	,	21
42,55	,	79214	,	-27239	,	-24956	,	9.039004	,	12
42,55	,	79229	,	-27243	,	-24963	,	6.731374	,	5
42,55	,	79261	,	-27247	,	-24950	,	5.178522	,	1
42,55	,	79277	,	-27259	,	-24980	,	3.875773	,	0
42,55	,	79293	,	-27252	,	-24968	,	2.434223	,	0
42,55	,	79325	,	-27249	,	-24974	,	0.7801397	,	0
42,55	,	79341	,	-27267	,	-24973	,	-0.9254526	,	0
42,55	,	79358	,	-27264	,	-24981	,	-2.6324515	,	0
42,55	,	79390	,	-27276	,	-24978	,	-4.4049745	,	0
42,55	,	79406	,	-27283	,	-24990	,	-6.289885	,	0
42,55	,	79437	,	-27287	,	-24988	,	-8.32175	,	0
42,55	,	79453	,	-27285	,	-24986	,	-10.417862	,	0
42,55	,	79469	,	-27311	,	-24994	,	-12.425264	,	0
42,55	,	79501	,	-27308	,	-25003	,	-14.35453	,	0
42,55	,	79518	,	-27338	,	-25028	,	-16.371178	,	0
42,55	,	79533	,	-27328	,	-25019	,	-18.617638	,	0
42,55	,	79566	,	-27332	,	-25023	,	-20.971336	,	0
42,55	,	79582	,	-27336	,	-25017	,	-23.004704	,	0
42,55	,	79598	,	-27347	,	-25021	,	-24.354366	,	0
42,55	,	79629	,	-27352	,	-25031	,	-24.960075	,	0
42,55	,	79645	,	-27349	,	-25040	,	-24.909058	,	0
42,55	,	79678	,	-27363	,	-25021	,	-24.281944	,	0
42,55	,	79694	,	-27371	,	-25038	,	-23.258438	,	0
42,55	,	79710	,	-27373	,	-25033	,	-22.132614	,	1
42,55	,	79741	,	-27352	,	-25025	,	-20.974209	,	2
42,55	,	79757	,	-27325	,	-25012	,	-19.312069	,	3
42,55	,	79773	,	-27303	,	-24995	,	-16.282887	,	4
42,55	,	79805	,	-27280	,	-25002	,	-11.15623	,	7
42,55	,	79821	,	-27260	,	-24980	,	-3.7138119	,	12
42,55	,	79853	,	-27270	,	-24980	,	5.569878	,	19
42,55	,	79869	,	-27244	,	-24982	,	15.574459	,	28
42,55	,	79885	,	-27243	,	-24981	,	25.06468	,	38
42,55	,	79917	,	-27244	,	-24959	,	33.05933	,	46
42,55	,	79933	,	-27255	,	-24967	,	38.707108	,	52
42,56	,	79949	,	-27240	,	-24957	,	41.402935	,	56
42,56	,	79981	,	-27242	,	-24971	,	41.13976	,	57
42,56	,	79997	,	-27235	,	-24959	,	38.46659	,	54
42,56	,	80013	,	-27248	,	-24969	,	34.10479	,	49
42,56	,	80045	,	-27238	,	-24964	,	28.700212	,	42
42,56	,	80061	,	-27237	,	-24958	,	22.872398	,	33
42,56	,	80093	,	-27233	,	-24960	,	17.2564	,	23
42,56	,	80110	,	-27229	,	-24964	,	12.382448	,	14
