Data recorded on Tue Jun 27 18-11-27 CAT 2017
Time: 18:11:55
Time		Millis		IR PPG		Red PPG		Filtered		SSF
12,4	,	74628	,	-26184	,	-24396	,	-4.755634	,	0
12,4	,	74661	,	-26189	,	-24393	,	-5.5144386	,	0
12,4	,	74677	,	-26195	,	-24395	,	-6.0369143	,	0
12,4	,	74708	,	-26208	,	-24397	,	-6.4547634	,	0
12,4	,	74724	,	-26201	,	-24400	,	-6.994438	,	0
12,4	,	74741	,	-26202	,	-24412	,	-7.691025	,	0
12,4	,	74772	,	-26211	,	-24384	,	-8.387609	,	0
12,4	,	74788	,	-26215	,	-24397	,	-9.007637	,	0
12,4	,	74804	,	-26209	,	-24393	,	-9.552795	,	0
12,4	,	74837	,	-26219	,	-24407	,	-9.950448	,	0
12,4	,	74853	,	-26221	,	-24407	,	-10.154148	,	0
12,4	,	74869	,	-26221	,	-24402	,	-10.207054	,	0
12,4	,	74900	,	-26224	,	-24403	,	-10.131042	,	0
12,4	,	74916	,	-26219	,	-24398	,	-9.885874	,	0
12,4	,	74948	,	-26234	,	-24418	,	-9.450006	,	0
12,4	,	74964	,	-26215	,	-24405	,	-8.858776	,	0
12,4	,	74980	,	-26209	,	-24418	,	-8.011995	,	0
12,4	,	75013	,	-26195	,	-24374	,	-6.588374	,	0
12,4	,	75029	,	-26185	,	-24389	,	-4.270497	,	1
12,4	,	75045	,	-26169	,	-24386	,	-0.9059415	,	3
12,4	,	75076	,	-26181	,	-24381	,	3.364706	,	6
12,4	,	75092	,	-26168	,	-24382	,	8.012247	,	10
12,4	,	75124	,	-26181	,	-24393	,	12.315135	,	14
12,4	,	75140	,	-26172	,	-24384	,	15.628664	,	18
12,4	,	75156	,	-26174	,	-24382	,	17.569988	,	21
12,4	,	75188	,	-26174	,	-24376	,	18.08492	,	22
12,4	,	75205	,	-26168	,	-24377	,	17.352657	,	22
12,4	,	75220	,	-26176	,	-24393	,	15.680582	,	21
12,4	,	75253	,	-26172	,	-24371	,	13.3836355	,	19
12,4	,	75268	,	-26158	,	-24381	,	10.809792	,	16
12,4	,	75284	,	-26164	,	-24377	,	8.41681	,	12
12,4	,	75316	,	-26168	,	-24376	,	6.5155025	,	8
12,4	,	75332	,	-26150	,	-24381	,	5.164571	,	4
12,4	,	75364	,	-26152	,	-24369	,	4.4336634	,	1
12,4	,	75381	,	-26161	,	-24385	,	4.337643	,	0
12,4	,	75396	,	-26167	,	-24373	,	4.568112	,	0
12,4	,	75428	,	-26150	,	-24383	,	4.7227564	,	0
12,4	,	75444	,	-26159	,	-24381	,	4.68696	,	0
12,4	,	75460	,	-26169	,	-24381	,	4.4660254	,	0
12,4	,	75492	,	-26164	,	-24372	,	3.9286935	,	0
12,4	,	75508	,	-26166	,	-24393	,	3.0047295	,	0
12,4	,	75540	,	-26174	,	-24377	,	1.784524	,	0
12,4	,	75556	,	-26169	,	-24379	,	0.3725574	,	0
12,4	,	75572	,	-26184	,	-24378	,	-1.1517316	,	0
12,4	,	75604	,	-26183	,	-24386	,	-2.7635784	,	0
12,4	,	75620	,	-26180	,	-24379	,	-4.421558	,	0
12,5	,	75636	,	-26186	,	-24383	,	-5.9545536	,	0
12,5	,	75668	,	-26186	,	-24379	,	-7.1892	,	0
12,5	,	75684	,	-26186	,	-24387	,	-8.041355	,	0
12,5	,	75700	,	-26189	,	-24384	,	-8.470261	,	0
12,5	,	75732	,	-26200	,	-24379	,	-8.545598	,	0
12,5	,	75748	,	-26209	,	-24392	,	-8.52775	,	0
12,5	,	75780	,	-26201	,	-24379	,	-8.684424	,	0
12,5	,	75796	,	-26203	,	-24387	,	-9.008587	,	0
12,5	,	75812	,	-26211	,	-24385	,	-9.316544	,	0
12,5	,	75844	,	-26214	,	-24383	,	-9.541588	,	0
12,5	,	75860	,	-26214	,	-24397	,	-9.72077	,	0
12,5	,	75876	,	-26206	,	-24401	,	-9.796497	,	0
12,5	,	75908	,	-26192	,	-24393	,	-9.504464	,	0
12,5	,	75924	,	-26184	,	-24387	,	-8.440563	,	0
12,5	,	75956	,	-26163	,	-24382	,	-6.2414703	,	1
12,5	,	75972	,	-26165	,	-24371	,	-2.753467	,	3
12,5	,	75988	,	-26156	,	-24365	,	1.8023267	,	6
12,5	,	76020	,	-26137	,	-24370	,	6.9482245	,	10
12,5	,	76036	,	-26151	,	-24368	,	12.190744	,	15
12,5	,	76052	,	-26132	,	-24353	,	16.982662	,	20
12,5	,	76084	,	-26150	,	-24358	,	20.756615	,	24
12,5	,	76100	,	-26137	,	-24356	,	23.072033	,	27
12,5	,	76116	,	-26143	,	-24371	,	23.735542	,	29
12,5	,	76148	,	-26139	,	-24367	,	22.861542	,	28
12,5	,	76164	,	-26128	,	-24358	,	20.819382	,	26
12,5	,	76196	,	-26130	,	-24363	,	18.160131	,	23
12,5	,	76212	,	-26118	,	-24352	,	15.445108	,	19
12,5	,	76228	,	-26117	,	-24357	,	13.112498	,	14
12,5	,	76260	,	-26108	,	-24347	,	11.449132	,	9
12,5	,	76276	,	-26123	,	-24358	,	10.488743	,	5
12,5	,	76292	,	-26121	,	-24352	,	9.937548	,	2
12,5	,	76324	,	-26124	,	-24356	,	9.362176	,	0
12,5	,	76340	,	-26118	,	-24349	,	8.509199	,	0
12,5	,	76372	,	-26126	,	-24350	,	7.361176	,	0
12,5	,	76388	,	-26117	,	-24362	,	6.0022297	,	0
12,5	,	76404	,	-26113	,	-24357	,	4.6141047	,	0
12,5	,	76436	,	-26125	,	-24359	,	3.405919	,	0
12,5	,	76452	,	-26125	,	-24351	,	2.3893888	,	0
12,5	,	76468	,	-26129	,	-24343	,	1.4119923	,	0
12,5	,	76500	,	-26133	,	-24346	,	0.34609318	,	0
12,5	,	76516	,	-26132	,	-24357	,	-0.8543283	,	0
12,5	,	76532	,	-26129	,	-24359	,	-2.1027658	,	0
12,5	,	76564	,	-26155	,	-24357	,	-3.3083153	,	0
12,5	,	76580	,	-26144	,	-24365	,	-4.580224	,	0
12,5	,	76612	,	-26144	,	-24360	,	-5.9758625	,	0
12,6	,	76628	,	-26151	,	-24363	,	-7.295266	,	0
12,6	,	76644	,	-26145	,	-24361	,	-8.316891	,	0
12,6	,	76676	,	-26141	,	-24356	,	-8.8706255	,	0
12,6	,	76692	,	-26144	,	-24358	,	-8.80208	,	0
12,6	,	76708	,	-26152	,	-24355	,	-8.134594	,	0
12,6	,	76740	,	-26160	,	-24349	,	-7.1697917	,	0
12,6	,	76755	,	-26157	,	-24364	,	-6.31056	,	0
12,6	,	76788	,	-26169	,	-24367	,	-5.8169994	,	0
12,6	,	76804	,	-26158	,	-24362	,	-5.744375	,	0
12,6	,	76820	,	-26148	,	-24360	,	-5.8780756	,	0
12,6	,	76852	,	-26131	,	-24361	,	-5.698638	,	0
12,6	,	76868	,	-26124	,	-24344	,	-4.620344	,	0
12,6	,	76884	,	-26130	,	-24353	,	-2.3908513	,	1
12,6	,	76916	,	-26100	,	-24329	,	0.82674575	,	3
12,6	,	76932	,	-26099	,	-24343	,	4.807945	,	6
12,6	,	76948	,	-26091	,	-24341	,	9.339425	,	9
12,6	,	76980	,	-26094	,	-24338	,	13.978929	,	13
12,6	,	76996	,	-26081	,	-24338	,	18.147179	,	17
12,6	,	77027	,	-26082	,	-24337	,	21.41333	,	21
12,6	,	77043	,	-26089	,	-24330	,	23.503658	,	24
12,6	,	77059	,	-26086	,	-24333	,	24.18443	,	26
12,6	,	77091	,	-26087	,	-24334	,	23.378517	,	25
12,6	,	77107	,	-26072	,	-24341	,	21.34843	,	23
12,6	,	77124	,	-26073	,	-24333	,	18.662445	,	20
12,6	,	77156	,	-26068	,	-24314	,	15.916544	,	17
12,6	,	77171	,	-26070	,	-24329	,	13.471867	,	13
12,6	,	77203	,	-26062	,	-24320	,	11.46465	,	9
12,6	,	77219	,	-26073	,	-24330	,	9.89374	,	5
12,6	,	77236	,	-26067	,	-24335	,	8.625267	,	2
12,6	,	77268	,	-26070	,	-24321	,	7.4854445	,	0
12,6	,	77284	,	-26068	,	-24324	,	6.3840175	,	0
12,6	,	77300	,	-26074	,	-24329	,	5.2850547	,	0
12,6	,	77331	,	-26073	,	-24328	,	4.146247	,	0
12,6	,	77347	,	-26069	,	-24318	,	2.9698353	,	0
12,6	,	77379	,	-26078	,	-24334	,	1.822149	,	0
12,6	,	77395	,	-26089	,	-24315	,	0.66758645	,	0
12,6	,	77411	,	-26085	,	-24337	,	-0.66041243	,	0
12,6	,	77444	,	-26092	,	-24324	,	-2.2253304	,	0
12,6	,	77460	,	-26083	,	-24328	,	-3.8831367	,	0
12,6	,	77476	,	-26088	,	-24334	,	-5.3625464	,	0
12,6	,	77507	,	-26102	,	-24328	,	-6.484446	,	0
12,6	,	77523	,	-26096	,	-24325	,	-7.3194475	,	0
12,6	,	77539	,	-26095	,	-24341	,	-7.9539866	,	0
12,6	,	77572	,	-26102	,	-24331	,	-8.3315525	,	0
12,6	,	77588	,	-26095	,	-24331	,	-8.404541	,	0
12,6	,	77619	,	-26096	,	-24342	,	-8.14547	,	0
12,7	,	77636	,	-26111	,	-24322	,	-7.5832515	,	0
12,7	,	77652	,	-26115	,	-24345	,	-6.973918	,	0
12,7	,	77683	,	-26100	,	-24333	,	-6.5828123	,	0
12,7	,	77699	,	-26086	,	-24330	,	-6.247633	,	0
12,7	,	77715	,	-26070	,	-24328	,	-5.394132	,	0
12,7	,	77747	,	-26074	,	-24331	,	-3.5120237	,	0
12,7	,	77764	,	-26064	,	-24327	,	-0.56141734	,	1
12,7	,	77795	,	-26057	,	-24320	,	3.1149013	,	3
12,7	,	77811	,	-26051	,	-24324	,	7.109331	,	6
12,7	,	77827	,	-26041	,	-24327	,	11.074582	,	9
12,7	,	77859	,	-26056	,	-24331	,	14.644697	,	12
12,7	,	77875	,	-26045	,	-24293	,	17.360136	,	15
12,7	,	77891	,	-26044	,	-24324	,	18.884918	,	17
12,7	,	77923	,	-26038	,	-24319	,	19.227224	,	18
12,7	,	77939	,	-26037	,	-24316	,	18.629356	,	18
12,7	,	77955	,	-26035	,	-24316	,	17.392025	,	17
12,7	,	77987	,	-26038	,	-24317	,	15.761003	,	15
12,7	,	78003	,	-26042	,	-24319	,	13.855407	,	12
12,7	,	78035	,	-26037	,	-24311	,	11.724312	,	9
12,7	,	78051	,	-26033	,	-24317	,	9.497914	,	6
12,7	,	78068	,	-26035	,	-24318	,	7.4006615	,	3
12,7	,	78099	,	-26043	,	-24331	,	5.5605865	,	1
12,7	,	78115	,	-26040	,	-24296	,	3.9280267	,	0
12,7	,	78131	,	-26052	,	-24318	,	2.3894684	,	0
12,7	,	78163	,	-26059	,	-24322	,	0.7898791	,	0
12,7	,	78179	,	-26051	,	-24322	,	-0.9996605	,	0
12,7	,	78211	,	-26057	,	-24327	,	-2.8853917	,	0
12,7	,	78227	,	-26059	,	-24318	,	-4.634416	,	0
12,7	,	78243	,	-26057	,	-24321	,	-6.071439	,	0
12,7	,	78275	,	-26055	,	-24334	,	-7.054084	,	0
12,7	,	78291	,	-26074	,	-24326	,	-7.546517	,	0
12,7	,	78307	,	-26069	,	-24334	,	-7.758379	,	0
12,7	,	78339	,	-26072	,	-24348	,	-7.930353	,	0
12,7	,	78355	,	-26075	,	-24325	,	-8.114504	,	0
12,7	,	78371	,	-26096	,	-24330	,	-8.373921	,	0
12,7	,	78403	,	-26081	,	-24346	,	-8.876028	,	0
12,7	,	78419	,	-26099	,	-24343	,	-9.646518	,	0
12,7	,	78451	,	-26097	,	-24340	,	-10.567681	,	0
12,7	,	78467	,	-26105	,	-24352	,	-11.54544	,	0
12,7	,	78483	,	-26109	,	-24355	,	-12.503182	,	0
12,7	,	78515	,	-26114	,	-24357	,	-13.381544	,	0
12,7	,	78531	,	-26116	,	-24353	,	-14.138452	,	0
12,7	,	78547	,	-26108	,	-24350	,	-14.656324	,	0
12,7	,	78579	,	-26117	,	-24374	,	-14.732197	,	0
12,7	,	78595	,	-26118	,	-24340	,	-14.266581	,	0
12,8	,	78627	,	-26101	,	-24351	,	-13.269959	,	0
12,8	,	78643	,	-26085	,	-24338	,	-11.570801	,	0
12,8	,	78659	,	-26080	,	-24333	,	-8.841442	,	1
12,8	,	78691	,	-26066	,	-24328	,	-4.949996	,	3
12,8	,	78707	,	-26069	,	-24327	,	-0.115682125	,	6
12,8	,	78723	,	-26063	,	-24339	,	5.1384287	,	10
12,8	,	78755	,	-26061	,	-24335	,	10.153978	,	15
12,8	,	78771	,	-26058	,	-24337	,	14.369757	,	20
12,8	,	78787	,	-26056	,	-24331	,	17.430567	,	24
12,8	,	78819	,	-26061	,	-24347	,	19.156582	,	27
12,8	,	78835	,	-26073	,	-24326	,	19.423632	,	28
12,8	,	78867	,	-26073	,	-24340	,	18.145126	,	27
12,8	,	78883	,	-26075	,	-24337	,	15.450008	,	25
12,8	,	78899	,	-26066	,	-24334	,	11.79445	,	22
12,8	,	78931	,	-26064	,	-24329	,	7.861459	,	18
12,8	,	78947	,	-26069	,	-24343	,	4.2893353	,	13
12,8	,	78963	,	-26073	,	-24340	,	1.4050083	,	8
12,8	,	78995	,	-26068	,	-24341	,	-0.7526581	,	4
12,8	,	79011	,	-26066	,	-24345	,	-2.2002165	,	1
12,8	,	79043	,	-26079	,	-24344	,	-2.985573	,	0
12,8	,	79059	,	-26076	,	-24351	,	-3.3203473	,	0
12,8	,	79075	,	-26081	,	-24341	,	-3.4818146	,	0
12,8	,	79107	,	-26072	,	-24344	,	-3.6059165	,	0
12,8	,	79123	,	-26096	,	-24347	,	-3.7446318	,	0
12,8	,	79139	,	-26086	,	-24355	,	-4.042698	,	0
12,8	,	79171	,	-26096	,	-24354	,	-4.627853	,	0
12,8	,	79187	,	-26105	,	-24356	,	-5.5107484	,	0
12,8	,	79203	,	-26117	,	-24358	,	-6.74707	,	0
12,8	,	79235	,	-26109	,	-24356	,	-8.375927	,	0
12,8	,	79251	,	-26111	,	-24366	,	-10.173503	,	0
12,8	,	79283	,	-26114	,	-24364	,	-11.741073	,	0
12,8	,	79299	,	-26113	,	-24369	,	-12.782595	,	0
12,8	,	79315	,	-26127	,	-24356	,	-13.224546	,	0
12,8	,	79347	,	-26137	,	-24369	,	-13.266945	,	0
12,8	,	79363	,	-26133	,	-24360	,	-13.244949	,	0
12,8	,	79379	,	-26130	,	-24362	,	-13.270953	,	0
12,8	,	79411	,	-26140	,	-24372	,	-13.20725	,	0
12,8	,	79427	,	-26151	,	-24382	,	-13.01734	,	0
12,8	,	79459	,	-26150	,	-24373	,	-12.866191	,	0
12,8	,	79475	,	-26162	,	-24380	,	-12.906614	,	0
12,8	,	79491	,	-26160	,	-24378	,	-13.178814	,	0
12,8	,	79523	,	-26154	,	-24391	,	-13.558409	,	0
12,8	,	79539	,	-26163	,	-24389	,	-13.772773	,	0
12,8	,	79555	,	-26144	,	-24370	,	-13.552763	,	0
12,8	,	79587	,	-26131	,	-24371	,	-12.572376	,	0
12,8	,	79603	,	-26129	,	-24368	,	-10.467518	,	0
12,9	,	79634	,	-26124	,	-24369	,	-7.1732	,	2
12,9	,	79650	,	-26131	,	-24374	,	-3.0701122	,	5
12,9	,	79667	,	-26126	,	-24370	,	1.1902103	,	9
12,9	,	79698	,	-26128	,	-24372	,	4.9740267	,	13
12,9	,	79714	,	-26122	,	-24372	,	7.8787374	,	16
12,9	,	79731	,	-26131	,	-24358	,	9.735043	,	18
12,9	,	79763	,	-26128	,	-24367	,	10.496141	,	19
12,9	,	79779	,	-26139	,	-24367	,	10.170151	,	19
12,9	,	79795	,	-26129	,	-24365	,	8.864353	,	19
12,9	,	79826	,	-26128	,	-24360	,	6.8933725	,	17
12,9	,	79843	,	-26127	,	-24370	,	4.727708	,	14
12,9	,	79874	,	-26134	,	-24368	,	2.7433724	,	10
12,9	,	79890	,	-26129	,	-24372	,	1.0973823	,	6
12,9	,	79907	,	-26121	,	-24363	,	-0.12055397	,	3
12,9	,	79939	,	-26131	,	-24366	,	-0.8045795	,	1
12,9	,	79955	,	-26130	,	-24359	,	-0.9989391	,	0
12,9	,	79970	,	-26137	,	-24368	,	-0.943405	,	0
12,9	,	80002	,	-26143	,	-24375	,	-0.9409034	,	0
12,9	,	80018	,	-26142	,	-24366	,	-1.2380335	,	0
12,9	,	80051	,	-26151	,	-24379	,	-1.9378928	,	0
12,9	,	80067	,	-26160	,	-24380	,	-3.066095	,	0
12,9	,	80082	,	-26161	,	-24392	,	-4.6334763	,	0
12,9	,	80114	,	-26162	,	-24380	,	-6.5208097	,	0
12,9	,	80130	,	-26159	,	-24381	,	-8.418887	,	0
12,9	,	80147	,	-26161	,	-24383	,	-9.951445	,	0
12,9	,	80179	,	-26164	,	-24394	,	-10.864006	,	0
12,9	,	80195	,	-26181	,	-24393	,	-11.186246	,	0
12,9	,	80210	,	-26179	,	-24389	,	-11.221394	,	0
12,9	,	80242	,	-26181	,	-24390	,	-11.257149	,	0
12,9	,	80258	,	-26177	,	-24389	,	-11.317375	,	0
12,9	,	80290	,	-26188	,	-24403	,	-11.273148	,	0
12,9	,	80306	,	-26190	,	-24406	,	-11.093992	,	0
12,9	,	80322	,	-26190	,	-24410	,	-10.858362	,	0
12,9	,	80354	,	-26199	,	-24404	,	-10.627428	,	0
12,9	,	80371	,	-26191	,	-24400	,	-10.4134655	,	0
12,9	,	80386	,	-26196	,	-24392	,	-10.146294	,	0
12,9	,	80418	,	-26202	,	-24389	,	-9.746388	,	0
12,9	,	80434	,	-26194	,	-24397	,	-9.224423	,	0
12,9	,	80466	,	-26177	,	-24380	,	-8.479028	,	0
12,9	,	80482	,	-26167	,	-24390	,	-7.140417	,	0
12,9	,	80498	,	-26166	,	-24367	,	-4.8593864	,	1
12,9	,	80530	,	-26165	,	-24372	,	-1.6808052	,	3
12,9	,	80546	,	-26154	,	-24369	,	2.0063894	,	6
12,9	,	80562	,	-26171	,	-24382	,	5.6967916	,	9
12,9	,	80594	,	-26162	,	-24378	,	8.822407	,	12
12,9	,	80610	,	-26171	,	-24381	,	10.899945	,	15
12,10	,	80626	,	-26166	,	-24370	,	11.721899	,	17
12,10	,	80658	,	-26174	,	-24390	,	11.333714	,	17
12,10	,	80674	,	-26180	,	-24389	,	9.89369	,	17
12,10	,	80706	,	-26179	,	-24381	,	7.5966234	,	16
12,10	,	80722	,	-26172	,	-24394	,	4.775462	,	14
12,10	,	80738	,	-26174	,	-24366	,	1.930573	,	11
12,10	,	80770	,	-26185	,	-24388	,	-0.5391407	,	8
12,10	,	80786	,	-26166	,	-24382	,	-2.4625297	,	5
12,10	,	80802	,	-26179	,	-24385	,	-3.7139041	,	2
12,10	,	80834	,	-26182	,	-24385	,	-4.2797475	,	0
12,10	,	80850	,	-26198	,	-24383	,	-4.4604597	,	0
12,10	,	80882	,	-26191	,	-24391	,	-4.6881533	,	0
12,10	,	80898	,	-26188	,	-24392	,	-5.1431675	,	0
12,10	,	80914	,	-26190	,	-24385	,	-5.666302	,	0
12,10	,	80946	,	-26188	,	-24389	,	-6.0168486	,	0
12,10	,	80962	,	-26194	,	-24389	,	-6.076062	,	0
12,10	,	80978	,	-26198	,	-24377	,	-5.8958836	,	0
12,10	,	81010	,	-26199	,	-24400	,	-5.641022	,	0
12,10	,	81026	,	-26199	,	-24394	,	-5.430954	,	0
12,10	,	81042	,	-26210	,	-24399	,	-5.3219404	,	0
12,10	,	81074	,	-26213	,	-24400	,	-5.4262614	,	0
12,10	,	81090	,	-26207	,	-24391	,	-5.8251896	,	0
12,10	,	81122	,	-26214	,	-24414	,	-6.408038	,	0
12,10	,	81138	,	-26218	,	-24399	,	-7.010481	,	0
12,10	,	81154	,	-26209	,	-24405	,	-7.52844	,	0
12,10	,	81186	,	-26222	,	-24402	,	-7.8521175	,	0
12,10	,	81202	,	-26229	,	-24419	,	-7.991106	,	0
12,10	,	81218	,	-26225	,	-24380	,	-8.110697	,	0
12,10	,	81250	,	-26234	,	-24416	,	-8.306947	,	0
12,10	,	81266	,	-26254	,	-24408	,	-8.670968	,	0
12,10	,	81298	,	-26251	,	-24414	,	-9.429462	,	0
12,10	,	81314	,	-26227	,	-24405	,	-10.545087	,	0
12,10	,	81330	,	-26221	,	-24405	,	-11.384007	,	0
12,10	,	81362	,	-26219	,	-24403	,	-11.1808815	,	0
12,10	,	81378	,	-26207	,	-24403	,	-9.595194	,	0
12,10	,	81394	,	-26196	,	-24383	,	-6.6526756	,	1
12,10	,	81426	,	-26196	,	-24399	,	-2.5742931	,	3
12,10	,	81442	,	-26198	,	-24420	,	2.1435127	,	7
12,10	,	81474	,	-26209	,	-24375	,	6.7208586	,	11
12,10	,	81490	,	-26206	,	-24387	,	10.333896	,	15
12,10	,	81506	,	-26192	,	-24384	,	12.52389	,	18
12,10	,	81538	,	-26199	,	-24386	,	13.372327	,	20
12,10	,	81554	,	-26205	,	-24390	,	13.145874	,	20
12,10	,	81570	,	-26207	,	-24389	,	11.991015	,	20
12,10	,	81602	,	-26218	,	-24385	,	9.99613	,	19
12,10	,	81618	,	-26199	,	-24377	,	7.354083	,	17
12,11	,	81634	,	-26199	,	-24374	,	4.5294113	,	13
12,11	,	81666	,	-26193	,	-24385	,	2.137103	,	9
12,11	,	81682	,	-26201	,	-24399	,	0.5643544	,	5
12,11	,	81716	,	-26187	,	-24365	,	-0.1284306	,	2
12,11	,	81730	,	-26198	,	-24386	,	-0.050308466	,	0
12,11	,	81746	,	-26193	,	-24389	,	0.5626636	,	0
12,11	,	81778	,	-26200	,	-24393	,	1.366067	,	0
12,11	,	81794	,	-26198	,	-24386	,	2.0428655	,	0
12,11	,	81810	,	-26198	,	-24384	,	2.4179869	,	0
12,11	,	81842	,	-26207	,	-24382	,	2.4299524	,	0
12,11	,	81857	,	-26203	,	-24389	,	2.0390577	,	0
12,11	,	81890	,	-26197	,	-24389	,	1.3143587	,	0
12,11	,	81906	,	-26203	,	-24380	,	0.48498428	,	0
12,11	,	81922	,	-26204	,	-24408	,	-0.27208585	,	0
12,11	,	81954	,	-26217	,	-24383	,	-0.9871325	,	0
12,11	,	81970	,	-26218	,	-24397	,	-1.8407372	,	0
12,11	,	81986	,	-26220	,	-24393	,	-2.969661	,	0
12,11	,	82017	,	-26218	,	-24380	,	-4.307537	,	0
12,11	,	82033	,	-26216	,	-24384	,	-5.610594	,	0
12,11	,	82065	,	-26227	,	-24400	,	-6.64073	,	0
12,11	,	82082	,	-26226	,	-24398	,	-7.3485785	,	0
12,11	,	82098	,	-26231	,	-24403	,	-7.8231983	,	0
12,11	,	82130	,	-26222	,	-24395	,	-8.101688	,	0
12,11	,	82146	,	-26225	,	-24388	,	-8.0973835	,	0
12,11	,	82162	,	-26223	,	-24398	,	-7.70172	,	0
12,11	,	82194	,	-26231	,	-24370	,	-6.944516	,	0
12,11	,	82210	,	-26231	,	-24381	,	-6.019458	,	0
12,11	,	82242	,	-26208	,	-24379	,	-5.0341487	,	0
12,11	,	82258	,	-26201	,	-24369	,	-3.7442787	,	0
12,11	,	82273	,	-26190	,	-24359	,	-1.7482345	,	1
12,11	,	82305	,	-26193	,	-24369	,	1.0871568	,	2
12,11	,	82321	,	-26194	,	-24355	,	4.4602647	,	4
12,11	,	82337	,	-26193	,	-24363	,	7.790361	,	7
12,11	,	82370	,	-26191	,	-24369	,	10.533796	,	10
12,11	,	82385	,	-26189	,	-24390	,	12.384846	,	12
12,11	,	82401	,	-26194	,	-24365	,	13.247606	,	13
12,11	,	82433	,	-26192	,	-24371	,	13.127172	,	13
12,11	,	82449	,	-26197	,	-24380	,	12.102678	,	13
12,11	,	82482	,	-26183	,	-24377	,	10.403723	,	12
12,11	,	82498	,	-26190	,	-24365	,	8.423727	,	11
12,11	,	82514	,	-26181	,	-24368	,	6.5492134	,	9
12,11	,	82545	,	-26180	,	-24362	,	5.0424137	,	6
12,11	,	82561	,	-26181	,	-24372	,	4.0405283	,	3
12,11	,	82577	,	-26168	,	-24369	,	3.5793927	,	1
12,11	,	82610	,	-26171	,	-24366	,	3.67657	,	0
12,12	,	82626	,	-26169	,	-24372	,	4.273984	,	0
12,12	,	82657	,	-26170	,	-24356	,	5.146093	,	0
12,12	,	82673	,	-26166	,	-24362	,	6.0234346	,	0
12,12	,	82689	,	-26164	,	-24351	,	6.735939	,	0
12,12	,	82721	,	-26170	,	-24361	,	7.1871915	,	0
12,12	,	82737	,	-26163	,	-24355	,	7.295569	,	0
12,12	,	82753	,	-26172	,	-24355	,	7.027716	,	0
12,12	,	82786	,	-26159	,	-24361	,	6.4318886	,	0
12,12	,	82801	,	-26168	,	-24346	,	5.6361275	,	0
12,12	,	82817	,	-26164	,	-24348	,	4.7664595	,	0
12,12	,	82849	,	-26162	,	-24345	,	3.8953695	,	0
12,12	,	82865	,	-26154	,	-24352	,	3.1424608	,	0
12,12	,	82897	,	-26163	,	-24340	,	2.6518571	,	0
12,12	,	82913	,	-26166	,	-24353	,	2.3956265	,	0
12,12	,	82929	,	-26171	,	-24352	,	2.1471915	,	0
12,12	,	82961	,	-26159	,	-24357	,	1.7322822	,	0
12,12	,	82977	,	-26174	,	-24363	,	1.1668525	,	0
12,12	,	82993	,	-26179	,	-24354	,	0.44008398	,	0
12,12	,	83026	,	-26175	,	-24353	,	-0.5529991	,	0
12,12	,	83041	,	-26174	,	-24362	,	-1.7572296	,	0
12,12	,	83073	,	-26176	,	-24359	,	-2.9343631	,	0
12,12	,	83089	,	-26185	,	-24354	,	-3.9186816	,	0
12,12	,	83105	,	-26169	,	-24358	,	-4.66262	,	0
12,12	,	83137	,	-26147	,	-24340	,	-4.924751	,	0
12,12	,	83153	,	-26131	,	-24340	,	-4.1254745	,	0
12,12	,	83169	,	-26123	,	-24328	,	-1.7426023	,	0
12,12	,	83201	,	-26119	,	-24332	,	2.2311928	,	2
12,12	,	83217	,	-26110	,	-24327	,	7.276154	,	5
12,12	,	83233	,	-26100	,	-24327	,	12.687845	,	10
12,12	,	83265	,	-26106	,	-24321	,	17.806751	,	15
12,12	,	83281	,	-26099	,	-24325	,	22.015562	,	20
12,12	,	83313	,	-26101	,	-24323	,	24.833652	,	24
12,12	,	83329	,	-26101	,	-24317	,	26.03587	,	26
12,12	,	83345	,	-26106	,	-24314	,	25.600067	,	27
12,12	,	83377	,	-26102	,	-24329	,	23.665405	,	27
12,12	,	83393	,	-26101	,	-24317	,	20.569067	,	25
12,12	,	83409	,	-26089	,	-24319	,	16.85805	,	22
12,12	,	83441	,	-26100	,	-24310	,	13.144796	,	17
12,12	,	83457	,	-26085	,	-24315	,	9.88192	,	12
12,12	,	83489	,	-26097	,	-24323	,	7.3050117	,	7
12,12	,	83505	,	-26092	,	-24316	,	5.436411	,	3
12,12	,	83521	,	-26090	,	-24318	,	4.144648	,	1
12,12	,	83553	,	-26086	,	-24319	,	3.3271966	,	0
12,12	,	83569	,	-26081	,	-24314	,	2.972436	,	0
12,12	,	83585	,	-26097	,	-24307	,	3.009228	,	0
12,12	,	83617	,	-26098	,	-24317	,	3.1370037	,	0
12,13	,	83633	,	-26101	,	-24320	,	2.9602559	,	0
12,13	,	83649	,	-26092	,	-24321	,	2.3217597	,	0
12,13	,	83681	,	-26111	,	-24321	,	1.3119568	,	0
12,13	,	83697	,	-26096	,	-24313	,	0.050483108	,	0
12,13	,	83729	,	-26100	,	-24317	,	-1.2797486	,	0
12,13	,	83745	,	-26111	,	-24327	,	-2.4596412	,	0
12,13	,	83761	,	-26128	,	-24318	,	-3.554547	,	0
12,13	,	83793	,	-26124	,	-24321	,	-4.8735785	,	0
12,13	,	83809	,	-26130	,	-24327	,	-6.547683	,	0
12,13	,	83825	,	-26124	,	-24321	,	-8.377182	,	0
12,13	,	83857	,	-26121	,	-24336	,	-9.965545	,	0
12,13	,	83873	,	-26137	,	-24342	,	-10.982069	,	0
12,13	,	83905	,	-26131	,	-24333	,	-11.402304	,	0
12,13	,	83921	,	-26137	,	-24332	,	-11.377781	,	0
12,13	,	83937	,	-26137	,	-24334	,	-11.022839	,	0
12,13	,	83969	,	-26141	,	-24341	,	-10.435152	,	0
12,13	,	83985	,	-26126	,	-24328	,	-9.652836	,	0
12,13	,	84001	,	-26115	,	-24338	,	-8.50074	,	0
12,13	,	84033	,	-26100	,	-24327	,	-6.611355	,	1
12,13	,	84049	,	-26081	,	-24329	,	-3.6207333	,	2
12,13	,	84081	,	-26079	,	-24306	,	0.61547494	,	4
12,13	,	84097	,	-26071	,	-24310	,	5.8369384	,	8
12,13	,	84113	,	-26065	,	-24315	,	11.441185	,	13
12,13	,	84145	,	-26059	,	-24310	,	16.768436	,	18
12,13	,	84161	,	-26064	,	-24309	,	21.237598	,	23
12,13	,	84177	,	-26059	,	-24315	,	24.361141	,	27
12,13	,	84209	,	-26060	,	-24314	,	25.857946	,	30
12,13	,	84225	,	-26066	,	-24312	,	25.693726	,	30
12,13	,	84241	,	-26055	,	-24308	,	24.029675	,	29
12,13	,	84273	,	-26059	,	-24322	,	21.245785	,	27
12,13	,	84289	,	-26058	,	-24325	,	17.832088	,	23
12,13	,	84321	,	-26043	,	-24286	,	14.2763815	,	18
12,13	,	84337	,	-26047	,	-24306	,	11.091203	,	13
12,13	,	84353	,	-26044	,	-24302	,	8.6423435	,	8
12,13	,	84385	,	-26045	,	-24306	,	6.9855776	,	4
12,13	,	84401	,	-26044	,	-24304	,	5.9763455	,	1
12,13	,	84417	,	-26041	,	-24306	,	5.4210157	,	0
12,13	,	84448	,	-26058	,	-24316	,	5.0817204	,	0
12,13	,	84465	,	-26056	,	-24311	,	4.6162295	,	0
12,13	,	84497	,	-26051	,	-24311	,	3.771506	,	0
12,13	,	84513	,	-26052	,	-24312	,	2.6146894	,	0
12,13	,	84529	,	-26059	,	-24319	,	1.3584194	,	0
12,13	,	84561	,	-26079	,	-24307	,	0.010235667	,	0
12,13	,	84577	,	-26064	,	-24325	,	-1.6056377	,	0
12,13	,	84593	,	-26065	,	-24327	,	-3.423975	,	0
12,14	,	84624	,	-26077	,	-24323	,	-5.1237507	,	0
12,14	,	84640	,	-26077	,	-24327	,	-6.548601	,	0
12,14	,	84657	,	-26082	,	-24328	,	-7.7303987	,	0
12,14	,	84689	,	-26092	,	-24329	,	-8.731258	,	0
12,14	,	84705	,	-26093	,	-24344	,	-9.655542	,	0
12,14	,	84736	,	-26101	,	-24325	,	-10.588199	,	0
12,14	,	84753	,	-26093	,	-24339	,	-11.488958	,	0
12,14	,	84768	,	-26103	,	-24348	,	-12.200981	,	0
12,14	,	84800	,	-26107	,	-24321	,	-12.619774	,	0
12,14	,	84817	,	-26118	,	-24341	,	-12.833227	,	0
12,14	,	84833	,	-26118	,	-24335	,	-13.025892	,	0
12,14	,	84864	,	-26110	,	-24344	,	-13.232519	,	0
12,14	,	84881	,	-26137	,	-24342	,	-13.350513	,	0
12,14	,	84912	,	-26130	,	-24348	,	-13.437918	,	0
12,14	,	84929	,	-26139	,	-24353	,	-13.643005	,	0
12,14	,	84945	,	-26113	,	-24345	,	-13.834514	,	0
12,14	,	84976	,	-26109	,	-24337	,	-13.511841	,	0
12,14	,	84992	,	-26094	,	-24345	,	-12.087673	,	0
12,14	,	85008	,	-26092	,	-24365	,	-9.2622795	,	1
12,14	,	85041	,	-26077	,	-24322	,	-5.12616	,	3
12,14	,	85057	,	-26088	,	-24328	,	-0.101061344	,	7
12,14	,	85073	,	-26079	,	-24337	,	5.1166635	,	12
12,14	,	85105	,	-26082	,	-24336	,	9.786827	,	17
12,14	,	85120	,	-26068	,	-24337	,	13.431305	,	21
12,14	,	85152	,	-26079	,	-24338	,	15.881727	,	24
12,14	,	85168	,	-26082	,	-24340	,	17.057003	,	26
12,14	,	85184	,	-26083	,	-24338	,	16.875875	,	27
12,14	,	85217	,	-26092	,	-24333	,	15.383897	,	26
12,14	,	85233	,	-26078	,	-24328	,	12.82901	,	24
12,14	,	85249	,	-26081	,	-24352	,	9.692051	,	20
12,14	,	85281	,	-26084	,	-24333	,	6.5267887	,	15
12,14	,	85297	,	-26076	,	-24337	,	3.7282329	,	10
12,14	,	85328	,	-26083	,	-24345	,	1.5307317	,	6
12,14	,	85344	,	-26074	,	-24347	,	0.03852606	,	3
12,14	,	85360	,	-26091	,	-24345	,	-0.8084582	,	1
12,14	,	85392	,	-26076	,	-24349	,	-1.2079372	,	0
12,14	,	85409	,	-26090	,	-24345	,	-1.3610617	,	0
12,14	,	85425	,	-26098	,	-24360	,	-1.4824048	,	0
12,14	,	85456	,	-26097	,	-24350	,	-1.8539671	,	0
12,14	,	85472	,	-26094	,	-24358	,	-2.5918005	,	0
12,14	,	85504	,	-26105	,	-24366	,	-3.5709124	,	0
12,14	,	85520	,	-26103	,	-24349	,	-4.6564837	,	0
12,14	,	85536	,	-26111	,	-24361	,	-5.782143	,	0
12,14	,	85568	,	-26122	,	-24353	,	-6.94841	,	0
12,14	,	85584	,	-26120	,	-24361	,	-8.222593	,	0
12,14	,	85600	,	-26117	,	-24368	,	-9.549247	,	0
12,15	,	85632	,	-26136	,	-24370	,	-10.7432375	,	0
12,15	,	85648	,	-26128	,	-24373	,	-11.729001	,	0
12,15	,	85664	,	-26139	,	-24370	,	-12.509413	,	0
12,15	,	85696	,	-26134	,	-24371	,	-13.040971	,	0
12,15	,	85712	,	-26137	,	-24370	,	-13.246445	,	0
12,15	,	85745	,	-26155	,	-24374	,	-13.131922	,	0
12,15	,	85760	,	-26155	,	-24372	,	-12.923765	,	0
12,15	,	85776	,	-26168	,	-24371	,	-12.924665	,	0
12,15	,	85808	,	-26171	,	-24383	,	-13.310568	,	0
12,15	,	85824	,	-26183	,	-24376	,	-14.132224	,	0
12,15	,	85840	,	-26174	,	-24378	,	-15.289056	,	0
12,15	,	85872	,	-26162	,	-24387	,	-16.3859	,	0
12,15	,	85888	,	-26155	,	-24373	,	-16.768333	,	0
12,15	,	85920	,	-26145	,	-24365	,	-15.857197	,	0
12,15	,	85936	,	-26139	,	-24367	,	-13.405394	,	0
12,15	,	85952	,	-26145	,	-24367	,	-9.587207	,	2
12,15	,	85984	,	-26142	,	-24375	,	-4.9944663	,	5
12,15	,	86000	,	-26143	,	-24371	,	-0.38532448	,	9
12,15	,	86016	,	-26136	,	-24369	,	3.6496735	,	13
12,15	,	86048	,	-26131	,	-24362	,	6.8414044	,	17
12,15	,	86064	,	-26138	,	-24368	,	9.141709	,	20
12,15	,	86080	,	-26133	,	-24364	,	10.525357	,	22
12,15	,	86112	,	-26144	,	-24368	,	10.959338	,	23
12,15	,	86128	,	-26146	,	-24369	,	10.42993	,	23
12,15	,	86160	,	-26142	,	-24384	,	9.005629	,	21
12,15	,	86176	,	-26138	,	-24379	,	6.976493	,	18
12,15	,	86192	,	-26149	,	-24383	,	4.7403574	,	14
12,15	,	86224	,	-26153	,	-24376	,	2.5154014	,	10
12,15	,	86240	,	-26143	,	-24369	,	0.3867321	,	6
12,15	,	86256	,	-26144	,	-24371	,	-1.4473555	,	3
12,15	,	86288	,	-26154	,	-24378	,	-2.7871883	,	1
12,15	,	86304	,	-26164	,	-24384	,	-3.72501	,	0
12,15	,	86336	,	-26171	,	-24374	,	-4.6031237	,	0
12,15	,	86352	,	-26163	,	-24370	,	-5.6687207	,	0
12,15	,	86368	,	-26166	,	-24381	,	-6.8348837	,	0
12,15	,	86400	,	-26176	,	-24373	,	-7.8748736	,	0
12,15	,	86416	,	-26178	,	-24377	,	-8.731925	,	0
12,15	,	86432	,	-26174	,	-24381	,	-9.4368515	,	0
12,15	,	86464	,	-26186	,	-24368	,	-9.9529085	,	0
12,15	,	86480	,	-26186	,	-24388	,	-10.286613	,	0
12,15	,	86496	,	-26205	,	-24393	,	-10.585396	,	0
12,15	,	86528	,	-26203	,	-24398	,	-11.075338	,	0
12,15	,	86544	,	-26204	,	-24399	,	-11.851849	,	0
12,15	,	86576	,	-26214	,	-24393	,	-12.78386	,	0
12,15	,	86592	,	-26213	,	-24393	,	-13.698357	,	0
12,15	,	86608	,	-26218	,	-24400	,	-14.468319	,	0
12,16	,	86640	,	-26216	,	-24399	,	-14.959554	,	0
12,16	,	86656	,	-26219	,	-24409	,	-15.045278	,	0
12,16	,	86672	,	-26236	,	-24417	,	-14.736433	,	0
12,16	,	86704	,	-26234	,	-24389	,	-14.263483	,	0
12,16	,	86720	,	-26234	,	-24401	,	-13.838995	,	0
12,16	,	86752	,	-26244	,	-24401	,	-13.484812	,	0
12,16	,	86768	,	-26259	,	-24413	,	-13.259654	,	0
12,16	,	86784	,	-26262	,	-24410	,	-13.376225	,	0
12,16	,	86816	,	-26265	,	-24411	,	-13.958824	,	0
12,16	,	86832	,	-26280	,	-24418	,	-14.936342	,	0
12,16	,	86848	,	-26267	,	-24415	,	-16.12817	,	0
12,16	,	86880	,	-26255	,	-24400	,	-17.11742	,	0
12,16	,	86896	,	-26236	,	-24403	,	-17.183178	,	0
12,16	,	86912	,	-26244	,	-24410	,	-15.698753	,	0
12,16	,	86944	,	-26250	,	-24396	,	-12.668119	,	1
12,16	,	86960	,	-26226	,	-24411	,	-8.633326	,	4
12,16	,	86992	,	-26228	,	-24408	,	-4.0784874	,	8
12,16	,	87008	,	-26229	,	-24406	,	0.6406894	,	12
12,16	,	87024	,	-26227	,	-24417	,	5.044584	,	16
12,16	,	87056	,	-26236	,	-24416	,	8.616255	,	20
12,16	,	87072	,	-26228	,	-24399	,	10.980162	,	23
12,16	,	87088	,	-26223	,	-24404	,	12.05975	,	25
12,16	,	87120	,	-26235	,	-24401	,	12.051678	,	26
12,16	,	87136	,	-26228	,	-24400	,	11.173346	,	25
12,16	,	87168	,	-26233	,	-24423	,	9.626158	,	22
12,16	,	87184	,	-26232	,	-24385	,	7.669052	,	18
12,16	,	87200	,	-26228	,	-24405	,	5.581429	,	14
12,16	,	87232	,	-26231	,	-24404	,	3.6300802	,	10
12,16	,	87248	,	-26240	,	-24406	,	1.9559383	,	6
12,16	,	87264	,	-26233	,	-24398	,	0.52466726	,	3
12,16	,	87296	,	-26237	,	-24397	,	-0.6979897	,	1
12,16	,	87312	,	-26239	,	-24402	,	-1.681406	,	0
12,16	,	87328	,	-26247	,	-24409	,	-2.4645808	,	0
12,16	,	87360	,	-26255	,	-24406	,	-3.2200997	,	0
12,16	,	87376	,	-26252	,	-24405	,	-4.1335588	,	0
12,16	,	87408	,	-26255	,	-24419	,	-5.219401	,	0
12,16	,	87424	,	-26247	,	-24388	,	-6.287963	,	0
12,16	,	87440	,	-26269	,	-24404	,	-7.1514344	,	0
12,16	,	87471	,	-26253	,	-24403	,	-7.796809	,	0
12,16	,	87488	,	-26257	,	-24411	,	-8.203974	,	0
12,16	,	87504	,	-26263	,	-24405	,	-8.263163	,	0
12,16	,	87536	,	-26260	,	-24413	,	-7.9825287	,	0
12,16	,	87552	,	-26261	,	-24409	,	-7.4521894	,	0
12,16	,	87583	,	-26266	,	-24414	,	-6.7416964	,	0
12,16	,	87599	,	-26275	,	-24406	,	-6.005083	,	0
12,16	,	87616	,	-26280	,	-24410	,	-5.509283	,	0
12,17	,	87647	,	-26280	,	-24432	,	-5.4691463	,	0
12,17	,	87663	,	-26282	,	-24390	,	-5.890601	,	0
12,17	,	87680	,	-26295	,	-24408	,	-6.65853	,	0
12,17	,	87712	,	-26287	,	-24414	,	-7.6697073	,	0
12,17	,	87728	,	-26307	,	-24415	,	-8.817934	,	0
12,17	,	87760	,	-26300	,	-24417	,	-10.023148	,	0
12,17	,	87776	,	-26305	,	-24417	,	-11.191387	,	0
12,17	,	87792	,	-26297	,	-24421	,	-12.102922	,	0
12,17	,	87823	,	-26307	,	-24421	,	-12.518572	,	0
12,17	,	87839	,	-26294	,	-24414	,	-12.323193	,	0
12,17	,	87855	,	-26277	,	-24409	,	-11.379293	,	0
12,17	,	87887	,	-26272	,	-24425	,	-9.407539	,	0
12,17	,	87904	,	-26261	,	-24393	,	-6.241063	,	1
12,17	,	87919	,	-26270	,	-24409	,	-2.0944376	,	4
12,17	,	87951	,	-26287	,	-24406	,	2.3395586	,	8
12,17	,	87967	,	-26260	,	-24396	,	6.183721	,	12
12,17	,	88000	,	-26257	,	-24398	,	9.053564	,	15
12,17	,	88016	,	-26265	,	-24405	,	11.06805	,	17
12,17	,	88031	,	-26264	,	-24396	,	12.275676	,	19
12,17	,	88063	,	-26260	,	-24405	,	12.612757	,	20
12,17	,	88079	,	-26265	,	-24397	,	12.145235	,	20
12,17	,	88095	,	-26245	,	-24401	,	11.115046	,	19
12,17	,	88127	,	-26248	,	-24412	,	9.9331255	,	16
12,17	,	88143	,	-26252	,	-24383	,	8.944773	,	12
12,17	,	88175	,	-26249	,	-24385	,	8.186367	,	8
12,17	,	88191	,	-26257	,	-24392	,	7.504427	,	5
12,17	,	88207	,	-26255	,	-24399	,	6.7247114	,	3
12,17	,	88239	,	-26253	,	-24397	,	5.755772	,	1
12,17	,	88255	,	-26260	,	-24400	,	4.6204023	,	0
12,17	,	88271	,	-26257	,	-24394	,	3.359812	,	0
12,17	,	88303	,	-26251	,	-24394	,	2.0687664	,	0
12,17	,	88319	,	-26257	,	-24402	,	0.9362917	,	0
12,17	,	88335	,	-26258	,	-24397	,	0.07506871	,	0
12,17	,	88367	,	-26256	,	-24397	,	-0.5399873	,	0
12,17	,	88383	,	-26265	,	-24379	,	-0.9850107	,	0
12,17	,	88415	,	-26266	,	-24391	,	-1.390384	,	0
12,17	,	88431	,	-26270	,	-24384	,	-1.9090061	,	0
12,17	,	88447	,	-26279	,	-24399	,	-2.6538646	,	0
12,17	,	88479	,	-26267	,	-24386	,	-3.6415992	,	0
12,17	,	88495	,	-26274	,	-24388	,	-4.6989017	,	0
12,17	,	88511	,	-26278	,	-24404	,	-5.6015983	,	0
12,17	,	88543	,	-26273	,	-24399	,	-6.2517657	,	0
12,17	,	88559	,	-26282	,	-24402	,	-6.615347	,	0
12,17	,	88591	,	-26273	,	-24393	,	-6.6853185	,	0
12,17	,	88607	,	-26282	,	-24403	,	-6.4848413	,	0
12,18	,	88623	,	-26286	,	-24391	,	-6.105315	,	0
12,18	,	88655	,	-26283	,	-24389	,	-5.7119274	,	0
12,18	,	88671	,	-26292	,	-24405	,	-5.423884	,	0
12,18	,	88687	,	-26295	,	-24396	,	-5.3223705	,	0
12,18	,	88719	,	-26295	,	-24404	,	-5.472552	,	0
12,18	,	88735	,	-26281	,	-24403	,	-5.7630816	,	0
12,18	,	88751	,	-26276	,	-24392	,	-5.828885	,	0
12,18	,	88783	,	-26264	,	-24389	,	-5.226794	,	0
12,18	,	88799	,	-26258	,	-24377	,	-3.6632047	,	0
12,18	,	88831	,	-26244	,	-24376	,	-1.0661027	,	1
12,18	,	88847	,	-26229	,	-24377	,	2.4997072	,	3
12,18	,	88863	,	-26236	,	-24371	,	6.8267155	,	6
12,18	,	88895	,	-26220	,	-24368	,	11.46435	,	10
12,18	,	88911	,	-26211	,	-24360	,	15.917202	,	14
12,18	,	88927	,	-26218	,	-24364	,	19.821064	,	18
12,18	,	88959	,	-26223	,	-24365	,	22.751053	,	21
12,18	,	88975	,	-26227	,	-24354	,	24.20515	,	23
12,18	,	89007	,	-26208	,	-24358	,	23.977962	,	24
12,18	,	89023	,	-26213	,	-24354	,	22.389103	,	23
12,18	,	89039	,	-26206	,	-24355	,	20.0084	,	21
12,18	,	89071	,	-26210	,	-24366	,	17.302858	,	18
12,18	,	89087	,	-26188	,	-24351	,	14.657623	,	14
12,18	,	89103	,	-26193	,	-24344	,	12.4902115	,	10
12,18	,	89135	,	-26187	,	-24343	,	11.078002	,	6
12,18	,	89151	,	-26200	,	-24335	,	10.33517	,	3
12,18	,	89167	,	-26185	,	-24332	,	9.938528	,	1
12,18	,	89199	,	-26195	,	-24335	,	9.622316	,	0
12,18	,	89215	,	-26196	,	-24349	,	9.206602	,	0
12,18	,	89247	,	-26190	,	-24337	,	8.536652	,	0
12,18	,	89263	,	-26193	,	-24334	,	7.5868745	,	0
12,18	,	89279	,	-26184	,	-24335	,	6.4845037	,	0
12,18	,	89311	,	-26193	,	-24336	,	5.401209	,	0
12,18	,	89327	,	-26206	,	-24342	,	4.3497105	,	0
12,18	,	89343	,	-26198	,	-24335	,	3.1420932	,	0
12,18	,	89375	,	-26194	,	-24348	,	1.7307785	,	0
12,18	,	89391	,	-26197	,	-24337	,	0.34062123	,	0
12,18	,	89423	,	-26198	,	-24339	,	-0.8021649	,	0
12,18	,	89439	,	-26205	,	-24341	,	-1.6500947	,	0
12,18	,	89455	,	-26197	,	-24347	,	-2.2683425	,	0
12,18	,	89487	,	-26189	,	-24334	,	-2.6288245	,	0
12,18	,	89503	,	-26212	,	-24350	,	-2.6616404	,	0
12,18	,	89519	,	-26205	,	-24339	,	-2.543655	,	0
12,18	,	89551	,	-26209	,	-24350	,	-2.5560513	,	0
12,18	,	89567	,	-26220	,	-24330	,	-2.8362408	,	0
12,18	,	89599	,	-26227	,	-24341	,	-3.5037699	,	0
12,18	,	89615	,	-26221	,	-24348	,	-4.6335583	,	0
12,19	,	89631	,	-26233	,	-24336	,	-6.0921593	,	0
12,19	,	89662	,	-26220	,	-24343	,	-7.6066008	,	0
12,19	,	89678	,	-26217	,	-24343	,	-8.814139	,	0
12,19	,	89695	,	-26203	,	-24340	,	-9.268221	,	0
12,19	,	89727	,	-26188	,	-24327	,	-8.53414	,	0
12,19	,	89743	,	-26176	,	-24326	,	-6.2926245	,	0
12,19	,	89759	,	-26156	,	-24321	,	-2.4355793	,	2
12,19	,	89791	,	-26154	,	-24320	,	2.864431	,	5
12,19	,	89807	,	-26138	,	-24295	,	9.127471	,	10
12,19	,	89838	,	-26133	,	-24302	,	15.684054	,	16
12,19	,	89854	,	-26131	,	-24290	,	21.832212	,	22
12,19	,	89870	,	-26124	,	-24293	,	26.911783	,	28
12,19	,	89903	,	-26120	,	-24299	,	30.455545	,	33
12,19	,	89919	,	-26113	,	-24296	,	32.310295	,	36
12,19	,	89934	,	-26127	,	-24298	,	32.513565	,	37
12,19	,	89967	,	-26114	,	-24293	,	31.144299	,	35
12,19	,	89983	,	-26105	,	-24295	,	28.489265	,	32
12,19	,	90014	,	-26089	,	-24297	,	25.21525	,	27
12,19	,	90030	,	-26089	,	-24295	,	22.113665	,	21
12,19	,	90046	,	-26085	,	-24270	,	19.684914	,	15
12,19	,	90079	,	-26071	,	-24284	,	18.068285	,	9
12,19	,	90095	,	-26079	,	-24287	,	17.209894	,	4
12,19	,	90111	,	-26080	,	-24285	,	16.837292	,	1
12,19	,	90143	,	-26066	,	-24284	,	16.55951	,	0
12,19	,	90158	,	-26074	,	-24291	,	16.157326	,	0
12,19	,	90174	,	-26082	,	-24283	,	15.479581	,	0
12,19	,	90206	,	-26078	,	-24290	,	14.293095	,	0
12,19	,	90223	,	-26075	,	-24283	,	12.515431	,	0
12,19	,	90255	,	-26085	,	-24288	,	10.295769	,	0
12,19	,	90271	,	-26088	,	-24303	,	7.782261	,	0
12,19	,	90286	,	-26094	,	-24270	,	5.0354533	,	0
12,19	,	90318	,	-26089	,	-24302	,	2.1633182	,	0
12,19	,	90334	,	-26091	,	-24297	,	-0.5899551	,	0
12,19	,	90350	,	-26092	,	-24306	,	-2.936307	,	0
12,19	,	90383	,	-26105	,	-24292	,	-4.744205	,	0
12,19	,	90398	,	-26104	,	-24291	,	-6.118482	,	0
12,19	,	90430	,	-26099	,	-24307	,	-7.1910467	,	0
12,19	,	90446	,	-26106	,	-24305	,	-7.9377832	,	0
12,19	,	90462	,	-26114	,	-24299	,	-8.349137	,	0
12,19	,	90494	,	-26104	,	-24300	,	-8.521937	,	0
12,19	,	90511	,	-26111	,	-24330	,	-8.48115	,	0
12,19	,	90527	,	-26125	,	-24292	,	-8.260004	,	0
12,19	,	90559	,	-26112	,	-24299	,	-8.023568	,	0
12,19	,	90574	,	-26119	,	-24309	,	-7.8374805	,	0
12,19	,	90590	,	-26111	,	-24293	,	-7.58278	,	0
12,20	,	90623	,	-26096	,	-24299	,	-7.029297	,	0
12,20	,	90639	,	-26082	,	-24295	,	-5.796117	,	0
12,20	,	90670	,	-26071	,	-24280	,	-3.4924002	,	1
12,20	,	90686	,	-26065	,	-24295	,	0.008830786	,	3
12,20	,	90702	,	-26044	,	-24285	,	4.5333004	,	6
12,20	,	90734	,	-26039	,	-24284	,	9.771676	,	10
12,20	,	90750	,	-26036	,	-24313	,	15.289193	,	15
12,20	,	90766	,	-26049	,	-24273	,	20.388481	,	20
12,20	,	90799	,	-26037	,	-24284	,	24.252853	,	25
12,20	,	90815	,	-26046	,	-24285	,	26.331743	,	28
12,20	,	90846	,	-26051	,	-24284	,	26.43767	,	30
12,20	,	90862	,	-26045	,	-24281	,	24.653736	,	29
12,20	,	90878	,	-26023	,	-24284	,	21.4894	,	27
12,20	,	90910	,	-26023	,	-24273	,	17.885536	,	24
12,20	,	90926	,	-26022	,	-24285	,	14.703903	,	20
12,20	,	90942	,	-26025	,	-24278	,	12.2932825	,	15
12,20	,	90974	,	-26010	,	-24284	,	10.641176	,	10
12,20	,	90990	,	-26020	,	-24297	,	9.667128	,	5
12,20	,	91006	,	-26023	,	-24262	,	9.162184	,	2
12,20	,	91038	,	-26022	,	-24284	,	8.753849	,	0
12,20	,	91054	,	-26013	,	-24282	,	8.189292	,	0
12,20	,	91086	,	-26018	,	-24292	,	7.475615	,	0
12,20	,	91102	,	-26027	,	-24290	,	6.6460357	,	0
12,20	,	91118	,	-26030	,	-24295	,	5.57812	,	0
12,20	,	91150	,	-26017	,	-24290	,	4.202962	,	0
12,20	,	91166	,	-26033	,	-24296	,	2.6713128	,	0
12,20	,	91182	,	-26040	,	-24298	,	1.0780723	,	0
12,20	,	91214	,	-26039	,	-24289	,	-0.6649761	,	0
12,20	,	91230	,	-26046	,	-24309	,	-2.5829132	,	0
12,20	,	91262	,	-26040	,	-24303	,	-4.5351872	,	0
12,20	,	91278	,	-26051	,	-24302	,	-6.313804	,	0
12,20	,	91294	,	-26062	,	-24305	,	-7.837866	,	0
12,20	,	91326	,	-26056	,	-24309	,	-9.194943	,	0
12,20	,	91342	,	-26061	,	-24301	,	-10.390668	,	0
12,20	,	91358	,	-26070	,	-24323	,	-11.330717	,	0
12,20	,	91390	,	-26070	,	-24323	,	-12.014067	,	0
12,20	,	91406	,	-26078	,	-24316	,	-12.508429	,	0
12,20	,	91422	,	-26072	,	-24318	,	-12.836782	,	0
12,20	,	91454	,	-26052	,	-24315	,	-12.816727	,	0
12,20	,	91470	,	-26052	,	-24319	,	-12.016788	,	0
12,20	,	91502	,	-26041	,	-24304	,	-10.090639	,	0
12,20	,	91518	,	-26034	,	-24296	,	-7.013235	,	1
12,20	,	91534	,	-26020	,	-24293	,	-2.954143	,	4
12,20	,	91566	,	-26019	,	-24301	,	1.8142824	,	8
12,20	,	91582	,	-26012	,	-24302	,	6.869876	,	12
12,20	,	91598	,	-26006	,	-24296	,	11.709377	,	17
12,21	,	91630	,	-26006	,	-24288	,	15.894447	,	21
12,21	,	91648	,	-26013	,	-24297	,	19.030607	,	25
12,21	,	91678	,	-26021	,	-24306	,	20.70716	,	28
12,21	,	91694	,	-26013	,	-24306	,	20.668995	,	29
12,21	,	91710	,	-26021	,	-24304	,	19.025383	,	28
12,21	,	91742	,	-26010	,	-24303	,	16.198452	,	25
12,21	,	91758	,	-26022	,	-24298	,	12.730244	,	21
12,21	,	91774	,	-26011	,	-24298	,	9.122046	,	17
12,21	,	91806	,	-26016	,	-24297	,	5.785452	,	12
12,21	,	91822	,	-26015	,	-24310	,	3.0144553	,	8
12,21	,	91854	,	-26017	,	-24309	,	0.91711235	,	4
12,21	,	91870	,	-26017	,	-24308	,	-0.5407679	,	1
12,21	,	91886	,	-26019	,	-24302	,	-1.4541285	,	0
12,21	,	91918	,	-26027	,	-24307	,	-1.9835459	,	0
12,21	,	91934	,	-26037	,	-24319	,	-2.4012866	,	0
12,21	,	91950	,	-26040	,	-24304	,	-3.034503	,	0
12,21	,	91982	,	-26046	,	-24310	,	-4.0882096	,	0
12,21	,	91998	,	-26054	,	-24317	,	-5.590602	,	0
12,21	,	92014	,	-26053	,	-24317	,	-7.445239	,	0
12,21	,	92046	,	-26063	,	-24316	,	-9.454207	,	0
12,21	,	92062	,	-26065	,	-24321	,	-11.406372	,	0
12,21	,	92094	,	-26071	,	-24323	,	-13.153012	,	0
12,21	,	92110	,	-26065	,	-24327	,	-14.542546	,	0
12,21	,	92126	,	-26074	,	-24333	,	-15.391739	,	0
12,21	,	92158	,	-26078	,	-24332	,	-15.632278	,	0
12,21	,	92174	,	-26080	,	-24345	,	-15.38471	,	0
12,21	,	92190	,	-26081	,	-24332	,	-14.807754	,	0
12,21	,	92222	,	-26088	,	-24338	,	-14.014315	,	0
12,21	,	92238	,	-26098	,	-24343	,	-13.174229	,	0
12,21	,	92270	,	-26104	,	-24349	,	-12.550261	,	0
12,21	,	92286	,	-26102	,	-24340	,	-12.321629	,	0
12,21	,	92302	,	-26090	,	-24337	,	-12.356909	,	0
12,21	,	92334	,	-26083	,	-24340	,	-12.202257	,	0
12,21	,	92350	,	-26066	,	-24328	,	-11.293641	,	0
12,21	,	92366	,	-26060	,	-24338	,	-9.188917	,	0
12,21	,	92397	,	-26059	,	-24336	,	-5.7906475	,	2
12,21	,	92414	,	-26051	,	-24355	,	-1.4339337	,	5
12,21	,	92430	,	-26055	,	-24330	,	3.290329	,	9
12,21	,	92462	,	-26055	,	-24327	,	7.7163696	,	13
12,21	,	92478	,	-26047	,	-24339	,	11.275257	,	17
12,21	,	92510	,	-26065	,	-24339	,	13.6156845	,	20
12,21	,	92526	,	-26058	,	-24330	,	14.518064	,	22
12,21	,	92541	,	-26053	,	-24342	,	13.985609	,	22
12,21	,	92573	,	-26066	,	-24330	,	12.330815	,	22
12,21	,	92589	,	-26053	,	-24336	,	9.951651	,	20
12,21	,	92606	,	-26052	,	-24340	,	7.2889247	,	17
12,22	,	92638	,	-26053	,	-24344	,	4.81995	,	13
12,22	,	92654	,	-26042	,	-24353	,	2.8947606	,	9
12,22	,	92685	,	-26055	,	-24320	,	1.6852441	,	5
12,22	,	92701	,	-26060	,	-24350	,	1.0837924	,	2
12,22	,	92717	,	-26065	,	-24348	,	0.7056953	,	0
12,22	,	92750	,	-26081	,	-24351	,	0.10561168	,	0
12,22	,	92765	,	-26077	,	-24360	,	-1.0574062	,	0
12,22	,	92781	,	-26074	,	-24349	,	-2.806789	,	0
12,22	,	92814	,	-26081	,	-24347	,	-4.810369	,	0
12,22	,	92830	,	-26095	,	-24359	,	-6.76205	,	0
12,22	,	92846	,	-26083	,	-24361	,	-8.562475	,	0
12,22	,	92877	,	-26083	,	-24365	,	-10.0430565	,	0
12,22	,	92893	,	-26105	,	-24375	,	-11.008118	,	0
12,22	,	92925	,	-26102	,	-24332	,	-11.573849	,	0
12,22	,	92941	,	-26107	,	-24360	,	-12.002422	,	0
12,22	,	92957	,	-26130	,	-24370	,	-12.488342	,	0
12,22	,	92989	,	-26126	,	-24369	,	-13.264697	,	0
12,22	,	93005	,	-26132	,	-24371	,	-14.435104	,	0
12,22	,	93021	,	-26129	,	-24368	,	-15.780407	,	0
12,22	,	93054	,	-26133	,	-24371	,	-16.924232	,	0
12,22	,	93070	,	-26138	,	-24368	,	-17.573568	,	0
12,22	,	93101	,	-26142	,	-24379	,	-17.64583	,	0
12,22	,	93117	,	-26146	,	-24383	,	-17.23698	,	0
12,22	,	93133	,	-26151	,	-24404	,	-16.518095	,	0
12,22	,	93165	,	-26161	,	-24376	,	-15.695572	,	0
12,22	,	93181	,	-26173	,	-24392	,	-15.030601	,	0
12,22	,	93198	,	-26169	,	-24395	,	-14.751675	,	0
12,22	,	93230	,	-26159	,	-24393	,	-14.792131	,	0
12,22	,	93245	,	-26153	,	-24385	,	-14.704161	,	0
12,22	,	93261	,	-26143	,	-24394	,	-13.92734	,	0
12,22	,	93293	,	-26139	,	-24379	,	-12.090274	,	0
12,22	,	93309	,	-26132	,	-24379	,	-9.136605	,	1
12,22	,	93341	,	-26144	,	-24388	,	-5.363192	,	3
12,22	,	93357	,	-26130	,	-24388	,	-1.3284593	,	6
12,22	,	93373	,	-26126	,	-24390	,	2.477172	,	10
12,22	,	93405	,	-26130	,	-24365	,	5.791407	,	13
12,22	,	93421	,	-26133	,	-24380	,	8.378023	,	16
12,22	,	93437	,	-26138	,	-24386	,	9.954122	,	18
12,22	,	93469	,	-26135	,	-24386	,	10.361526	,	19
12,22	,	93485	,	-26136	,	-24391	,	9.692477	,	19
12,22	,	93517	,	-26145	,	-24381	,	8.194873	,	18
12,22	,	93533	,	-26138	,	-24382	,	6.1247196	,	16
12,22	,	93549	,	-26133	,	-24375	,	3.8172436	,	13
12,22	,	93581	,	-26144	,	-24387	,	1.6640809	,	9
12,22	,	93597	,	-26143	,	-24385	,	-0.13985229	,	6
12,22	,	93613	,	-26143	,	-24403	,	-1.592758	,	3
12,23	,	93645	,	-26145	,	-24380	,	-2.6975393	,	1
12,23	,	93661	,	-26150	,	-24383	,	-3.4763057	,	0
12,23	,	93693	,	-26144	,	-24381	,	-3.9968662	,	0
12,23	,	93709	,	-26158	,	-24390	,	-4.3325224	,	0
12,23	,	93725	,	-26150	,	-24396	,	-4.580767	,	0
12,23	,	93757	,	-26153	,	-24386	,	-4.7886734	,	0
12,23	,	93773	,	-26168	,	-24390	,	-4.973755	,	0
12,23	,	93789	,	-26165	,	-24387	,	-5.2740927	,	0
12,23	,	93821	,	-26173	,	-24400	,	-5.8320684	,	0
12,23	,	93837	,	-26176	,	-24388	,	-6.6614304	,	0
12,23	,	93853	,	-26189	,	-24407	,	-7.750196	,	0
12,23	,	93885	,	-26177	,	-24391	,	-9.051836	,	0
12,23	,	93901	,	-26177	,	-24401	,	-10.304139	,	0
12,23	,	93933	,	-26188	,	-24403	,	-11.150814	,	0
12,23	,	93949	,	-26186	,	-24403	,	-11.474632	,	0
12,23	,	93965	,	-26194	,	-24404	,	-11.383808	,	0
12,23	,	93997	,	-26190	,	-24389	,	-11.021589	,	0
12,23	,	94013	,	-26197	,	-24402	,	-10.498628	,	0
12,23	,	94029	,	-26196	,	-24398	,	-9.896578	,	0
12,23	,	94061	,	-26212	,	-24409	,	-9.338712	,	0
12,23	,	94077	,	-26213	,	-24420	,	-9.038994	,	0
12,23	,	94109	,	-26207	,	-24409	,	-9.119192	,	0
12,23	,	94125	,	-26210	,	-24405	,	-9.412822	,	0
12,23	,	94141	,	-26176	,	-24412	,	-9.4716015	,	0
12,23	,	94173	,	-26174	,	-24405	,	-8.634586	,	0
12,23	,	94189	,	-26173	,	-24390	,	-6.4234858	,	0
12,23	,	94205	,	-26175	,	-24398	,	-2.9974475	,	2
12,23	,	94237	,	-26171	,	-24401	,	1.005177	,	5
12,23	,	94253	,	-26170	,	-24399	,	4.9052467	,	9
12,23	,	94285	,	-26166	,	-24386	,	8.216699	,	12
12,23	,	94301	,	-26160	,	-24385	,	10.711341	,	15
12,23	,	94317	,	-26160	,	-24386	,	12.377404	,	17
12,23	,	94349	,	-26167	,	-24376	,	13.247478	,	18
12,23	,	94365	,	-26174	,	-24389	,	13.242096	,	18
12,23	,	94381	,	-26161	,	-24391	,	12.3012085	,	18
12,23	,	94413	,	-26172	,	-24384	,	10.600325	,	16
12,23	,	94429	,	-26164	,	-24386	,	8.461421	,	13
12,23	,	94445	,	-26165	,	-24383	,	6.205389	,	9
12,23	,	94477	,	-26173	,	-24390	,	4.0839376	,	6
12,23	,	94493	,	-26171	,	-24382	,	2.1907065	,	3
12,23	,	94525	,	-26174	,	-24391	,	0.5334642	,	1
12,23	,	94541	,	-26173	,	-24386	,	-0.85910106	,	0
12,23	,	94557	,	-26174	,	-24392	,	-1.9491316	,	0
12,23	,	94589	,	-26173	,	-24371	,	-2.7033944	,	0
12,23	,	94605	,	-26174	,	-24389	,	-3.1047702	,	0
12,23	,	94621	,	-26183	,	-24391	,	-3.2224793	,	0
12,24	,	94653	,	-26186	,	-24382	,	-3.2689815	,	0
12,24	,	94669	,	-26196	,	-24397	,	-3.521936	,	0
12,24	,	94701	,	-26195	,	-24385	,	-4.174256	,	0
12,24	,	94717	,	-26201	,	-24389	,	-5.233928	,	0
12,24	,	94732	,	-26194	,	-24383	,	-6.514621	,	0
12,24	,	94765	,	-26203	,	-24395	,	-7.7309804	,	0
12,24	,	94781	,	-26209	,	-24399	,	-8.700646	,	0
12,24	,	94797	,	-26206	,	-24409	,	-9.416727	,	0
12,24	,	94829	,	-26206	,	-24378	,	-9.866078	,	0
12,24	,	94845	,	-26223	,	-24404	,	-10.036034	,	0
12,24	,	94860	,	-26215	,	-24406	,	-10.063953	,	0
12,24	,	94893	,	-26237	,	-24398	,	-10.153698	,	0
12,24	,	94909	,	-26230	,	-24408	,	-10.476782	,	0
12,24	,	94941	,	-26229	,	-24417	,	-11.039499	,	0
12,24	,	94957	,	-26243	,	-24419	,	-11.647833	,	0
12,24	,	94972	,	-26244	,	-24424	,	-12.188488	,	0
12,24	,	95005	,	-26241	,	-24419	,	-12.65206	,	0
12,24	,	95021	,	-26242	,	-24415	,	-12.911618	,	0
12,24	,	95037	,	-26240	,	-24432	,	-12.772324	,	0
12,24	,	95069	,	-26218	,	-24400	,	-12.018896	,	0
12,24	,	95085	,	-26221	,	-24413	,	-10.370718	,	0
12,24	,	95116	,	-26199	,	-24409	,	-7.633541	,	1
12,24	,	95132	,	-26198	,	-24408	,	-3.8207483	,	3
12,24	,	95148	,	-26199	,	-24408	,	0.7888794	,	6
12,24	,	95181	,	-26196	,	-24400	,	5.6131325	,	10
12,24	,	95197	,	-26203	,	-24411	,	9.951765	,	14
12,24	,	95213	,	-26200	,	-24401	,	13.203892	,	18
12,24	,	95244	,	-26195	,	-24400	,	15.046024	,	21
12,24	,	95261	,	-26190	,	-24402	,	15.553352	,	22
12,24	,	95277	,	-26206	,	-24425	,	14.991344	,	22
12,24	,	95308	,	-26193	,	-24381	,	13.560768	,	21
12,24	,	95324	,	-26193	,	-24404	,	11.518821	,	19
12,24	,	95356	,	-26188	,	-24395	,	9.278112	,	16
12,24	,	95372	,	-26183	,	-24409	,	7.2487316	,	12
12,24	,	95388	,	-26179	,	-24402	,	5.7379565	,	8
12,24	,	95420	,	-26203	,	-24401	,	4.790943	,	4
12,24	,	95436	,	-26191	,	-24403	,	4.0873346	,	1
12,24	,	95452	,	-26188	,	-24398	,	3.3218842	,	0
12,24	,	95485	,	-26196	,	-24407	,	2.4860752	,	0
12,24	,	95500	,	-26206	,	-24407	,	1.5824591	,	0
12,24	,	95532	,	-26194	,	-24422	,	0.5163871	,	0
12,24	,	95548	,	-26212	,	-24393	,	-0.7113795	,	0
12,24	,	95564	,	-26205	,	-24412	,	-2.0483918	,	0
12,24	,	95596	,	-26212	,	-24409	,	-3.442195	,	0
12,24	,	95612	,	-26215	,	-24417	,	-4.8056264	,	0
12,25	,	95628	,	-26210	,	-24416	,	-6.041331	,	0
12,25	,	95660	,	-26220	,	-24418	,	-7.037375	,	0
12,25	,	95677	,	-26227	,	-24410	,	-7.780179	,	0
12,25	,	95693	,	-26230	,	-24416	,	-8.41869	,	0
12,25	,	95724	,	-26224	,	-24419	,	-9.040988	,	0
12,25	,	95740	,	-26224	,	-24411	,	-9.510397	,	0
12,25	,	95772	,	-26226	,	-24430	,	-9.610525	,	0
12,25	,	95788	,	-26228	,	-24409	,	-9.259575	,	0
12,25	,	95804	,	-26229	,	-24417	,	-8.537662	,	0
12,25	,	95836	,	-26230	,	-24414	,	-7.5908837	,	0
12,25	,	95852	,	-26232	,	-24415	,	-6.559457	,	0
12,25	,	95868	,	-26238	,	-24412	,	-5.587492	,	1
12,25	,	95900	,	-26249	,	-24423	,	-4.8880973	,	1
12,25	,	95916	,	-26240	,	-24422	,	-4.66203	,	1
12,25	,	95948	,	-26246	,	-24423	,	-4.8888035	,	1
12,25	,	95964	,	-26245	,	-24428	,	-5.3591022	,	1
12,25	,	95980	,	-26244	,	-24427	,	-5.850649	,	1
12,25	,	96012	,	-26228	,	-24417	,	-6.0982437	,	1
12,25	,	96028	,	-26210	,	-24402	,	-5.6684456	,	1
12,25	,	96044	,	-26190	,	-24410	,	-4.005272	,	1
12,25	,	96076	,	-26167	,	-24399	,	-0.64671254	,	1
12,25	,	96092	,	-26162	,	-24393	,	4.5242586	,	4
12,25	,	96108	,	-26163	,	-24383	,	11.044051	,	9
12,25	,	96140	,	-26145	,	-24376	,	17.976654	,	15
12,25	,	96156	,	-26144	,	-24371	,	24.407007	,	21
12,25	,	96188	,	-26141	,	-24381	,	29.661537	,	27
12,25	,	96204	,	-26135	,	-24380	,	33.256226	,	32
12,25	,	96220	,	-26138	,	-24373	,	34.945103	,	35
12,25	,	96252	,	-26132	,	-24385	,	34.73484	,	36
12,25	,	96268	,	-26133	,	-24358	,	32.854675	,	35
12,25	,	96284	,	-26114	,	-24369	,	29.78452	,	32
12,25	,	96316	,	-26108	,	-24371	,	26.242321	,	27
12,25	,	96332	,	-26105	,	-24354	,	22.94096	,	21
12,25	,	96364	,	-26115	,	-24367	,	20.210533	,	15
12,25	,	96380	,	-26105	,	-24367	,	17.954098	,	9
12,25	,	96396	,	-26101	,	-24355	,	16.007286	,	4
12,25	,	96428	,	-26094	,	-24358	,	14.37761	,	1
12,25	,	96444	,	-26102	,	-24365	,	13.101867	,	0
12,25	,	96460	,	-26102	,	-24358	,	12.048487	,	0
12,25	,	96493	,	-26106	,	-24369	,	10.965114	,	0
12,25	,	96508	,	-26113	,	-24352	,	9.622244	,	0
12,25	,	96540	,	-26119	,	-24357	,	7.843192	,	0
12,25	,	96556	,	-26114	,	-24362	,	5.572421	,	0
12,25	,	96572	,	-26103	,	-24366	,	3.0543175	,	0
12,25	,	96604	,	-26108	,	-24370	,	0.7767863	,	0
12,25	,	96620	,	-26108	,	-24368	,	-0.8928914	,	0
12,26	,	96636	,	-26113	,	-24373	,	-1.9096055	,	0
12,26	,	96668	,	-26117	,	-24357	,	-2.4507594	,	0
12,26	,	96684	,	-26127	,	-24371	,	-2.8078635	,	0
12,26	,	96700	,	-26113	,	-24369	,	-3.2271273	,	0
12,26	,	96732	,	-26126	,	-24364	,	-3.7305183	,	0
12,26	,	96748	,	-26119	,	-24366	,	-4.212935	,	0
12,26	,	96780	,	-26140	,	-24368	,	-4.667906	,	0
12,26	,	96796	,	-26129	,	-24373	,	-5.213357	,	0
12,26	,	96812	,	-26140	,	-24385	,	-5.9103813	,	0
12,26	,	96844	,	-26140	,	-24390	,	-6.7009883	,	0
12,26	,	96860	,	-26153	,	-24383	,	-7.5585146	,	0
12,26	,	96876	,	-26141	,	-24382	,	-8.473229	,	0
12,26	,	96908	,	-26152	,	-24381	,	-9.314712	,	0
12,26	,	96924	,	-26158	,	-24378	,	-9.960604	,	0
12,26	,	96956	,	-26126	,	-24384	,	-10.295809	,	0
12,26	,	96972	,	-26118	,	-24376	,	-9.880972	,	0
12,26	,	96988	,	-26110	,	-24370	,	-8.136965	,	0
12,26	,	97020	,	-26095	,	-24368	,	-4.8538723	,	1
12,26	,	97036	,	-26095	,	-24364	,	-0.25469208	,	4
12,26	,	97052	,	-26085	,	-24366	,	5.1348176	,	8
12,26	,	97084	,	-26092	,	-24365	,	10.597025	,	13
12,26	,	97100	,	-26082	,	-24354	,	15.393999	,	18
12,26	,	97116	,	-26084	,	-24360	,	18.984156	,	22
12,26	,	97148	,	-26076	,	-24354	,	21.146915	,	25
12,26	,	97164	,	-26093	,	-24365	,	21.858215	,	27
12,26	,	97196	,	-26073	,	-24371	,	21.179707	,	27
12,26	,	97211	,	-26078	,	-24360	,	19.392488	,	26
12,26	,	97228	,	-26076	,	-24363	,	16.957203	,	23
12,26	,	97260	,	-26062	,	-24356	,	14.32859	,	19
12,26	,	97276	,	-26055	,	-24358	,	11.997034	,	14
12,26	,	97292	,	-26075	,	-24362	,	10.297948	,	9
12,26	,	97323	,	-26069	,	-24360	,	9.087	,	5
12,26	,	97339	,	-26079	,	-24371	,	7.958854	,	2
12,26	,	97371	,	-26079	,	-24367	,	6.61264	,	0
12,26	,	97388	,	-26082	,	-24360	,	4.9266114	,	0
12,26	,	97404	,	-26078	,	-24373	,	2.9689586	,	0
12,26	,	97435	,	-26080	,	-24365	,	0.9712527	,	0
12,26	,	97451	,	-26080	,	-24358	,	-0.80343103	,	0
12,26	,	97467	,	-26087	,	-24365	,	-2.209445	,	0
12,26	,	97499	,	-26104	,	-24376	,	-3.349388	,	0
12,26	,	97516	,	-26092	,	-24378	,	-4.4850354	,	0
12,26	,	97532	,	-26091	,	-24369	,	-5.658596	,	0
12,26	,	97564	,	-26098	,	-24380	,	-6.6389084	,	0
12,26	,	97580	,	-26100	,	-24372	,	-7.281291	,	0
12,26	,	97612	,	-26109	,	-24378	,	-7.6594753	,	0
12,27	,	97628	,	-26112	,	-24384	,	-7.9558268	,	0
12,27	,	97644	,	-26123	,	-24381	,	-8.373831	,	0
12,27	,	97675	,	-26114	,	-24393	,	-9.018374	,	0
12,27	,	97691	,	-26127	,	-24376	,	-9.806862	,	0
12,27	,	97707	,	-26125	,	-24388	,	-10.587513	,	0
12,27	,	97739	,	-26138	,	-24387	,	-11.294195	,	0
12,27	,	97755	,	-26134	,	-24391	,	-11.930113	,	0
12,27	,	97788	,	-26141	,	-24398	,	-12.470955	,	0
12,27	,	97804	,	-26151	,	-24398	,	-12.892916	,	0
12,27	,	97821	,	-26146	,	-24394	,	-13.232435	,	0
12,27	,	97851	,	-26152	,	-24398	,	-13.475433	,	0
12,27	,	97867	,	-26132	,	-24400	,	-13.441774	,	0
12,27	,	97883	,	-26129	,	-24394	,	-12.773734	,	0
12,27	,	97916	,	-26115	,	-24405	,	-11.085791	,	0
12,27	,	97932	,	-26104	,	-24382	,	-8.167931	,	1
12,27	,	97947	,	-26100	,	-24377	,	-4.0590177	,	3
12,27	,	97979	,	-26080	,	-24384	,	0.97668266	,	7
12,27	,	97995	,	-26080	,	-24374	,	6.5569506	,	12
12,27	,	98027	,	-26084	,	-24379	,	12.14921	,	17
12,27	,	98044	,	-26080	,	-24383	,	17.03719	,	22
12,27	,	98059	,	-26075	,	-24377	,	20.621323	,	26
12,27	,	98092	,	-26081	,	-24376	,	22.633091	,	29
12,27	,	98107	,	-26084	,	-24380	,	23.005741	,	31
12,27	,	98123	,	-26075	,	-24378	,	21.83222	,	30
12,27	,	98155	,	-26083	,	-24385	,	19.445269	,	28
12,27	,	98171	,	-26081	,	-24355	,	16.281376	,	24
12,27	,	98203	,	-26067	,	-24378	,	12.796382	,	19
12,27	,	98219	,	-26083	,	-24384	,	9.474149	,	14
12,27	,	98235	,	-26073	,	-24380	,	6.6194854	,	9
12,27	,	98267	,	-26075	,	-24378	,	4.323456	,	5
12,27	,	98283	,	-26076	,	-24379	,	2.6145883	,	2
12,27	,	98299	,	-26074	,	-24382	,	1.4514723	,	0
12,27	,	98331	,	-26085	,	-24383	,	0.69336915	,	0
12,27	,	98347	,	-26080	,	-24365	,	0.13029563	,	0
12,27	,	98363	,	-26087	,	-24390	,	-0.41673082	,	0
12,27	,	98395	,	-26083	,	-24400	,	-1.0185324	,	0
12,27	,	98411	,	-26095	,	-24374	,	-1.6947361	,	0
12,27	,	98443	,	-26092	,	-24392	,	-2.4869304	,	0
12,27	,	98459	,	-26107	,	-24390	,	-3.4638863	,	0
12,27	,	98475	,	-26111	,	-24398	,	-4.721191	,	0
12,27	,	98507	,	-26125	,	-24402	,	-6.3722105	,	0
12,27	,	98523	,	-26112	,	-24394	,	-8.398048	,	0
12,27	,	98539	,	-26112	,	-24406	,	-10.454533	,	0
12,27	,	98571	,	-26121	,	-24399	,	-12.049517	,	0
12,27	,	98587	,	-26121	,	-24417	,	-12.945681	,	0
12,27	,	98619	,	-26130	,	-24405	,	-13.214461	,	0
12,28	,	98635	,	-26130	,	-24423	,	-13.054254	,	0
12,28	,	98651	,	-26141	,	-24389	,	-12.693958	,	0
12,28	,	98683	,	-26145	,	-24410	,	-12.366914	,	0
12,28	,	98699	,	-26150	,	-24414	,	-12.255431	,	0
12,28	,	98715	,	-26156	,	-24418	,	-12.42488	,	0
12,28	,	98747	,	-26157	,	-24412	,	-12.834309	,	0
12,28	,	98763	,	-26171	,	-24430	,	-13.410836	,	0
12,28	,	98779	,	-26168	,	-24414	,	-14.110914	,	0
12,28	,	98811	,	-26164	,	-24413	,	-14.80768	,	0
12,28	,	98827	,	-26170	,	-24424	,	-15.225643	,	0
12,28	,	98859	,	-26177	,	-24419	,	-15.184149	,	0
12,28	,	98875	,	-26178	,	-24444	,	-14.74457	,	0
12,28	,	98891	,	-26165	,	-24402	,	-13.985582	,	0
12,28	,	98923	,	-26158	,	-24419	,	-12.768232	,	0
12,28	,	98939	,	-26150	,	-24419	,	-10.831903	,	1
12,28	,	98955	,	-26151	,	-24427	,	-8.071491	,	2
12,28	,	98987	,	-26141	,	-24416	,	-4.647868	,	4
12,28	,	99003	,	-26136	,	-24419	,	-0.84768105	,	7
12,28	,	99035	,	-26157	,	-24423	,	2.9338694	,	10
12,28	,	99051	,	-26145	,	-24413	,	6.11467	,	13
12,28	,	99067	,	-26142	,	-24419	,	8.257002	,	16
12,28	,	99099	,	-26132	,	-24422	,	9.394503	,	18
12,28	,	99115	,	-26153	,	-24446	,	9.76147	,	19
12,28	,	99131	,	-26144	,	-24412	,	9.421333	,	18
12,28	,	99163	,	-26152	,	-24418	,	8.36304	,	17
12,28	,	99179	,	-26142	,	-24435	,	6.74584	,	15
12,28	,	99211	,	-26144	,	-24422	,	4.897281	,	12
12,28	,	99227	,	-26140	,	-24427	,	3.1683905	,	9
12,28	,	99243	,	-26152	,	-24422	,	1.7580879	,	6
12,28	,	99275	,	-26165	,	-24425	,	0.5598092	,	3
12,28	,	99291	,	-26157	,	-24425	,	-0.71632135	,	1
12,28	,	99307	,	-26169	,	-24425	,	-2.211031	,	0
12,28	,	99339	,	-26169	,	-24434	,	-3.8751352	,	0
12,28	,	99355	,	-26168	,	-24448	,	-5.5817404	,	0
12,28	,	99371	,	-26177	,	-24422	,	-7.1518116	,	0
12,28	,	99403	,	-26177	,	-24429	,	-8.466147	,	0
12,28	,	99419	,	-26175	,	-24430	,	-9.464765	,	0
12,28	,	99451	,	-26174	,	-24432	,	-10.033817	,	0
12,28	,	99467	,	-26174	,	-24429	,	-10.051676	,	0
12,28	,	99483	,	-26190	,	-24435	,	-9.569928	,	0
12,28	,	99515	,	-26184	,	-24435	,	-8.868368	,	0
12,28	,	99531	,	-26196	,	-24440	,	-8.249492	,	0
12,28	,	99547	,	-26196	,	-24443	,	-7.9020753	,	0
12,28	,	99579	,	-26192	,	-24450	,	-7.8686075	,	0
12,28	,	99595	,	-26206	,	-24458	,	-8.042985	,	0
12,29	,	99627	,	-26213	,	-24438	,	-8.388538	,	0
12,29	,	99643	,	-26224	,	-24452	,	-9.049021	,	0
12,29	,	99659	,	-26209	,	-24454	,	-10.076302	,	0
12,29	,	99691	,	-26217	,	-24457	,	-11.194439	,	0
12,29	,	99707	,	-26229	,	-24447	,	-12.072848	,	0
12,29	,	99723	,	-26240	,	-24458	,	-12.723236	,	0
12,29	,	99755	,	-26231	,	-24463	,	-13.329256	,	0
12,29	,	99770	,	-26228	,	-24467	,	-13.82378	,	0
12,29	,	99787	,	-26236	,	-24466	,	-13.933975	,	0
12,29	,	99820	,	-26239	,	-24462	,	-13.548941	,	0
12,29	,	99835	,	-26235	,	-24464	,	-12.763111	,	0
12,29	,	99866	,	-26225	,	-24453	,	-11.608296	,	0
12,29	,	99882	,	-26207	,	-24455	,	-9.894669	,	1
12,29	,	99899	,	-26208	,	-24451	,	-7.346447	,	2
12,29	,	99931	,	-26205	,	-24451	,	-3.9432082	,	4
12,29	,	99947	,	-26205	,	-24443	,	-0.048986435	,	7
12,29	,	99963	,	-26211	,	-24448	,	3.7618854	,	10
12,29	,	99995	,	-26201	,	-24448	,	6.9431534	,	13
12,29	,	100011	,	-26216	,	-24451	,	9.145072	,	16
12,29	,	100043	,	-26205	,	-24446	,	10.210962	,	18
12,29	,	100059	,	-26197	,	-24461	,	10.23696	,	19
12,29	,	100075	,	-26211	,	-24448	,	9.553486	,	18
12,29	,	100107	,	-26206	,	-24460	,	8.412493	,	17
12,29	,	100123	,	-26220	,	-24446	,	6.8763757	,	15
12,29	,	100139	,	-26211	,	-24454	,	4.9751277	,	12
12,29	,	100170	,	-26208	,	-24447	,	2.8849382	,	9
12,29	,	100186	,	-26209	,	-24443	,	0.9394913	,	6
12,29	,	100219	,	-26200	,	-24454	,	-0.55150366	,	3
12,29	,	100235	,	-26211	,	-24435	,	-1.4209441	,	1
12,29	,	100251	,	-26204	,	-24441	,	-1.6979413	,	0
12,29	,	100282	,	-26204	,	-24437	,	-1.5302607	,	0
12,29	,	100299	,	-26208	,	-24460	,	-1.0694036	,	0
12,29	,	100315	,	-26209	,	-24432	,	-0.50406116	,	0
12,29	,	100346	,	-26226	,	-24451	,	-0.10650855	,	0
12,29	,	100363	,	-26223	,	-24439	,	-0.19872367	,	0
12,29	,	100379	,	-26221	,	-24446	,	-0.9301284	,	0
12,29	,	100410	,	-26226	,	-24451	,	-2.1330214	,	0
12,29	,	100426	,	-26221	,	-24454	,	-3.492796	,	0
12,29	,	100458	,	-26226	,	-24452	,	-4.71068	,	0
12,29	,	100474	,	-26237	,	-24447	,	-5.640748	,	0
12,29	,	100490	,	-26238	,	-24450	,	-6.378585	,	0
12,29	,	100522	,	-26245	,	-24454	,	-7.104555	,	0
12,29	,	100538	,	-26251	,	-24463	,	-7.939975	,	0
12,29	,	100554	,	-26256	,	-24441	,	-8.947288	,	0
12,29	,	100587	,	-26258	,	-24458	,	-10.105581	,	0
12,29	,	100602	,	-26257	,	-24453	,	-11.271742	,	0
12,30	,	100634	,	-26258	,	-24454	,	-12.209016	,	0
12,30	,	100650	,	-26266	,	-24450	,	-12.726462	,	0
12,30	,	100666	,	-26269	,	-24460	,	-12.823853	,	0
12,30	,	100698	,	-26269	,	-24455	,	-12.630074	,	0
12,30	,	100714	,	-26286	,	-24461	,	-12.304115	,	0
12,30	,	100730	,	-26282	,	-24465	,	-12.051639	,	0
12,30	,	100762	,	-26283	,	-24459	,	-11.988907	,	0
12,30	,	100778	,	-26260	,	-24463	,	-11.8998575	,	0
12,30	,	100794	,	-26259	,	-24443	,	-11.262235	,	0
12,30	,	100826	,	-26234	,	-24440	,	-9.539047	,	0
12,30	,	100842	,	-26227	,	-24441	,	-6.391225	,	1
12,30	,	100874	,	-26217	,	-24444	,	-1.7933164	,	4
12,30	,	100890	,	-26214	,	-24439	,	3.8739705	,	8
12,30	,	100906	,	-26221	,	-24429	,	9.866391	,	13
12,30	,	100938	,	-26207	,	-24436	,	15.306413	,	18
12,30	,	100954	,	-26191	,	-24431	,	19.633106	,	23
12,30	,	100970	,	-26203	,	-24434	,	22.733196	,	27
12,30	,	101002	,	-26199	,	-24432	,	24.542868	,	30
12,30	,	101018	,	-26205	,	-24453	,	24.910004	,	31
12,30	,	101050	,	-26207	,	-24418	,	23.789358	,	30
12,30	,	101066	,	-26195	,	-24427	,	21.385027	,	27
12,30	,	101082	,	-26205	,	-24428	,	18.152676	,	23
12,30	,	101114	,	-26201	,	-24427	,	14.56353	,	18
12,30	,	101130	,	-26202	,	-24422	,	10.953445	,	13
12,30	,	101146	,	-26189	,	-24421	,	7.6492615	,	8
12,30	,	101178	,	-26197	,	-24422	,	4.9933724	,	4
12,30	,	101194	,	-26187	,	-24416	,	3.1829233	,	1
12,30	,	101210	,	-26195	,	-24421	,	2.2076857	,	0
12,30	,	101242	,	-26191	,	-24415	,	1.8919232	,	0
12,30	,	101258	,	-26200	,	-24436	,	1.9368998	,	0
12,30	,	101290	,	-26196	,	-24400	,	2.0262034	,	0
12,30	,	101306	,	-26202	,	-24423	,	1.9429768	,	0
12,30	,	101322	,	-26199	,	-24429	,	1.6007185	,	0
12,30	,	101354	,	-26202	,	-24421	,	1.0235033	,	0
12,30	,	101370	,	-26209	,	-24416	,	0.27217883	,	0
12,30	,	101386	,	-26201	,	-24424	,	-0.6072352	,	0
12,30	,	101418	,	-26213	,	-24425	,	-1.5466882	,	0
12,30	,	101434	,	-26206	,	-24424	,	-2.4723935	,	0
12,30	,	101466	,	-26203	,	-24423	,	-3.2737975	,	0
12,30	,	101482	,	-26214	,	-24433	,	-3.8155737	,	0
12,30	,	101498	,	-26205	,	-24447	,	-4.083646	,	0
12,30	,	101530	,	-26214	,	-24417	,	-4.1441565	,	0
12,30	,	101546	,	-26218	,	-24420	,	-4.096984	,	0
12,30	,	101562	,	-26213	,	-24424	,	-4.0761986	,	0
12,30	,	101594	,	-26229	,	-24419	,	-4.17002	,	0
12,30	,	101610	,	-26222	,	-24429	,	-4.4476447	,	0
12,31	,	101626	,	-26220	,	-24424	,	-4.887905	,	0
12,31	,	101658	,	-26229	,	-24434	,	-5.330752	,	0
12,31	,	101674	,	-26240	,	-24439	,	-5.7362404	,	0
12,31	,	101706	,	-26242	,	-24437	,	-6.276988	,	0
12,31	,	101722	,	-26228	,	-24436	,	-7.017209	,	0
12,31	,	101738	,	-26247	,	-24459	,	-7.7665014	,	0
12,31	,	101770	,	-26237	,	-24416	,	-8.347794	,	0
12,31	,	101786	,	-26199	,	-24424	,	-8.484346	,	0
12,31	,	101802	,	-26202	,	-24417	,	-7.536315	,	0
12,31	,	101834	,	-26180	,	-24413	,	-4.9578285	,	0
12,31	,	101850	,	-26175	,	-24415	,	-0.712445	,	2
12,31	,	101882	,	-26173	,	-24411	,	4.7831006	,	6
12,31	,	101898	,	-26170	,	-24417	,	10.752142	,	11
12,31	,	101914	,	-26169	,	-24415	,	16.28962	,	16
12,31	,	101946	,	-26163	,	-24398	,	20.672033	,	21
12,31	,	101962	,	-26143	,	-24414	,	23.60728	,	25
12,31	,	101978	,	-26157	,	-24410	,	25.21651	,	27
12,31	,	102010	,	-26158	,	-24398	,	25.610256	,	28
12,31	,	102026	,	-26156	,	-24402	,	24.735043	,	28
12,31	,	102042	,	-26141	,	-24396	,	22.736855	,	26
12,31	,	102074	,	-26136	,	-24399	,	20.143349	,	22
12,31	,	102090	,	-26136	,	-24400	,	17.569355	,	17
12,31	,	102122	,	-26131	,	-24400	,	15.378497	,	12
12,31	,	102138	,	-26130	,	-24398	,	13.669371	,	7
12,31	,	102154	,	-26129	,	-24400	,	12.399287	,	3
12,31	,	102186	,	-26139	,	-24396	,	11.393103	,	1
12,31	,	102202	,	-26131	,	-24404	,	10.388077	,	0
12,31	,	102218	,	-26133	,	-24405	,	9.227452	,	0
12,31	,	102250	,	-26139	,	-24384	,	7.8998604	,	0
12,31	,	102266	,	-26129	,	-24398	,	6.443012	,	0
12,31	,	102298	,	-26144	,	-24400	,	4.928723	,	0
12,31	,	102314	,	-26144	,	-24397	,	3.3631172	,	0
12,31	,	102330	,	-26140	,	-24409	,	1.7087038	,	0
12,31	,	102362	,	-26142	,	-24381	,	0.07389617	,	0
12,31	,	102378	,	-26141	,	-24396	,	-1.3364458	,	0
12,31	,	102394	,	-26143	,	-24414	,	-2.379742	,	0
12,31	,	102426	,	-26154	,	-24399	,	-3.0685182	,	0
12,31	,	102442	,	-26155	,	-24415	,	-3.5987513	,	0
12,31	,	102473	,	-26152	,	-24411	,	-4.1658382	,	0
12,31	,	102489	,	-26154	,	-24403	,	-4.766693	,	0
12,31	,	102506	,	-26148	,	-24405	,	-5.246752	,	0
12,31	,	102538	,	-26164	,	-24399	,	-5.499357	,	0
12,31	,	102554	,	-26166	,	-24413	,	-5.634551	,	0
12,31	,	102570	,	-26167	,	-24414	,	-5.867386	,	0
12,31	,	102602	,	-26172	,	-24421	,	-6.2870283	,	0
12,31	,	102618	,	-26173	,	-24424	,	-6.8616257	,	0
12,32	,	102633	,	-26169	,	-24416	,	-7.483304	,	0
12,32	,	102665	,	-26185	,	-24424	,	-8.022339	,	0
12,32	,	102682	,	-26182	,	-24425	,	-8.478789	,	0
12,32	,	102714	,	-26182	,	-24425	,	-8.902319	,	0
12,32	,	102730	,	-26177	,	-24417	,	-9.191924	,	0
12,32	,	102746	,	-26160	,	-24422	,	-9.064731	,	0
12,32	,	102778	,	-26133	,	-24410	,	-8.01931	,	0
12,32	,	102794	,	-26130	,	-24407	,	-5.482734	,	1
12,32	,	102809	,	-26121	,	-24405	,	-1.2842965	,	3
12,32	,	102841	,	-26111	,	-24411	,	4.1786356	,	7
12,32	,	102858	,	-26122	,	-24401	,	10.154821	,	12
12,32	,	102890	,	-26110	,	-24406	,	15.730073	,	17
12,32	,	102906	,	-26112	,	-24386	,	20.13146	,	22
12,32	,	102922	,	-26102	,	-24397	,	22.988401	,	26
12,32	,	102953	,	-26100	,	-24396	,	24.306797	,	28
12,32	,	102969	,	-26110	,	-24398	,	24.253857	,	29
12,32	,	102985	,	-26114	,	-24407	,	22.918812	,	28
12,32	,	103017	,	-26102	,	-24393	,	20.420517	,	26
12,32	,	103033	,	-26096	,	-24401	,	17.195084	,	22
12,32	,	103050	,	-26100	,	-24404	,	13.862038	,	17
12,32	,	103081	,	-26099	,	-24400	,	10.843654	,	12
12,32	,	103097	,	-26099	,	-24403	,	8.290878	,	7
12,32	,	103129	,	-26093	,	-24410	,	6.2588024	,	3
12,32	,	103145	,	-26087	,	-24398	,	4.8282146	,	1
12,32	,	103161	,	-26093	,	-24418	,	4.0493226	,	0
12,32	,	103193	,	-26087	,	-24396	,	3.820002	,	0
12,32	,	103209	,	-26097	,	-24401	,	3.9065094	,	0
12,32	,	103226	,	-26091	,	-24406	,	4.038983	,	0
12,32	,	103257	,	-26109	,	-24404	,	3.9438286	,	0
12,32	,	103274	,	-26091	,	-24406	,	3.4187567	,	0
12,32	,	103305	,	-26115	,	-24407	,	2.4324594	,	0
12,32	,	103321	,	-26101	,	-24417	,	1.052767	,	0
12,32	,	103337	,	-26101	,	-24408	,	-0.545437	,	0
12,32	,	103369	,	-26107	,	-24407	,	-2.0524468	,	0
12,32	,	103385	,	-26110	,	-24408	,	-3.2722943	,	0
12,32	,	103401	,	-26109	,	-24420	,	-4.1994996	,	0
12,32	,	103434	,	-26103	,	-24407	,	-4.8155975	,	0
12,32	,	103449	,	-26129	,	-24419	,	-5.1359897	,	0
12,32	,	103465	,	-26125	,	-24420	,	-5.423	,	0
12,32	,	103497	,	-26124	,	-24417	,	-5.9562836	,	0
12,32	,	103513	,	-26134	,	-24415	,	-6.73656	,	0
12,32	,	103545	,	-26135	,	-24429	,	-7.660907	,	0
12,32	,	103562	,	-26134	,	-24431	,	-8.63404	,	0
12,32	,	103578	,	-26141	,	-24437	,	-9.513565	,	0
12,32	,	103609	,	-26136	,	-24430	,	-10.168146	,	0
12,33	,	103625	,	-26147	,	-24443	,	-10.5235405	,	0
12,33	,	103641	,	-26136	,	-24441	,	-10.556488	,	0
12,33	,	103673	,	-26134	,	-24414	,	-10.20295	,	0
12,33	,	103689	,	-26109	,	-24422	,	-9.220014	,	0
12,33	,	103721	,	-26094	,	-24411	,	-7.1720963	,	0
12,33	,	103737	,	-26089	,	-24413	,	-3.7008424	,	2
12,33	,	103753	,	-26083	,	-24415	,	1.0930724	,	5
12,33	,	103785	,	-26078	,	-24419	,	6.6467886	,	9
12,33	,	103801	,	-26075	,	-24417	,	12.229261	,	14
12,33	,	103817	,	-26078	,	-24419	,	17.127926	,	19
12,33	,	103849	,	-26068	,	-24409	,	20.77946	,	23
12,33	,	103865	,	-26072	,	-24408	,	22.91504	,	26
12,33	,	103881	,	-26064	,	-24424	,	23.55299	,	28
12,33	,	103913	,	-26072	,	-24403	,	22.86633	,	28
12,33	,	103929	,	-26056	,	-24413	,	21.134369	,	26
12,33	,	103961	,	-26071	,	-24403	,	18.727283	,	23
12,33	,	103977	,	-26058	,	-24411	,	15.979154	,	19
12,33	,	103993	,	-26070	,	-24416	,	13.121816	,	14
12,33	,	104025	,	-26066	,	-24410	,	10.300999	,	9
12,33	,	104041	,	-26068	,	-24412	,	7.600157	,	5
12,33	,	104057	,	-26063	,	-24411	,	5.1390853	,	2
12,33	,	104089	,	-26060	,	-24410	,	3.1053987	,	0
12,33	,	104105	,	-26068	,	-24406	,	1.6298218	,	0
12,33	,	104137	,	-26056	,	-24434	,	0.7105732	,	0
12,33	,	104153	,	-26069	,	-24392	,	0.27149987	,	0
12,33	,	104169	,	-26066	,	-24424	,	0.1497966	,	0
12,33	,	104201	,	-26079	,	-24424	,	0.06885639	,	0
12,33	,	104217	,	-26085	,	-24419	,	-0.29632562	,	0
12,33	,	104233	,	-26079	,	-24431	,	-1.1610518	,	0
12,33	,	104265	,	-26091	,	-24425	,	-2.4849706	,	0
12,33	,	104281	,	-26096	,	-24429	,	-4.1209297	,	0
12,33	,	104297	,	-26099	,	-24428	,	-5.9718223	,	0
12,33	,	104329	,	-26100	,	-24429	,	-7.897608	,	0
12,33	,	104345	,	-26094	,	-24429	,	-9.63133	,	0
12,33	,	104377	,	-26101	,	-24447	,	-10.859599	,	0
12,33	,	104393	,	-26110	,	-24418	,	-11.461065	,	0
12,33	,	104409	,	-26107	,	-24438	,	-11.5780945	,	0
12,33	,	104441	,	-26127	,	-24432	,	-11.465904	,	0
12,33	,	104457	,	-26120	,	-24437	,	-11.403682	,	0
12,33	,	104473	,	-26125	,	-24441	,	-11.534431	,	0
12,33	,	104505	,	-26123	,	-24442	,	-11.757079	,	0
12,33	,	104521	,	-26126	,	-24452	,	-11.874873	,	0
12,33	,	104553	,	-26149	,	-24445	,	-11.848991	,	0
12,33	,	104569	,	-26143	,	-24445	,	-11.901928	,	0
12,33	,	104585	,	-26148	,	-24460	,	-12.21706	,	0
12,33	,	104617	,	-26164	,	-24462	,	-12.779242	,	0
12,34	,	104633	,	-26156	,	-24430	,	-13.552599	,	0
12,34	,	104649	,	-26149	,	-24450	,	-14.352492	,	0
12,34	,	104681	,	-26138	,	-24453	,	-14.695073	,	0
12,34	,	104697	,	-26124	,	-24448	,	-14.007547	,	0
12,34	,	104729	,	-26116	,	-24441	,	-11.875527	,	0
12,34	,	104745	,	-26101	,	-24443	,	-8.173969	,	2
12,34	,	104761	,	-26108	,	-24443	,	-3.153607	,	5
12,34	,	104793	,	-26118	,	-24444	,	2.4534187	,	10
12,34	,	104809	,	-26108	,	-24436	,	7.6285625	,	15
12,34	,	104825	,	-26109	,	-24436	,	11.618009	,	20
12,34	,	104857	,	-26105	,	-24452	,	14.15901	,	23
12,34	,	104873	,	-26102	,	-24427	,	15.312372	,	25
12,34	,	104889	,	-26105	,	-24449	,	15.298197	,	26
12,34	,	104921	,	-26110	,	-24447	,	14.344585	,	26
12,34	,	104937	,	-26097	,	-24443	,	12.683279	,	24
12,34	,	104969	,	-26107	,	-24441	,	10.64146	,	21
12,34	,	104985	,	-26093	,	-24433	,	8.561708	,	16
12,34	,	105001	,	-26103	,	-24439	,	6.7046194	,	11
12,34	,	105032	,	-26106	,	-24444	,	5.1649747	,	6
12,34	,	105049	,	-26099	,	-24438	,	3.8747635	,	3
12,34	,	105065	,	-26114	,	-24448	,	2.7385168	,	1
12,34	,	105097	,	-26108	,	-24454	,	1.6366594	,	0
12,34	,	105113	,	-26118	,	-24445	,	0.45346832	,	0
12,34	,	105145	,	-26115	,	-24451	,	-0.839332	,	0
12,34	,	105161	,	-26122	,	-24451	,	-2.2050052	,	0
12,34	,	105177	,	-26114	,	-24456	,	-3.5422204	,	0
12,34	,	105209	,	-26118	,	-24454	,	-4.6719375	,	0
12,34	,	105224	,	-26125	,	-24459	,	-5.4574747	,	0
12,34	,	105240	,	-26135	,	-24466	,	-5.9812946	,	0
12,34	,	105273	,	-26139	,	-24456	,	-6.5047703	,	0
12,34	,	105289	,	-26143	,	-24454	,	-7.2402735	,	0
12,34	,	105305	,	-26136	,	-24454	,	-8.1733	,	0
12,34	,	105337	,	-26145	,	-24465	,	-9.088011	,	0
12,34	,	105353	,	-26144	,	-24440	,	-9.78497	,	0
12,34	,	105385	,	-26151	,	-24464	,	-10.207135	,	0
12,34	,	105400	,	-26155	,	-24466	,	-10.404468	,	0
12,34	,	105416	,	-26154	,	-24463	,	-10.461679	,	0
12,34	,	105449	,	-26169	,	-24463	,	-10.465919	,	0
12,34	,	105465	,	-26178	,	-24473	,	-10.600981	,	0
12,34	,	105481	,	-26177	,	-24476	,	-11.09063	,	0
12,34	,	105513	,	-26177	,	-24476	,	-11.924053	,	0
12,34	,	105529	,	-26189	,	-24476	,	-12.874268	,	0
12,34	,	105560	,	-26188	,	-24481	,	-13.763022	,	0
12,34	,	105576	,	-26199	,	-24498	,	-14.5223465	,	0
12,34	,	105592	,	-26205	,	-24486	,	-15.158077	,	0
12,35	,	105625	,	-26209	,	-24487	,	-15.727962	,	0
12,35	,	105641	,	-26210	,	-24484	,	-16.235054	,	0
12,35	,	105657	,	-26200	,	-24480	,	-16.52463	,	0
12,35	,	105688	,	-26192	,	-24481	,	-16.261322	,	0
12,35	,	105704	,	-26191	,	-24483	,	-15.087818	,	0
12,35	,	105720	,	-26175	,	-24479	,	-12.829995	,	1
12,35	,	105752	,	-26176	,	-24485	,	-9.511103	,	3
12,35	,	105768	,	-26170	,	-24473	,	-5.3592525	,	6
12,35	,	105801	,	-26174	,	-24473	,	-0.8366389	,	10
12,35	,	105816	,	-26169	,	-24467	,	3.4823198	,	14
12,35	,	105832	,	-26176	,	-24476	,	7.0818024	,	18
12,35	,	105864	,	-26170	,	-24474	,	9.608118	,	21
12,35	,	105880	,	-26178	,	-24479	,	10.911818	,	23
12,35	,	105897	,	-26187	,	-24473	,	10.969189	,	24
12,35	,	105928	,	-26172	,	-24476	,	9.868336	,	23
12,35	,	105944	,	-26166	,	-24468	,	8.010561	,	21
12,35	,	105976	,	-26171	,	-24473	,	6.01429	,	18
12,35	,	105992	,	-26171	,	-24478	,	4.289546	,	14
12,35	,	106008	,	-26176	,	-24470	,	2.9162543	,	10
12,35	,	106040	,	-26169	,	-24479	,	1.8443966	,	6
12,35	,	106056	,	-26176	,	-24467	,	1.0414622	,	3
12,35	,	106072	,	-26172	,	-24470	,	0.47427773	,	1
12,35	,	106104	,	-26180	,	-24480	,	0.058679163	,	0
12,35	,	106120	,	-26181	,	-24479	,	-0.33747068	,	0
12,35	,	106152	,	-26188	,	-24485	,	-0.85990256	,	0
12,35	,	106168	,	-26189	,	-24478	,	-1.6154538	,	0
12,35	,	106184	,	-26188	,	-24488	,	-2.6023371	,	0
12,35	,	106216	,	-26187	,	-24483	,	-3.6691277	,	0
12,35	,	106232	,	-26195	,	-24490	,	-4.623376	,	0
12,35	,	106248	,	-26196	,	-24488	,	-5.392177	,	0
12,35	,	106280	,	-26205	,	-24491	,	-6.0362926	,	0
12,35	,	106296	,	-26204	,	-24475	,	-6.663268	,	0
12,35	,	106312	,	-26210	,	-24486	,	-7.336132	,	0
12,35	,	106344	,	-26217	,	-24491	,	-8.0699625	,	0
12,35	,	106360	,	-26226	,	-24489	,	-8.913948	,	0
12,35	,	106392	,	-26214	,	-24494	,	-9.867302	,	0
12,35	,	106408	,	-26236	,	-24496	,	-10.79352	,	0
12,35	,	106424	,	-26225	,	-24487	,	-11.588373	,	0
12,35	,	106456	,	-26226	,	-24489	,	-12.162516	,	0
12,35	,	106472	,	-26234	,	-24494	,	-12.359562	,	0
12,35	,	106488	,	-26233	,	-24497	,	-12.142143	,	0
12,35	,	106520	,	-26248	,	-24520	,	-11.661908	,	0
12,35	,	106536	,	-26252	,	-24483	,	-11.19388	,	0
12,35	,	106568	,	-26257	,	-24499	,	-11.01574	,	0
12,35	,	106584	,	-26255	,	-24505	,	-11.212257	,	0
12,35	,	106600	,	-26246	,	-24515	,	-11.585646	,	0
12,36	,	106632	,	-26246	,	-24503	,	-11.739823	,	0
12,36	,	106648	,	-26241	,	-24493	,	-11.312847	,	0
12,36	,	106664	,	-26224	,	-24496	,	-10.069368	,	0
12,36	,	106696	,	-26227	,	-24495	,	-7.855561	,	1
12,36	,	106712	,	-26214	,	-24491	,	-4.7053647	,	3
12,36	,	106728	,	-26210	,	-24480	,	-0.8607187	,	6
12,36	,	106760	,	-26209	,	-24497	,	3.32674	,	9
12,36	,	106776	,	-26213	,	-24470	,	7.3761415	,	13
12,36	,	106808	,	-26206	,	-24491	,	10.761795	,	17
12,36	,	106824	,	-26211	,	-24495	,	13.123171	,	20
12,36	,	106840	,	-26209	,	-24493	,	14.304976	,	22
12,36	,	106872	,	-26199	,	-24485	,	14.359737	,	23
12,36	,	106888	,	-26202	,	-24489	,	13.579265	,	22
12,36	,	106904	,	-26209	,	-24482	,	12.28018	,	20
12,36	,	106936	,	-26197	,	-24493	,	10.654177	,	17
12,36	,	106952	,	-26199	,	-24482	,	8.925622	,	14
12,36	,	106984	,	-26189	,	-24479	,	7.388654	,	10
12,36	,	107000	,	-26212	,	-24495	,	6.180599	,	6
12,36	,	107016	,	-26204	,	-24466	,	5.128602	,	3
12,36	,	107048	,	-26194	,	-24469	,	4.0449696	,	1
12,36	,	107064	,	-26202	,	-24470	,	3.0209835	,	0
12,36	,	107080	,	-26200	,	-24471	,	2.1899543	,	0
12,36	,	107112	,	-26202	,	-24481	,	1.5351199	,	0
12,36	,	107128	,	-26196	,	-24484	,	1.0225638	,	0
12,36	,	107160	,	-26207	,	-24474	,	0.6394417	,	0
12,36	,	107176	,	-26208	,	-24473	,	0.28517336	,	0
12,36	,	107192	,	-26212	,	-24480	,	-0.20768023	,	0
12,36	,	107224	,	-26205	,	-24484	,	-0.8977291	,	0
12,36	,	107240	,	-26208	,	-24487	,	-1.6601639	,	0
12,36	,	107256	,	-26202	,	-24466	,	-2.2895198	,	0
12,36	,	107288	,	-26223	,	-24484	,	-2.7043428	,	0
12,36	,	107304	,	-26221	,	-24480	,	-3.084684	,	0
12,36	,	107320	,	-26224	,	-24482	,	-3.678021	,	0
12,36	,	107352	,	-26224	,	-24480	,	-4.5256195	,	0
12,36	,	107368	,	-26211	,	-24473	,	-5.4250774	,	0
12,36	,	107400	,	-26226	,	-24487	,	-6.0717854	,	0
12,36	,	107416	,	-26238	,	-24484	,	-6.4014645	,	0
12,36	,	107432	,	-26239	,	-24479	,	-6.6997137	,	0
12,36	,	107464	,	-26232	,	-24488	,	-7.1853104	,	0
12,36	,	107480	,	-26246	,	-24498	,	-7.7852936	,	0
12,36	,	107496	,	-26241	,	-24478	,	-8.373985	,	0
12,36	,	107528	,	-26239	,	-24494	,	-8.852596	,	0
12,36	,	107544	,	-26255	,	-24504	,	-9.1250105	,	0
12,36	,	107576	,	-26251	,	-24499	,	-9.243921	,	0
12,36	,	107592	,	-26255	,	-24487	,	-9.3285475	,	0
12,36	,	107608	,	-26250	,	-24499	,	-9.356884	,	0
12,37	,	107640	,	-26248	,	-24485	,	-9.179592	,	0
12,37	,	107656	,	-26223	,	-24484	,	-8.526627	,	0
12,37	,	107672	,	-26202	,	-24485	,	-6.909455	,	0
12,37	,	107704	,	-26200	,	-24478	,	-3.8295002	,	1
12,37	,	107720	,	-26200	,	-24481	,	0.70008826	,	4
12,37	,	107735	,	-26194	,	-24462	,	6.0448046	,	8
12,37	,	107767	,	-26188	,	-24474	,	11.385624	,	13
12,37	,	107784	,	-26193	,	-24465	,	16.040749	,	18
12,37	,	107816	,	-26181	,	-24471	,	19.52346	,	22
12,37	,	107832	,	-26192	,	-24466	,	21.574554	,	25
12,37	,	107848	,	-26175	,	-24463	,	22.16708	,	27
12,37	,	107880	,	-26185	,	-24468	,	21.495132	,	27
12,37	,	107896	,	-26180	,	-24455	,	19.8549	,	26
12,37	,	107912	,	-26174	,	-24463	,	17.551102	,	23
12,37	,	107944	,	-26163	,	-24476	,	15.009557	,	19
12,37	,	107960	,	-26162	,	-24455	,	12.740696	,	14
12,37	,	107992	,	-26154	,	-24455	,	11.111435	,	9
12,37	,	108008	,	-26163	,	-24461	,	10.197156	,	5
12,37	,	108023	,	-26153	,	-24448	,	9.805765	,	2
12,37	,	108055	,	-26150	,	-24459	,	9.706053	,	0
12,37	,	108071	,	-26155	,	-24445	,	9.749771	,	0
12,37	,	108088	,	-26144	,	-24448	,	9.802489	,	0
12,37	,	108120	,	-26150	,	-24450	,	9.773426	,	0
12,37	,	108136	,	-26145	,	-24453	,	9.61671	,	0
12,37	,	108152	,	-26143	,	-24447	,	9.302017	,	0
12,37	,	108183	,	-26147	,	-24462	,	8.831174	,	0
12,37	,	108199	,	-26153	,	-24449	,	8.146166	,	0
12,37	,	108231	,	-26157	,	-24445	,	7.103247	,	0
12,37	,	108248	,	-26166	,	-24458	,	5.5719295	,	0
12,37	,	108263	,	-26163	,	-24456	,	3.5182054	,	0
12,37	,	108296	,	-26154	,	-24455	,	1.1415272	,	0
12,37	,	108311	,	-26172	,	-24462	,	-1.1835914	,	0
12,37	,	108327	,	-26163	,	-24453	,	-3.2163017	,	0
12,37	,	108359	,	-26170	,	-24456	,	-4.871563	,	0
12,37	,	108375	,	-26167	,	-24455	,	-6.0769672	,	0
12,37	,	108407	,	-26174	,	-24459	,	-6.809765	,	0
12,37	,	108423	,	-26170	,	-24469	,	-7.121419	,	0
12,37	,	108440	,	-26185	,	-24448	,	-7.1384788	,	0
12,37	,	108471	,	-26192	,	-24448	,	-7.125443	,	0
12,37	,	108487	,	-26188	,	-24463	,	-7.3688955	,	0
12,37	,	108504	,	-26190	,	-24469	,	-7.909874	,	0
12,37	,	108535	,	-26195	,	-24478	,	-8.569624	,	0
12,37	,	108551	,	-26194	,	-24466	,	-9.169861	,	0
12,37	,	108567	,	-26205	,	-24469	,	-9.624808	,	0
12,37	,	108599	,	-26198	,	-24471	,	-9.926691	,	0
12,37	,	108615	,	-26195	,	-24467	,	-10.011478	,	0
12,38	,	108647	,	-26200	,	-24467	,	-9.732985	,	0
12,38	,	108663	,	-26186	,	-24473	,	-8.988298	,	0
12,38	,	108679	,	-26167	,	-24451	,	-7.6073303	,	0
12,38	,	108711	,	-26160	,	-24452	,	-5.272561	,	1
12,38	,	108727	,	-26143	,	-24447	,	-1.7709947	,	3
12,38	,	108743	,	-26142	,	-24447	,	2.8017979	,	6
12,38	,	108775	,	-26137	,	-24443	,	8.0150585	,	10
12,38	,	108791	,	-26137	,	-24440	,	13.191547	,	15
12,38	,	108823	,	-26121	,	-24437	,	17.695433	,	20
12,38	,	108839	,	-26122	,	-24428	,	21.192907	,	24
12,38	,	108855	,	-26126	,	-24434	,	23.5374	,	27
12,38	,	108887	,	-26113	,	-24438	,	24.617651	,	29
12,38	,	108903	,	-26113	,	-24442	,	24.510626	,	29
12,38	,	108919	,	-26109	,	-24422	,	23.493877	,	27
12,38	,	108951	,	-26106	,	-24427	,	21.862152	,	24
12,38	,	108967	,	-26093	,	-24426	,	19.926409	,	20
12,38	,	108983	,	-26099	,	-24424	,	18.017406	,	15
12,38	,	109015	,	-26091	,	-24423	,	16.334064	,	10
12,38	,	109031	,	-26083	,	-24422	,	14.955143	,	6
12,38	,	109063	,	-26088	,	-24429	,	13.933369	,	3
12,38	,	109079	,	-26083	,	-24432	,	13.2062	,	1
12,38	,	109095	,	-26091	,	-24423	,	12.575695	,	0
12,38	,	109127	,	-26092	,	-24426	,	11.797997	,	0
12,38	,	109143	,	-26090	,	-24440	,	10.6768875	,	0
12,38	,	109159	,	-26080	,	-24411	,	9.22496	,	0
12,38	,	109191	,	-26080	,	-24433	,	7.7009993	,	0
12,38	,	109207	,	-26087	,	-24420	,	6.3635845	,	0
12,38	,	109239	,	-26083	,	-24428	,	5.256115	,	0
12,38	,	109255	,	-26088	,	-24419	,	4.289662	,	0
12,38	,	109271	,	-26086	,	-24415	,	3.3812938	,	0
12,38	,	109303	,	-26085	,	-24424	,	2.5020251	,	0
12,38	,	109319	,	-26090	,	-24420	,	1.666151	,	0
12,38	,	109335	,	-26088	,	-24416	,	0.8759092	,	0
12,38	,	109367	,	-26092	,	-24418	,	0.12545407	,	0
12,38	,	109383	,	-26087	,	-24428	,	-0.5618042	,	0
12,38	,	109415	,	-26087	,	-24404	,	-1.1171747	,	0
12,38	,	109431	,	-26093	,	-24422	,	-1.4828519	,	0
12,38	,	109447	,	-26105	,	-24430	,	-1.7618518	,	0
12,38	,	109479	,	-26091	,	-24425	,	-2.1498346	,	0
12,38	,	109495	,	-26098	,	-24428	,	-2.6520457	,	0
12,38	,	109511	,	-26105	,	-24433	,	-3.1507735	,	0
12,38	,	109543	,	-26112	,	-24443	,	-3.6912699	,	0
12,38	,	109559	,	-26116	,	-24436	,	-4.4384604	,	0
12,38	,	109575	,	-26125	,	-24441	,	-5.4996405	,	0
12,38	,	109607	,	-26108	,	-24440	,	-6.803751	,	0
12,38	,	109623	,	-26112	,	-24450	,	-8.009782	,	0
12,39	,	109655	,	-26078	,	-24418	,	-8.547584	,	0
12,39	,	109671	,	-26075	,	-24437	,	-7.7539344	,	0
12,39	,	109687	,	-26060	,	-24433	,	-5.1878324	,	0
12,39	,	109719	,	-26069	,	-24434	,	-0.9876652	,	2
12,39	,	109735	,	-26046	,	-24426	,	4.2136965	,	6
12,39	,	109751	,	-26050	,	-24417	,	9.708212	,	11
12,39	,	109783	,	-26051	,	-24415	,	14.849387	,	16
12,39	,	109799	,	-26043	,	-24418	,	19.012877	,	21
12,39	,	109831	,	-26027	,	-24417	,	21.866966	,	25
12,39	,	109847	,	-26028	,	-24414	,	23.521511	,	27
12,39	,	109863	,	-26028	,	-24434	,	24.200243	,	28
12,39	,	109895	,	-26044	,	-24394	,	23.905083	,	28
12,39	,	109911	,	-26033	,	-24414	,	22.485344	,	26
12,39	,	109927	,	-26037	,	-24409	,	19.983654	,	22
12,39	,	109959	,	-26014	,	-24405	,	16.829311	,	17
12,39	,	109975	,	-26019	,	-24408	,	13.708728	,	12
12,39	,	109991	,	-26020	,	-24405	,	11.160349	,	7
12,39	,	110023	,	-26016	,	-24408	,	9.306957	,	3
12,39	,	110039	,	-26017	,	-24405	,	8.036345	,	1
12,39	,	110070	,	-26022	,	-24403	,	7.172131	,	0
12,39	,	110086	,	-26024	,	-24403	,	6.4674253	,	0
12,39	,	110102	,	-26027	,	-24427	,	5.675742	,	0
12,39	,	110135	,	-26032	,	-24405	,	4.6270103	,	0
12,39	,	110151	,	-26042	,	-24418	,	3.2035582	,	0
12,39	,	110167	,	-26045	,	-24411	,	1.3192952	,	0
12,39	,	110199	,	-26041	,	-24411	,	-0.96845436	,	0
12,39	,	110215	,	-26044	,	-24420	,	-3.3734026	,	0
12,39	,	110246	,	-26047	,	-24413	,	-5.548874	,	0
12,39	,	110262	,	-26046	,	-24407	,	-7.2717032	,	0
12,39	,	110278	,	-26052	,	-24423	,	-8.4441805	,	0
12,39	,	110311	,	-26045	,	-24420	,	-9.051068	,	0
12,39	,	110327	,	-26060	,	-24420	,	-9.154888	,	0
12,39	,	110342	,	-26054	,	-24433	,	-8.9191265	,	0
12,39	,	110375	,	-26054	,	-24419	,	-8.494896	,	0
12,39	,	110390	,	-26071	,	-24437	,	-7.9802446	,	0
12,39	,	110406	,	-26074	,	-24429	,	-7.60904	,	0
12,39	,	110438	,	-26081	,	-24434	,	-7.6792583	,	0
12,39	,	110454	,	-26087	,	-24443	,	-8.315529	,	0
12,39	,	110487	,	-26084	,	-24448	,	-9.425837	,	0
12,39	,	110503	,	-26102	,	-24447	,	-10.806677	,	0
12,39	,	110519	,	-26107	,	-24448	,	-12.347224	,	0
12,39	,	110550	,	-26105	,	-24449	,	-13.9982605	,	0
12,39	,	110566	,	-26101	,	-24468	,	-15.516085	,	0
12,39	,	110582	,	-26112	,	-24465	,	-16.538599	,	0
12,39	,	110615	,	-26118	,	-24462	,	-16.927336	,	0
12,40	,	110630	,	-26096	,	-24454	,	-16.710983	,	0
12,40	,	110662	,	-26085	,	-24460	,	-15.681837	,	0
12,40	,	110678	,	-26066	,	-24456	,	-13.389201	,	1
12,40	,	110695	,	-26067	,	-24440	,	-9.559715	,	3
12,40	,	110726	,	-26071	,	-24443	,	-4.4593267	,	6
12,40	,	110742	,	-26059	,	-24445	,	1.1698899	,	11
12,40	,	110758	,	-26056	,	-24439	,	6.580216	,	16
12,40	,	110790	,	-26042	,	-24446	,	11.331546	,	21
12,40	,	110806	,	-26045	,	-24449	,	15.236979	,	25
12,40	,	110839	,	-26050	,	-24431	,	18.13631	,	28
12,40	,	110854	,	-26064	,	-24446	,	19.710846	,	30
12,40	,	110870	,	-26048	,	-24436	,	19.671131	,	30
12,40	,	110903	,	-26047	,	-24439	,	18.164114	,	28
12,40	,	110918	,	-26043	,	-24431	,	15.760989	,	25
12,40	,	110934	,	-26042	,	-24443	,	13.07314	,	20
12,40	,	110966	,	-26029	,	-24458	,	10.588325	,	15
12,40	,	110982	,	-26034	,	-24441	,	8.678295	,	10
12,40	,	110998	,	-26038	,	-24439	,	7.4477496	,	6
12,40	,	111031	,	-26028	,	-24437	,	6.7229357	,	3
12,40	,	111046	,	-26034	,	-24437	,	6.3057947	,	1
12,40	,	111078	,	-26040	,	-24435	,	6.0111856	,	0
12,40	,	111094	,	-26044	,	-24445	,	5.570122	,	0
12,40	,	111110	,	-26049	,	-24438	,	4.727788	,	0
12,40	,	111142	,	-26041	,	-24434	,	3.4073713	,	0
12,40	,	111158	,	-26059	,	-24431	,	1.7133274	,	0
12,40	,	111174	,	-26053	,	-24429	,	-0.23542595	,	0
12,40	,	111206	,	-26056	,	-24432	,	-2.3058481	,	0
12,40	,	111222	,	-26060	,	-24429	,	-4.2832355	,	0
12,40	,	111254	,	-26054	,	-24441	,	-5.955566	,	0
12,40	,	111270	,	-26053	,	-24445	,	-7.1196723	,	0
12,40	,	111286	,	-26063	,	-24445	,	-7.6518564	,	0
12,40	,	111318	,	-26070	,	-24431	,	-7.69254	,	0
12,40	,	111334	,	-26065	,	-24442	,	-7.5372066	,	0
12,40	,	111350	,	-26075	,	-24442	,	-7.380356	,	0
12,40	,	111382	,	-26084	,	-24447	,	-7.362505	,	0
12,40	,	111398	,	-26087	,	-24441	,	-7.667689	,	0
12,40	,	111414	,	-26082	,	-24452	,	-8.340883	,	0
12,40	,	111446	,	-26085	,	-24449	,	-9.168453	,	0
12,40	,	111462	,	-26094	,	-24451	,	-9.895887	,	0
12,40	,	111494	,	-26094	,	-24446	,	-10.441598	,	0
12,40	,	111510	,	-26097	,	-24450	,	-10.81279	,	0
12,40	,	111526	,	-26099	,	-24456	,	-10.987479	,	0
12,40	,	111558	,	-26107	,	-24442	,	-10.974642	,	0
12,40	,	111574	,	-26100	,	-24459	,	-10.82666	,	0
12,40	,	111590	,	-26097	,	-24451	,	-10.497845	,	0
12,41	,	111622	,	-26075	,	-24444	,	-9.734879	,	0
12,41	,	111638	,	-26075	,	-24444	,	-8.159161	,	0
12,41	,	111670	,	-26065	,	-24436	,	-5.546827	,	1
12,41	,	111686	,	-26067	,	-24449	,	-2.0310078	,	3
12,41	,	111702	,	-26069	,	-24437	,	1.9242418	,	6
12,41	,	111734	,	-26060	,	-24441	,	5.7200193	,	9
12,41	,	111750	,	-26062	,	-24445	,	8.902656	,	12
12,41	,	111766	,	-26061	,	-24445	,	11.229943	,	15
12,41	,	111798	,	-26058	,	-24424	,	12.592455	,	17
12,41	,	111814	,	-26062	,	-24431	,	13.003424	,	18
12,41	,	111830	,	-26061	,	-24440	,	12.548598	,	18
12,41	,	111862	,	-26062	,	-24434	,	11.355635	,	17
12,41	,	111878	,	-26064	,	-24434	,	9.6147585	,	15
12,41	,	111910	,	-26057	,	-24434	,	7.580139	,	12
12,41	,	111926	,	-26050	,	-24431	,	5.5965533	,	9
12,41	,	111942	,	-26063	,	-24436	,	3.9816394	,	6
12,41	,	111974	,	-26075	,	-24432	,	2.7168791	,	3
12,41	,	111990	,	-26062	,	-24431	,	1.517164	,	1
12,41	,	112006	,	-26065	,	-24451	,	0.29174578	,	0
12,41	,	112038	,	-26076	,	-24422	,	-0.85127497	,	0
12,41	,	112054	,	-26081	,	-24436	,	-1.9560881	,	0
12,41	,	112086	,	-26074	,	-24450	,	-3.1414897	,	0
12,41	,	112102	,	-26085	,	-24439	,	-4.3613453	,	0
12,41	,	112118	,	-26090	,	-24442	,	-5.5367856	,	0
12,41	,	112150	,	-26092	,	-24435	,	-6.6891136	,	0
12,41	,	112166	,	-26087	,	-24436	,	-7.783982	,	0
12,41	,	112182	,	-26099	,	-24440	,	-8.688653	,	0
12,41	,	112214	,	-26104	,	-24442	,	-9.374164	,	0
12,41	,	112230	,	-26098	,	-24435	,	-9.911293	,	0
12,41	,	112246	,	-26099	,	-24457	,	-10.249314	,	0
12,41	,	112278	,	-26109	,	-24433	,	-10.2829075	,	0
12,41	,	112294	,	-26118	,	-24451	,	-10.111532	,	0
12,41	,	112326	,	-26135	,	-24450	,	-10.078214	,	0
12,41	,	112342	,	-26118	,	-24458	,	-10.476678	,	0
12,41	,	112358	,	-26130	,	-24457	,	-11.218629	,	0
12,41	,	112390	,	-26145	,	-24471	,	-12.063726	,	0
12,41	,	112406	,	-26135	,	-24460	,	-12.95212	,	0
12,41	,	112422	,	-26134	,	-24462	,	-13.752521	,	0
12,41	,	112454	,	-26135	,	-24476	,	-14.141384	,	0
12,41	,	112470	,	-26146	,	-24465	,	-13.940477	,	0
12,41	,	112501	,	-26153	,	-24482	,	-13.308945	,	0
12,41	,	112518	,	-26158	,	-24451	,	-12.594511	,	0
12,41	,	112534	,	-26171	,	-24474	,	-12.126604	,	0
12,41	,	112566	,	-26166	,	-24462	,	-12.104051	,	0
12,41	,	112582	,	-26175	,	-24477	,	-12.507366	,	0
12,41	,	112598	,	-26182	,	-24480	,	-13.183258	,	0
12,42	,	112630	,	-26161	,	-24471	,	-13.902836	,	0
12,42	,	112646	,	-26150	,	-24470	,	-14.161294	,	0
12,42	,	112661	,	-26152	,	-24469	,	-13.338205	,	0
12,42	,	112694	,	-26136	,	-24475	,	-11.153397	,	0
12,42	,	112710	,	-26135	,	-24466	,	-7.7038665	,	2
12,42	,	112742	,	-26130	,	-24485	,	-3.3275232	,	5
12,42	,	112759	,	-26134	,	-24451	,	1.4174747	,	9
12,42	,	112774	,	-26135	,	-24468	,	5.8511014	,	13
12,42	,	112806	,	-26126	,	-24471	,	9.409331	,	17
12,42	,	112822	,	-26134	,	-24468	,	11.821264	,	20
12,42	,	112838	,	-26136	,	-24468	,	12.998547	,	22
12,42	,	112870	,	-26143	,	-24469	,	12.896449	,	23
12,42	,	112885	,	-26155	,	-24474	,	11.51325	,	23
12,42	,	112917	,	-26144	,	-24475	,	8.97476	,	21
12,42	,	112933	,	-26134	,	-24467	,	5.7590423	,	18
12,42	,	112949	,	-26128	,	-24474	,	2.6772075	,	14
12,42	,	112981	,	-26129	,	-24489	,	0.44078302	,	10
12,42	,	112998	,	-26136	,	-24461	,	-0.7033818	,	6
12,42	,	113013	,	-26135	,	-24461	,	-0.95973444	,	3
12,42	,	113045	,	-26149	,	-24462	,	-0.76556	,	1
12,42	,	113061	,	-26138	,	-24465	,	-0.5665025	,	0
12,42	,	113094	,	-26141	,	-24468	,	-0.5750014	,	0
12,42	,	113110	,	-26154	,	-24474	,	-0.80601734	,	0
12,42	,	113126	,	-26163	,	-24474	,	-1.3841801	,	0
12,42	,	113157	,	-26150	,	-24463	,	-2.4496279	,	0
12,42	,	113173	,	-26161	,	-24478	,	-3.8498914	,	0
12,42	,	113189	,	-26156	,	-24479	,	-5.266425	,	0
12,42	,	113221	,	-26170	,	-24499	,	-6.4978943	,	0
12,42	,	113237	,	-26177	,	-24459	,	-7.570466	,	0
12,42	,	113253	,	-26188	,	-24469	,	-8.69387	,	0
12,42	,	113286	,	-26179	,	-24482	,	-10.0049715	,	0
12,42	,	113302	,	-26187	,	-24484	,	-11.365324	,	0
12,42	,	113333	,	-26185	,	-24482	,	-12.501722	,	0
12,42	,	113349	,	-26189	,	-24475	,	-13.216199	,	0
12,42	,	113365	,	-26189	,	-24483	,	-13.422125	,	0
12,42	,	113397	,	-26195	,	-24477	,	-13.138847	,	0
12,42	,	113413	,	-26196	,	-24482	,	-12.488646	,	0
12,42	,	113429	,	-26208	,	-24490	,	-11.67701	,	0
12,42	,	113461	,	-26202	,	-24501	,	-10.926604	,	0
12,42	,	113477	,	-26208	,	-24482	,	-10.340185	,	0
12,42	,	113509	,	-26214	,	-24489	,	-9.916105	,	0
12,42	,	113525	,	-26219	,	-24486	,	-9.692555	,	0
12,42	,	113541	,	-26228	,	-24489	,	-9.760179	,	0
12,42	,	113573	,	-26233	,	-24485	,	-10.201785	,	0
12,42	,	113589	,	-26216	,	-24482	,	-10.928383	,	0
12,42	,	113605	,	-26218	,	-24489	,	-11.53363	,	0
12,43	,	113637	,	-26215	,	-24478	,	-11.549503	,	0
12,43	,	113653	,	-26199	,	-24485	,	-10.699129	,	0
12,43	,	113669	,	-26182	,	-24479	,	-8.750261	,	0
12,43	,	113701	,	-26186	,	-24473	,	-5.5423455	,	1
12,43	,	113717	,	-26188	,	-24470	,	-1.3391747	,	4
12,43	,	113749	,	-26184	,	-24472	,	3.168251	,	8
12,43	,	113765	,	-26181	,	-24477	,	7.2820277	,	12
12,43	,	113781	,	-26176	,	-24469	,	10.580239	,	16
12,43	,	113813	,	-26175	,	-24477	,	12.905933	,	19
12,43	,	113829	,	-26161	,	-24466	,	14.31098	,	21
12,43	,	113845	,	-26178	,	-24463	,	14.950578	,	22
12,43	,	113877	,	-26164	,	-24473	,	14.906537	,	22
12,43	,	113893	,	-26168	,	-24453	,	14.242037	,	21
12,43	,	113925	,	-26166	,	-24457	,	13.108719	,	18
12,43	,	113941	,	-26165	,	-24447	,	11.667446	,	14
12,43	,	113957	,	-26157	,	-24460	,	10.099014	,	10
12,43	,	113989	,	-26160	,	-24451	,	8.627602	,	6
12,43	,	114005	,	-26167	,	-24458	,	7.358221	,	3
12,43	,	114021	,	-26164	,	-24449	,	6.1996818	,	1
12,43	,	114053	,	-26172	,	-24456	,	5.00893	,	0
12,43	,	114069	,	-26162	,	-24453	,	3.732028	,	0
12,43	,	114085	,	-26163	,	-24464	,	2.469762	,	0
12,43	,	114117	,	-26165	,	-24460	,	1.4001594	,	0
12,43	,	114133	,	-26156	,	-24458	,	0.64651704	,	0
12,43	,	114165	,	-26162	,	-24462	,	0.2760775	,	0
12,43	,	114182	,	-26179	,	-24460	,	0.17895412	,	0
12,43	,	114197	,	-26162	,	-24456	,	0.054126084	,	0
12,43	,	114229	,	-26183	,	-24470	,	-0.3021388	,	0
12,43	,	114245	,	-26182	,	-24461	,	-0.9923053	,	0
12,43	,	114261	,	-26187	,	-24464	,	-2.1107621	,	0
12,43	,	114293	,	-26183	,	-24469	,	-3.5777318	,	0
12,43	,	114309	,	-26187	,	-24466	,	-5.1228075	,	0
12,43	,	114341	,	-26201	,	-24474	,	-6.5374703	,	0
12,43	,	114357	,	-26183	,	-24457	,	-7.7595143	,	0
12,43	,	114373	,	-26192	,	-24472	,	-8.64838	,	0
12,43	,	114405	,	-26198	,	-24488	,	-9.045905	,	0
12,43	,	114421	,	-26206	,	-24463	,	-9.065256	,	0
12,43	,	114437	,	-26214	,	-24471	,	-9.02744	,	0
12,43	,	114469	,	-26210	,	-24483	,	-9.184923	,	0
12,43	,	114485	,	-26212	,	-24489	,	-9.538658	,	0
12,43	,	114501	,	-26211	,	-24488	,	-9.892487	,	0
12,43	,	114533	,	-26222	,	-24493	,	-10.083885	,	0
12,43	,	114549	,	-26228	,	-24479	,	-10.154139	,	0
12,43	,	114581	,	-26234	,	-24492	,	-10.298943	,	0
12,43	,	114597	,	-26238	,	-24477	,	-10.677104	,	0
12,43	,	114613	,	-26235	,	-24482	,	-11.277772	,	0
12,44	,	114645	,	-26223	,	-24498	,	-11.841844	,	0
12,44	,	114661	,	-26222	,	-24467	,	-11.918539	,	0
12,44	,	114677	,	-26209	,	-24486	,	-11.104571	,	0
12,44	,	114709	,	-26181	,	-24461	,	-9.081909	,	0
12,44	,	114725	,	-26190	,	-24480	,	-5.615687	,	2
12,44	,	114757	,	-26173	,	-24470	,	-0.84876204	,	5
12,44	,	114773	,	-26174	,	-24464	,	4.6701355	,	9
12,44	,	114789	,	-26177	,	-24460	,	10.223411	,	14
12,44	,	114821	,	-26174	,	-24457	,	15.038893	,	19
12,44	,	114837	,	-26167	,	-24464	,	18.53314	,	23
12,44	,	114853	,	-26151	,	-24456	,	20.595531	,	26
12,44	,	114885	,	-26162	,	-24476	,	21.486706	,	28
12,44	,	114901	,	-26160	,	-24453	,	21.42501	,	28
12,44	,	114933	,	-26154	,	-24455	,	20.487055	,	26
12,44	,	114949	,	-26146	,	-24452	,	18.877956	,	23
12,44	,	114965	,	-26139	,	-24459	,	16.999855	,	19
12,44	,	114997	,	-26144	,	-24451	,	15.227419	,	14
12,44	,	115013	,	-26144	,	-24446	,	13.684418	,	9
12,44	,	115029	,	-26150	,	-24447	,	12.250504	,	5
12,44	,	115061	,	-26149	,	-24451	,	10.737047	,	2
12,44	,	115077	,	-26137	,	-24445	,	9.099258	,	0
12,44	,	115093	,	-26133	,	-24442	,	7.5579023	,	0
12,44	,	115125	,	-26133	,	-24459	,	6.4195566	,	0
12,44	,	115141	,	-26136	,	-24441	,	5.7795277	,	0
12,44	,	115173	,	-26143	,	-24457	,	5.449971	,	0
12,44	,	115189	,	-26147	,	-24453	,	5.094296	,	0
12,44	,	115205	,	-26149	,	-24439	,	4.4155984	,	0
12,44	,	115237	,	-26141	,	-24450	,	3.3303378	,	0
12,44	,	115253	,	-26142	,	-24453	,	2.0233948	,	0
12,44	,	115268	,	-26137	,	-24454	,	0.8045602	,	0
12,44	,	115301	,	-26147	,	-24456	,	-0.11255264	,	0
12,44	,	115317	,	-26154	,	-24454	,	-0.76682824	,	0
12,44	,	115349	,	-26146	,	-24458	,	-1.3557771	,	0
12,44	,	115365	,	-26149	,	-24470	,	-1.9473853	,	0
12,44	,	115381	,	-26147	,	-24436	,	-2.4410303	,	0
12,44	,	115413	,	-26161	,	-24449	,	-2.8028846	,	0
12,44	,	115429	,	-26150	,	-24455	,	-3.1363053	,	0
12,44	,	115445	,	-26155	,	-24450	,	-3.4822483	,	0
12,44	,	115476	,	-26156	,	-24449	,	-3.763891	,	0
12,44	,	115493	,	-26170	,	-24461	,	-3.9937415	,	0
12,44	,	115508	,	-26163	,	-24461	,	-4.316256	,	0
12,44	,	115541	,	-26178	,	-24460	,	-4.8468304	,	0
12,44	,	115557	,	-26178	,	-24469	,	-5.64405	,	0
12,44	,	115588	,	-26182	,	-24465	,	-6.7138066	,	0
12,44	,	115605	,	-26175	,	-24481	,	-7.9024963	,	0
12,44	,	115620	,	-26172	,	-24445	,	-8.8853855	,	0
12,45	,	115652	,	-26135	,	-24452	,	-9.146636	,	0
12,45	,	115668	,	-26130	,	-24447	,	-7.9783936	,	0
12,45	,	115685	,	-26127	,	-24442	,	-4.936558	,	1
12,45	,	115717	,	-26106	,	-24437	,	-0.2122674	,	4
12,45	,	115733	,	-26094	,	-24439	,	5.693566	,	8
12,45	,	115764	,	-26086	,	-24434	,	12.261229	,	13
12,45	,	115780	,	-26092	,	-24429	,	18.816404	,	19
12,45	,	115797	,	-26081	,	-24425	,	24.529766	,	25
12,45	,	115828	,	-26076	,	-24424	,	28.756624	,	30
12,45	,	115844	,	-26075	,	-24437	,	31.23962	,	34
12,45	,	115860	,	-26078	,	-24409	,	31.954124	,	36
12,45	,	115893	,	-26075	,	-24419	,	30.979828	,	35
12,45	,	115909	,	-26072	,	-24408	,	28.5618	,	32
12,45	,	115925	,	-26063	,	-24411	,	25.171556	,	28
12,45	,	115956	,	-26067	,	-24418	,	21.390823	,	23
12,45	,	115972	,	-26058	,	-24408	,	17.701557	,	17
12,45	,	116004	,	-26042	,	-24418	,	14.510969	,	11
12,45	,	116020	,	-26053	,	-24413	,	12.17844	,	6
12,45	,	116037	,	-26043	,	-24406	,	10.77818	,	2
12,45	,	116068	,	-26044	,	-24409	,	10.106457	,	0
12,45	,	116084	,	-26043	,	-24428	,	9.904205	,	0
12,45	,	116100	,	-26053	,	-24394	,	9.858694	,	0
12,45	,	116132	,	-26063	,	-24409	,	9.543855	,	0
12,45	,	116148	,	-26055	,	-24406	,	8.582657	,	0
12,45	,	116181	,	-26067	,	-24417	,	6.8888354	,	0
12,45	,	116197	,	-26062	,	-24412	,	4.6278768	,	0
12,45	,	116212	,	-26063	,	-24414	,	2.0848932	,	0
12,45	,	116245	,	-26064	,	-24406	,	-0.38324308	,	0
12,45	,	116260	,	-26056	,	-24413	,	-2.438007	,	0
12,45	,	116276	,	-26071	,	-24407	,	-3.874876	,	0
12,45	,	116308	,	-26066	,	-24415	,	-4.7260156	,	0
12,45	,	116324	,	-26065	,	-24428	,	-5.1317935	,	0
12,45	,	116356	,	-26062	,	-24407	,	-5.132679	,	0
12,45	,	116372	,	-26076	,	-24423	,	-4.7873516	,	0
12,45	,	116389	,	-26074	,	-24421	,	-4.3320007	,	0
12,45	,	116420	,	-26077	,	-24424	,	-4.0239635	,	0
12,45	,	116436	,	-26091	,	-24418	,	-4.02221	,	0
12,45	,	116452	,	-26095	,	-24429	,	-4.4935613	,	0
12,45	,	116484	,	-26091	,	-24431	,	-5.517574	,	0
12,45	,	116500	,	-26095	,	-24435	,	-6.898103	,	0
12,45	,	116516	,	-26092	,	-24433	,	-8.273789	,	0
12,45	,	116548	,	-26105	,	-24434	,	-9.366903	,	0
12,45	,	116564	,	-26104	,	-24452	,	-10.123366	,	0
12,45	,	116596	,	-26115	,	-24432	,	-10.659472	,	0
12,45	,	116612	,	-26111	,	-24442	,	-11.101519	,	0
12,46	,	116628	,	-26122	,	-24442	,	-11.499401	,	0
12,46	,	116660	,	-26094	,	-24434	,	-11.735025	,	0
12,46	,	116676	,	-26071	,	-24419	,	-11.295773	,	0
12,46	,	116692	,	-26063	,	-24418	,	-9.408188	,	0
12,46	,	116724	,	-26062	,	-24429	,	-5.708281	,	1
12,46	,	116740	,	-26050	,	-24427	,	-0.5396714	,	4
12,46	,	116772	,	-26045	,	-24417	,	5.399155	,	9
12,46	,	116788	,	-26043	,	-24413	,	11.368529	,	14
12,46	,	116804	,	-26038	,	-24411	,	16.680223	,	19
12,46	,	116836	,	-26042	,	-24399	,	20.780409	,	24
12,46	,	116852	,	-26037	,	-24412	,	23.314837	,	28
12,46	,	116868	,	-26041	,	-24404	,	24.160149	,	30
12,46	,	116900	,	-26041	,	-24408	,	23.39703	,	30
12,46	,	116916	,	-26046	,	-24415	,	21.23901	,	29
12,46	,	116932	,	-26041	,	-24403	,	18.019249	,	26
12,46	,	116964	,	-26033	,	-24393	,	14.236244	,	21
12,46	,	116980	,	-26021	,	-24403	,	10.559493	,	16
12,46	,	117012	,	-26020	,	-24398	,	7.6566896	,	11
12,46	,	117028	,	-26022	,	-24404	,	5.8876567	,	6
12,46	,	117044	,	-26015	,	-24392	,	5.203217	,	2
12,46	,	117076	,	-26018	,	-24405	,	5.329506	,	0
12,46	,	117092	,	-26028	,	-24408	,	5.8676796	,	0
12,46	,	117108	,	-26011	,	-24394	,	6.3939877	,	0
12,46	,	117140	,	-26021	,	-24395	,	6.696226	,	0
12,46	,	117156	,	-26029	,	-24412	,	6.679512	,	0
12,46	,	117188	,	-26026	,	-24407	,	6.177123	,	0
12,46	,	117204	,	-26032	,	-24415	,	5.102593	,	0
12,46	,	117220	,	-26036	,	-24409	,	3.5209608	,	0
12,46	,	117252	,	-26033	,	-24406	,	1.5811658	,	0
12,46	,	117268	,	-26037	,	-24417	,	-0.47569036	,	0
12,46	,	117284	,	-26047	,	-24398	,	-2.4377446	,	0
12,46	,	117316	,	-26044	,	-24411	,	-4.2432065	,	0
12,46	,	117332	,	-26054	,	-24413	,	-5.88985	,	0
12,46	,	117348	,	-26052	,	-24417	,	-7.3617797	,	0
12,46	,	117380	,	-26056	,	-24408	,	-8.612601	,	0
12,46	,	117396	,	-26065	,	-24413	,	-9.599099	,	0
12,46	,	117428	,	-26069	,	-24415	,	-10.38718	,	0
12,46	,	117444	,	-26066	,	-24412	,	-11.065718	,	0
12,46	,	117460	,	-26076	,	-24415	,	-11.6135845	,	0
12,46	,	117492	,	-26073	,	-24419	,	-11.980415	,	0
12,46	,	117508	,	-26086	,	-24440	,	-12.175707	,	0
12,46	,	117524	,	-26088	,	-24412	,	-12.289497	,	0
12,46	,	117556	,	-26082	,	-24428	,	-12.388015	,	0
12,46	,	117572	,	-26094	,	-24435	,	-12.406681	,	0
12,46	,	117604	,	-26092	,	-24434	,	-12.290435	,	0
12,46	,	117620	,	-26090	,	-24432	,	-12.032221	,	0
12,47	,	117636	,	-26089	,	-24431	,	-11.545227	,	0
12,47	,	117668	,	-26080	,	-24418	,	-10.676434	,	0
12,47	,	117684	,	-26057	,	-24433	,	-9.178696	,	0
12,47	,	117699	,	-26051	,	-24427	,	-6.6918244	,	1
12,47	,	117732	,	-26034	,	-24422	,	-2.9760857	,	3
12,47	,	117748	,	-26031	,	-24430	,	1.8806472	,	6
12,47	,	117764	,	-26042	,	-24395	,	7.37006	,	10
12,47	,	117796	,	-26039	,	-24411	,	12.593402	,	15
12,47	,	117812	,	-26031	,	-24415	,	16.697947	,	20
12,47	,	117844	,	-26032	,	-24413	,	19.295795	,	24
12,47	,	117860	,	-26033	,	-24403	,	20.363686	,	26
12,47	,	117876	,	-26031	,	-24402	,	20.02594	,	27
12,47	,	117908	,	-26030	,	-24407	,	18.530407	,	26
12,47	,	117923	,	-26034	,	-24404	,	16.210718	,	24
12,47	,	117940	,	-26024	,	-24400	,	13.431478	,	21
12,47	,	117972	,	-26012	,	-24402	,	10.661751	,	17
12,47	,	117988	,	-26011	,	-24429	,	8.443737	,	12
12,47	,	118020	,	-26016	,	-24386	,	7.082915	,	7
12,47	,	118036	,	-26024	,	-24391	,	6.424184	,	3
12,47	,	118052	,	-26014	,	-24411	,	6.0648255	,	1
12,47	,	118084	,	-26028	,	-24414	,	5.684555	,	0
12,47	,	118100	,	-26022	,	-24407	,	5.084902	,	0
12,47	,	118115	,	-26027	,	-24411	,	4.1734424	,	0
12,47	,	118147	,	-26034	,	-24416	,	2.9589179	,	0
12,47	,	118164	,	-26032	,	-24409	,	1.4703863	,	0
12,47	,	118195	,	-26035	,	-24410	,	-0.20140445	,	0
12,47	,	118211	,	-26036	,	-24405	,	-1.8794054	,	0
12,47	,	118227	,	-26039	,	-24445	,	-3.401421	,	0
12,47	,	118260	,	-26047	,	-24394	,	-4.704868	,	0
12,47	,	118276	,	-26051	,	-24412	,	-5.8503923	,	0
12,47	,	118292	,	-26054	,	-24409	,	-6.9419227	,	0
12,47	,	118323	,	-26051	,	-24415	,	-7.986781	,	0
12,47	,	118340	,	-26053	,	-24410	,	-8.847502	,	0
12,47	,	118356	,	-26051	,	-24418	,	-9.340881	,	0
12,47	,	118387	,	-26073	,	-24419	,	-9.452874	,	0
12,47	,	118404	,	-26078	,	-24423	,	-9.489172	,	0
12,47	,	118435	,	-26075	,	-24431	,	-9.819292	,	0
12,47	,	118451	,	-26073	,	-24426	,	-10.465487	,	0
12,47	,	118467	,	-26087	,	-24444	,	-11.190163	,	0
12,47	,	118500	,	-26078	,	-24428	,	-11.810978	,	0
12,47	,	118515	,	-26102	,	-24450	,	-12.276365	,	0
12,47	,	118531	,	-26090	,	-24438	,	-12.6485	,	0
12,47	,	118563	,	-26100	,	-24441	,	-12.968463	,	0
12,47	,	118579	,	-26107	,	-24450	,	-13.205933	,	0
12,47	,	118611	,	-26106	,	-24450	,	-13.385055	,	0
12,48	,	118627	,	-26105	,	-24450	,	-13.492342	,	0
12,48	,	118643	,	-26089	,	-24433	,	-13.305846	,	0
12,48	,	118675	,	-26090	,	-24447	,	-12.4622555	,	0
12,48	,	118691	,	-26084	,	-24436	,	-10.727095	,	0
12,48	,	118708	,	-26066	,	-24443	,	-8.077858	,	1
12,48	,	118739	,	-26067	,	-24433	,	-4.5648932	,	3
12,48	,	118755	,	-26067	,	-24440	,	-0.4199152	,	6
12,48	,	118787	,	-26056	,	-24442	,	3.887366	,	10
12,48	,	118803	,	-26068	,	-24431	,	7.8573613	,	14
12,48	,	118819	,	-26052	,	-24440	,	11.075831	,	17
12,48	,	118851	,	-26050	,	-24435	,	13.3525095	,	20
12,48	,	118867	,	-26065	,	-24431	,	14.680291	,	22
12,48	,	118883	,	-26067	,	-24424	,	14.938589	,	23
12,48	,	118915	,	-26059	,	-24425	,	14.020434	,	22
12,48	,	118931	,	-26058	,	-24428	,	12.160122	,	20
12,48	,	118947	,	-26046	,	-24429	,	9.875038	,	17
12,48	,	118979	,	-26047	,	-24433	,	7.7330537	,	13
12,48	,	118995	,	-26057	,	-24437	,	6.0791106	,	9
12,48	,	119027	,	-26045	,	-24424	,	4.9169517	,	6
12,48	,	119043	,	-26049	,	-24423	,	4.1462717	,	3
12,48	,	119059	,	-26053	,	-24420	,	3.6735392	,	1
12,48	,	119091	,	-26042	,	-24422	,	3.3723269	,	0
12,48	,	119107	,	-26058	,	-24436	,	3.1440673	,	0
12,48	,	119123	,	-26050	,	-24440	,	2.866829	,	0
12,48	,	119155	,	-26059	,	-24437	,	2.4028726	,	0
12,48	,	119171	,	-26060	,	-24447	,	1.6859717	,	0
12,48	,	119203	,	-26073	,	-24423	,	0.65303516	,	0
12,48	,	119219	,	-26066	,	-24429	,	-0.7530812	,	0
12,48	,	119235	,	-26069	,	-24430	,	-2.4241583	,	0
12,48	,	119267	,	-26068	,	-24435	,	-4.0793705	,	0
12,48	,	119283	,	-26073	,	-24444	,	-5.460168	,	0
12,48	,	119299	,	-26081	,	-24435	,	-6.49035	,	0
12,48	,	119331	,	-26072	,	-24426	,	-7.224466	,	0
12,48	,	119347	,	-26083	,	-24438	,	-7.685416	,	0
12,48	,	119363	,	-26082	,	-24440	,	-7.8918333	,	0
12,48	,	119395	,	-26087	,	-24434	,	-7.9282675	,	0
12,48	,	119411	,	-26093	,	-24451	,	-7.9021583	,	0
12,48	,	119443	,	-26082	,	-24430	,	-7.870682	,	0
12,48	,	119459	,	-26088	,	-24434	,	-7.7486773	,	0
12,48	,	119475	,	-26089	,	-24449	,	-7.4172125	,	0
12,48	,	119507	,	-26097	,	-24445	,	-6.918332	,	0
12,48	,	119523	,	-26108	,	-24448	,	-6.473853	,	0
12,48	,	119539	,	-26114	,	-24442	,	-6.399739	,	0
12,48	,	119571	,	-26117	,	-24442	,	-6.923131	,	0
12,48	,	119588	,	-26115	,	-24430	,	-7.9990406	,	0
12,48	,	119619	,	-26107	,	-24435	,	-9.27975	,	0
12,49	,	119635	,	-26097	,	-24440	,	-10.216151	,	0
12,49	,	119651	,	-26089	,	-24439	,	-10.248259	,	0
12,49	,	119683	,	-26081	,	-24424	,	-9.012966	,	0
12,49	,	119699	,	-26057	,	-24433	,	-6.3667564	,	1
12,49	,	119715	,	-26051	,	-24423	,	-2.2826238	,	3
12,49	,	119747	,	-26042	,	-24424	,	3.0475678	,	7
12,49	,	119763	,	-26059	,	-24424	,	8.98748	,	12
12,49	,	119779	,	-26046	,	-24429	,	14.546227	,	17
12,49	,	119811	,	-26037	,	-24423	,	18.917131	,	22
12,49	,	119827	,	-26029	,	-24417	,	21.869682	,	26
12,49	,	119859	,	-26041	,	-24428	,	23.486715	,	28
12,49	,	119875	,	-26027	,	-24420	,	23.824738	,	29
12,49	,	119891	,	-26036	,	-24432	,	22.984447	,	28
12,49	,	119923	,	-26025	,	-24406	,	21.199764	,	26
12,49	,	119939	,	-26018	,	-24413	,	18.837826	,	22
12,49	,	119955	,	-26019	,	-24416	,	16.359043	,	17
12,49	,	119987	,	-26005	,	-24409	,	14.166474	,	12
12,49	,	120003	,	-26011	,	-24416	,	12.518415	,	7
12,49	,	120035	,	-26012	,	-24400	,	11.433329	,	3
12,49	,	120051	,	-26009	,	-24395	,	10.688447	,	1
12,49	,	120067	,	-26011	,	-24394	,	10.036248	,	0
12,49	,	120099	,	-26011	,	-24406	,	9.306802	,	0
12,49	,	120115	,	-26015	,	-24407	,	8.381067	,	0
12,49	,	120131	,	-26014	,	-24419	,	7.2070475	,	0
12,49	,	120163	,	-26012	,	-24395	,	5.8354473	,	0
12,49	,	120179	,	-26013	,	-24417	,	4.401436	,	0
12,49	,	120195	,	-26020	,	-24404	,	3.010051	,	0
12,49	,	120227	,	-26015	,	-24403	,	1.6796734	,	0
12,49	,	120243	,	-26032	,	-24410	,	0.37687182	,	0
12,49	,	120275	,	-26026	,	-24405	,	-0.9789722	,	0
12,49	,	120291	,	-26028	,	-24412	,	-2.4072318	,	0
12,49	,	120307	,	-26033	,	-24413	,	-3.797856	,	0
12,49	,	120338	,	-26038	,	-24399	,	-5.0672464	,	0
12,49	,	120355	,	-26042	,	-24414	,	-6.2309628	,	0
12,49	,	120371	,	-26043	,	-24427	,	-7.3140135	,	0
12,49	,	120403	,	-26044	,	-24392	,	-8.272888	,	0
12,49	,	120419	,	-26065	,	-24410	,	-9.097651	,	0
12,49	,	120451	,	-26057	,	-24417	,	-9.928376	,	0
12,49	,	120467	,	-26067	,	-24429	,	-10.864918	,	0
12,49	,	120483	,	-26063	,	-24413	,	-11.81868	,	0
12,49	,	120514	,	-26063	,	-24422	,	-12.589028	,	0
12,49	,	120531	,	-26073	,	-24421	,	-12.986183	,	0
12,49	,	120547	,	-26073	,	-24423	,	-12.982528	,	0
12,49	,	120578	,	-26081	,	-24429	,	-12.704295	,	0
12,49	,	120594	,	-26084	,	-24423	,	-12.318552	,	0
12,49	,	120610	,	-26065	,	-24444	,	-11.8699665	,	0
12,50	,	120643	,	-26058	,	-24405	,	-11.083727	,	0
12,50	,	120658	,	-26032	,	-24420	,	-9.439661	,	0
12,50	,	120691	,	-26035	,	-24412	,	-6.501027	,	1
12,50	,	120707	,	-26036	,	-24420	,	-2.308249	,	3
12,50	,	120722	,	-26028	,	-24410	,	2.5589194	,	7
12,50	,	120755	,	-26022	,	-24412	,	7.412402	,	11
12,50	,	120771	,	-26020	,	-24407	,	11.757207	,	15
12,50	,	120787	,	-26015	,	-24406	,	15.264389	,	19
12,50	,	120818	,	-26024	,	-24416	,	17.68747	,	22
12,50	,	120834	,	-26019	,	-24420	,	18.8237	,	24
12,50	,	120866	,	-26025	,	-24425	,	18.60455	,	25
12,50	,	120883	,	-26016	,	-24398	,	17.193092	,	24
12,50	,	120899	,	-26013	,	-24412	,	14.977286	,	22
12,50	,	120931	,	-26015	,	-24406	,	12.439053	,	18
12,50	,	120947	,	-26012	,	-24408	,	9.94943	,	14
12,50	,	120963	,	-26011	,	-24410	,	7.729924	,	10
12,50	,	120995	,	-26019	,	-24407	,	5.8813305	,	6
12,50	,	121010	,	-25997	,	-24404	,	4.440761	,	3
12,50	,	121042	,	-26016	,	-24408	,	3.4823112	,	1
12,50	,	121058	,	-26031	,	-24405	,	2.8655229	,	0
12,50	,	121074	,	-26023	,	-24422	,	2.13019	,	0
12,50	,	121106	,	-26025	,	-24431	,	0.999702	,	0
12,50	,	121122	,	-26033	,	-24395	,	-0.44191194	,	0
12,50	,	121138	,	-26028	,	-24420	,	-2.0341547	,	0
12,50	,	121170	,	-26052	,	-24427	,	-3.6960166	,	0
12,50	,	121186	,	-26049	,	-24419	,	-5.4948645	,	0
12,50	,	121202	,	-26056	,	-24420	,	-7.5072045	,	0
12,50	,	121234	,	-26044	,	-24425	,	-9.554024	,	0
12,50	,	121251	,	-26048	,	-24428	,	-11.219398	,	0
12,50	,	121282	,	-26054	,	-24427	,	-12.1617	,	0
12,50	,	121298	,	-26049	,	-24431	,	-12.324141	,	0
12,50	,	121314	,	-26054	,	-24429	,	-11.80998	,	0
12,50	,	121346	,	-26070	,	-24443	,	-10.847839	,	0
12,50	,	121362	,	-26059	,	-24425	,	-9.8137665	,	0
12,50	,	121378	,	-26067	,	-24443	,	-8.960324	,	1
12,50	,	121410	,	-26073	,	-24434	,	-8.34907	,	1
12,50	,	121426	,	-26063	,	-24428	,	-7.9874153	,	1
12,50	,	121458	,	-26081	,	-24445	,	-7.819797	,	1
12,50	,	121474	,	-26090	,	-24440	,	-7.8823957	,	1
12,50	,	121490	,	-26089	,	-24431	,	-8.347794	,	1
12,50	,	121522	,	-26087	,	-24433	,	-9.202141	,	1
12,50	,	121538	,	-26087	,	-24445	,	-10.145799	,	1
12,50	,	121554	,	-26089	,	-24437	,	-10.8336935	,	1
12,50	,	121586	,	-26064	,	-24438	,	-10.946775	,	0
12,50	,	121602	,	-26056	,	-24419	,	-10.058216	,	0
12,50	,	121618	,	-26035	,	-24425	,	-7.7290945	,	0
12,51	,	121650	,	-26041	,	-24423	,	-3.8347607	,	2
12,51	,	121666	,	-26039	,	-24419	,	1.200624	,	5
12,51	,	121698	,	-26039	,	-24430	,	6.529163	,	10
12,51	,	121714	,	-26040	,	-24431	,	11.278475	,	15
12,51	,	121730	,	-26051	,	-24424	,	14.758426	,	19
12,51	,	121762	,	-26044	,	-24426	,	16.518427	,	22
12,51	,	121778	,	-26045	,	-24428	,	16.49972	,	23
12,51	,	121794	,	-26046	,	-24430	,	15.024227	,	23
12,51	,	121826	,	-26035	,	-24425	,	12.619081	,	23
12,51	,	121842	,	-26046	,	-24420	,	9.861058	,	21
12,51	,	121874	,	-26039	,	-24421	,	7.1793604	,	18
12,51	,	121890	,	-26044	,	-24423	,	4.8013306	,	13
12,51	,	121906	,	-26043	,	-24428	,	2.8400779	,	8
12,51	,	121938	,	-26036	,	-24422	,	1.3531969	,	4
12,51	,	121954	,	-26054	,	-24419	,	0.3235786	,	1
12,51	,	121970	,	-26052	,	-24430	,	-0.4523623	,	0
12,51	,	122002	,	-26052	,	-24424	,	-1.2336917	,	0
12,51	,	122018	,	-26057	,	-24429	,	-2.1022682	,	0
12,51	,	122034	,	-26050	,	-24436	,	-2.9899988	,	0
12,51	,	122066	,	-26054	,	-24420	,	-3.7516103	,	0
12,51	,	122082	,	-26066	,	-24429	,	-4.308556	,	0
12,51	,	122114	,	-26068	,	-24437	,	-4.80147	,	0
12,51	,	122130	,	-26067	,	-24435	,	-5.412917	,	0
12,51	,	122146	,	-26066	,	-24436	,	-6.1220994	,	0
12,51	,	122178	,	-26076	,	-24425	,	-6.789116	,	0
12,51	,	122194	,	-26072	,	-24431	,	-7.3446026	,	0
12,51	,	122210	,	-26074	,	-24430	,	-7.7549653	,	0
12,51	,	122242	,	-26082	,	-24439	,	-7.98213	,	0
12,51	,	122258	,	-26088	,	-24439	,	-8.099247	,	0
12,51	,	122290	,	-26083	,	-24449	,	-8.241453	,	0
12,51	,	122306	,	-26094	,	-24435	,	-8.448307	,	0
12,51	,	122322	,	-26092	,	-24445	,	-8.704424	,	0
12,51	,	122354	,	-26108	,	-24442	,	-9.046089	,	0
12,51	,	122370	,	-26099	,	-24441	,	-9.533197	,	0
12,51	,	122386	,	-26099	,	-24448	,	-10.082079	,	0
12,51	,	122418	,	-26108	,	-24442	,	-10.4792595	,	0
12,51	,	122434	,	-26123	,	-24462	,	-10.703612	,	0
12,51	,	122450	,	-26118	,	-24454	,	-10.9723625	,	0
12,51	,	122482	,	-26115	,	-24456	,	-11.359525	,	0
12,51	,	122498	,	-26103	,	-24450	,	-11.587209	,	0
12,51	,	122530	,	-26090	,	-24455	,	-11.168066	,	0
12,51	,	122546	,	-26087	,	-24434	,	-9.667757	,	0
12,51	,	122562	,	-26072	,	-24437	,	-6.914718	,	1
12,51	,	122594	,	-26070	,	-24430	,	-3.025364	,	3
12,51	,	122610	,	-26068	,	-24435	,	1.6216288	,	6
12,52	,	122626	,	-26068	,	-24422	,	6.4168134	,	10
12,52	,	122658	,	-26075	,	-24430	,	10.660365	,	14
12,52	,	122674	,	-26068	,	-24431	,	13.757805	,	18
12,52	,	122706	,	-26065	,	-24435	,	15.443165	,	21
12,52	,	122722	,	-26065	,	-24430	,	15.820007	,	22
12,52	,	122738	,	-26065	,	-24429	,	15.153702	,	22
12,52	,	122770	,	-26066	,	-24442	,	13.715019	,	21
12,52	,	122786	,	-26062	,	-24414	,	11.772211	,	19
12,52	,	122802	,	-26066	,	-24430	,	9.60107	,	16
12,52	,	122834	,	-26063	,	-24429	,	7.435298	,	12
12,52	,	122850	,	-26053	,	-24431	,	5.485171	,	8
12,52	,	122866	,	-26059	,	-24426	,	3.9745064	,	4
12,52	,	122898	,	-26054	,	-24432	,	3.0151322	,	1
12,52	,	122914	,	-26062	,	-24439	,	2.525031	,	0
12,52	,	122946	,	-26065	,	-24429	,	2.2755551	,	0
12,52	,	122962	,	-26061	,	-24443	,	2.0116482	,	0
12,52	,	122978	,	-26080	,	-24440	,	1.5397965	,	0
12,52	,	123010	,	-26077	,	-24456	,	0.6676794	,	0
12,52	,	123026	,	-26090	,	-24425	,	-0.7564982	,	0
12,52	,	123041	,	-26083	,	-24435	,	-2.702822	,	0
12,52	,	123074	,	-26090	,	-24448	,	-4.9271317	,	0
12,52	,	123090	,	-26105	,	-24450	,	-7.1573706	,	0
12,52	,	123122	,	-26098	,	-24445	,	-9.279517	,	0
12,52	,	123138	,	-26105	,	-24446	,	-11.188811	,	0
12,52	,	123154	,	-26104	,	-24447	,	-12.692596	,	0
12,52	,	123186	,	-26101	,	-24450	,	-13.606281	,	0
12,52	,	123202	,	-26109	,	-24443	,	-13.815337	,	0
12,52	,	123217	,	-26103	,	-24439	,	-13.346558	,	0
12,52	,	123250	,	-26110	,	-24454	,	-12.338152	,	0
12,52	,	123266	,	-26110	,	-24431	,	-10.976301	,	1
12,52	,	123282	,	-26127	,	-24456	,	-9.549637	,	2
12,52	,	123313	,	-26136	,	-24457	,	-8.488317	,	3
12,52	,	123330	,	-26124	,	-24453	,	-8.12488	,	4
12,52	,	123362	,	-26144	,	-24458	,	-8.437508	,	4
12,52	,	123377	,	-26138	,	-24452	,	-9.234275	,	4
12,52	,	123393	,	-26134	,	-24453	,	-10.268785	,	4
12,52	,	123426	,	-26151	,	-24454	,	-11.225498	,	4
12,52	,	123442	,	-26167	,	-24466	,	-12.048609	,	4
12,52	,	123458	,	-26141	,	-24451	,	-12.87978	,	3
12,52	,	123490	,	-26129	,	-24467	,	-13.437916	,	2
12,52	,	123506	,	-26122	,	-24440	,	-13.02377	,	1
12,52	,	123537	,	-26096	,	-24442	,	-11.055729	,	0
12,52	,	123554	,	-26105	,	-24454	,	-7.3353214	,	1
12,52	,	123569	,	-26108	,	-24445	,	-2.2555556	,	4
12,52	,	123601	,	-26106	,	-24444	,	3.2380357	,	9
12,52	,	123617	,	-26113	,	-24452	,	8.141932	,	14
12,53	,	123634	,	-26096	,	-24439	,	11.810997	,	18
12,53	,	123666	,	-26099	,	-24441	,	14.097406	,	21
12,53	,	123682	,	-26117	,	-24433	,	15.0742035	,	23
12,53	,	123713	,	-26115	,	-24448	,	14.679668	,	23
12,53	,	123729	,	-26107	,	-24468	,	12.951603	,	23
12,53	,	123745	,	-26114	,	-24427	,	10.298582	,	22
12,53	,	123778	,	-26109	,	-24444	,	7.260832	,	19
12,53	,	123794	,	-26103	,	-24441	,	4.3195043	,	14
12,53	,	123810	,	-26093	,	-24444	,	1.9564176	,	9
12,53	,	123842	,	-26101	,	-24447	,	0.54460526	,	5
12,53	,	123858	,	-26105	,	-24448	,	0.07908809	,	2
12,53	,	123873	,	-26106	,	-24441	,	0.20000184	,	0
12,53	,	123905	,	-26100	,	-24448	,	0.5377524	,	0
12,53	,	123921	,	-26106	,	-24446	,	0.9003504	,	0
12,53	,	123953	,	-26114	,	-24449	,	1.1317309	,	0
12,53	,	123970	,	-26115	,	-24466	,	1.0118616	,	0
12,53	,	123986	,	-26123	,	-24432	,	0.37645164	,	0
12,53	,	124017	,	-26126	,	-24453	,	-0.80609024	,	0
12,53	,	124033	,	-26128	,	-24453	,	-2.4450283	,	0
12,53	,	124049	,	-26130	,	-24449	,	-4.3296485	,	0
12,53	,	124081	,	-26131	,	-24447	,	-6.1880856	,	0
12,53	,	124097	,	-26142	,	-24442	,	-7.8178225	,	0
12,53	,	124129	,	-26136	,	-24452	,	-9.145802	,	0
12,53	,	124145	,	-26140	,	-24452	,	-10.113126	,	0
12,53	,	124161	,	-26142	,	-24452	,	-10.634942	,	0
12,53	,	124194	,	-26147	,	-24446	,	-10.722167	,	0
12,53	,	124210	,	-26146	,	-24459	,	-10.488211	,	0
12,53	,	124225	,	-26158	,	-24455	,	-10.086649	,	0
12,53	,	124257	,	-26162	,	-24452	,	-9.730267	,	0
12,53	,	124273	,	-26160	,	-24464	,	-9.60001	,	0
12,53	,	124289	,	-26168	,	-24464	,	-9.707218	,	0
12,53	,	124321	,	-26180	,	-24459	,	-10.0248375	,	0
12,53	,	124337	,	-26165	,	-24461	,	-10.541715	,	0
12,53	,	124369	,	-26178	,	-24471	,	-11.088078	,	0
12,53	,	124385	,	-26154	,	-24458	,	-11.347946	,	0
12,53	,	124401	,	-26136	,	-24464	,	-10.846897	,	0
12,53	,	124433	,	-26132	,	-24460	,	-9.019018	,	0
12,53	,	124449	,	-26130	,	-24465	,	-5.673544	,	1
12,53	,	124465	,	-26126	,	-24443	,	-1.2023392	,	4
12,53	,	124497	,	-26116	,	-24443	,	3.747723	,	8
12,53	,	124513	,	-26118	,	-24448	,	8.57982	,	12
12,53	,	124545	,	-26117	,	-24442	,	12.775696	,	16
12,53	,	124561	,	-26125	,	-24437	,	15.861755	,	20
12,53	,	124577	,	-26117	,	-24430	,	17.508228	,	23
12,53	,	124609	,	-26116	,	-24445	,	17.695435	,	24
12,54	,	124625	,	-26121	,	-24445	,	16.679005	,	24
12,54	,	124641	,	-26122	,	-24437	,	14.76287	,	23
12,54	,	124673	,	-26113	,	-24439	,	12.257802	,	20
12,54	,	124689	,	-26116	,	-24450	,	9.557953	,	16
12,54	,	124705	,	-26112	,	-24446	,	7.0380974	,	12
12,54	,	124737	,	-26104	,	-24435	,	4.980462	,	8
12,54	,	124753	,	-26105	,	-24431	,	3.607112	,	4
12,54	,	124785	,	-26117	,	-24431	,	2.9315202	,	1
12,54	,	124801	,	-26125	,	-24439	,	2.6073325	,	0
12,54	,	124817	,	-26121	,	-24433	,	2.1640468	,	0
12,54	,	124849	,	-26124	,	-24437	,	1.3762337	,	0
12,54	,	124865	,	-26122	,	-24443	,	0.30654526	,	0
12,54	,	124881	,	-26128	,	-24438	,	-0.8812362	,	0
12,54	,	124913	,	-26123	,	-24438	,	-2.0342953	,	0
12,54	,	124929	,	-26118	,	-24456	,	-2.976509	,	0
12,54	,	124961	,	-26129	,	-24432	,	-3.54709	,	0
12,54	,	124977	,	-26135	,	-24432	,	-3.8017273	,	0
12,54	,	124993	,	-26132	,	-24442	,	-3.975456	,	0
12,54	,	125025	,	-26131	,	-24447	,	-4.1866217	,	0
12,54	,	125041	,	-26134	,	-24443	,	-4.375974	,	0
12,54	,	125057	,	-26148	,	-24445	,	-4.541303	,	0
12,54	,	125089	,	-26152	,	-24449	,	-4.8797197	,	0
12,54	,	125105	,	-26143	,	-24445	,	-5.5534806	,	0
12,54	,	125121	,	-26154	,	-24438	,	-6.448438	,	0
12,54	,	125153	,	-26145	,	-24460	,	-7.3176703	,	0
12,54	,	125169	,	-26151	,	-24459	,	-7.9453473	,	0
12,54	,	125201	,	-26155	,	-24452	,	-8.212372	,	0
12,54	,	125217	,	-26173	,	-24452	,	-8.246614	,	0
12,54	,	125233	,	-26166	,	-24451	,	-8.3628025	,	0
12,54	,	125265	,	-26161	,	-24451	,	-8.6794405	,	0
12,54	,	125281	,	-26147	,	-24458	,	-8.898872	,	0
12,54	,	125297	,	-26134	,	-24436	,	-8.480183	,	0
12,54	,	125329	,	-26121	,	-24446	,	-6.9143624	,	0
12,54	,	125345	,	-26115	,	-24431	,	-3.9524565	,	1
12,54	,	125377	,	-26117	,	-24443	,	0.2151947	,	3
12,54	,	125393	,	-26098	,	-24435	,	5.053008	,	7
12,54	,	125409	,	-26099	,	-24440	,	10.014669	,	11
12,54	,	125441	,	-26099	,	-24428	,	14.618678	,	15
12,54	,	125457	,	-26090	,	-24431	,	18.386642	,	19
12,54	,	125473	,	-26090	,	-24425	,	21.001408	,	22
12,54	,	125505	,	-26082	,	-24421	,	22.39899	,	24
12,54	,	125521	,	-26093	,	-24422	,	22.64376	,	25
12,54	,	125537	,	-26087	,	-24420	,	21.792692	,	24
12,54	,	125569	,	-26091	,	-24427	,	19.935387	,	22
12,54	,	125585	,	-26083	,	-24418	,	17.313004	,	18
12,54	,	125617	,	-26077	,	-24424	,	14.342992	,	14
12,55	,	125633	,	-26074	,	-24428	,	11.524846	,	10
12,55	,	125649	,	-26075	,	-24415	,	9.229504	,	6
12,55	,	125681	,	-26074	,	-24415	,	7.56179	,	3
12,55	,	125697	,	-26077	,	-24432	,	6.4160657	,	1
12,55	,	125713	,	-26074	,	-24427	,	5.606437	,	0
12,55	,	125745	,	-26074	,	-24415	,	4.977853	,	0
12,55	,	125761	,	-26079	,	-24420	,	4.420064	,	0
12,55	,	125793	,	-26087	,	-24424	,	3.7800796	,	0
12,55	,	125809	,	-26084	,	-24421	,	2.8777852	,	0
12,55	,	125826	,	-26084	,	-24410	,	1.6816885	,	0
12,55	,	125857	,	-26089	,	-24415	,	0.3322364	,	0
12,55	,	125873	,	-26081	,	-24423	,	-0.9919857	,	0
12,55	,	125889	,	-26083	,	-24414	,	-2.094872	,	0
12,55	,	125921	,	-26089	,	-24414	,	-2.8304613	,	0
12,55	,	125937	,	-26091	,	-24418	,	-3.2398343	,	0
12,55	,	125953	,	-26097	,	-24429	,	-3.504857	,	0
12,55	,	125984	,	-26099	,	-24421	,	-3.8173387	,	0
12,55	,	126001	,	-26109	,	-24422	,	-4.327977	,	0
12,55	,	126032	,	-26111	,	-24417	,	-5.1428328	,	0
12,55	,	126048	,	-26113	,	-24420	,	-6.2685876	,	0
12,55	,	126065	,	-26118	,	-24428	,	-7.5812683	,	0
12,55	,	126096	,	-26126	,	-24425	,	-8.944052	,	0
12,55	,	126113	,	-26130	,	-24439	,	-10.298651	,	0
12,55	,	126129	,	-26130	,	-24423	,	-11.586768	,	0
12,55	,	126161	,	-26126	,	-24439	,	-12.639135	,	0
12,55	,	126177	,	-26137	,	-24444	,	-13.245777	,	0
12,55	,	126209	,	-26143	,	-24440	,	-13.384627	,	0
12,55	,	126225	,	-26141	,	-24444	,	-13.223972	,	0
12,55	,	126241	,	-26129	,	-24432	,	-12.816797	,	0
12,55	,	126273	,	-26112	,	-24442	,	-11.894609	,	0
12,55	,	126288	,	-26103	,	-24424	,	-10.001622	,	0
12,55	,	126304	,	-26089	,	-24430	,	-6.817864	,	1
12,55	,	126337	,	-26094	,	-24426	,	-2.4087715	,	4
12,55	,	126352	,	-26096	,	-24433	,	2.68256	,	8
12,55	,	126368	,	-26082	,	-24412	,	7.6714883	,	13
12,55	,	126400	,	-26086	,	-24423	,	11.961438	,	17
12,55	,	126417	,	-26068	,	-24420	,	15.288671	,	21
12,55	,	126449	,	-26068	,	-24442	,	17.662624	,	24
12,55	,	126465	,	-26076	,	-24428	,	19.158989	,	26
12,55	,	126481	,	-26081	,	-24431	,	19.662191	,	27
12,55	,	126512	,	-26078	,	-24418	,	18.991753	,	26
12,55	,	126528	,	-26080	,	-24415	,	17.190023	,	23
12,55	,	126544	,	-26075	,	-24429	,	14.558665	,	19
12,55	,	126576	,	-26063	,	-24422	,	11.59373	,	14
12,55	,	126593	,	-26062	,	-24418	,	8.8907995	,	10
12,56	,	126625	,	-26063	,	-24402	,	6.8843837	,	6
12,56	,	126641	,	-26061	,	-24417	,	5.662295	,	3
12,56	,	126657	,	-26075	,	-24420	,	5.00806	,	1
12,56	,	126688	,	-26064	,	-24419	,	4.5572376	,	0
12,56	,	126704	,	-26070	,	-24418	,	4.0574355	,	0
12,56	,	126720	,	-26078	,	-24426	,	3.4127765	,	0
12,56	,	126752	,	-26074	,	-24418	,	2.5390632	,	0
12,56	,	126768	,	-26075	,	-24418	,	1.437742	,	0
12,56	,	126800	,	-26084	,	-24420	,	0.2061559	,	0
12,56	,	126816	,	-26095	,	-24407	,	-1.1685352	,	0
12,56	,	126832	,	-26091	,	-24438	,	-2.7904189	,	0
12,56	,	126864	,	-26091	,	-24412	,	-4.597463	,	0
12,56	,	126880	,	-26095	,	-24417	,	-6.330185	,	0
12,56	,	126896	,	-26094	,	-24429	,	-7.737917	,	0
12,56	,	126928	,	-26111	,	-24436	,	-8.742143	,	0
12,56	,	126944	,	-26112	,	-24426	,	-9.497843	,	0
12,56	,	126960	,	-26109	,	-24425	,	-10.193364	,	0
12,56	,	126992	,	-26114	,	-24440	,	-10.8066225	,	0
12,56	,	127009	,	-26110	,	-24433	,	-11.189695	,	0
12,56	,	127040	,	-26106	,	-24443	,	-11.185434	,	0
12,56	,	127056	,	-26111	,	-24443	,	-10.666504	,	0
12,56	,	127072	,	-26134	,	-24467	,	-9.757738	,	0
12,56	,	127104	,	-26121	,	-24431	,	-8.874177	,	0
12,56	,	127120	,	-26129	,	-24440	,	-8.306317	,	0
12,56	,	127136	,	-26120	,	-24445	,	-8.007488	,	0
12,56	,	127168	,	-26110	,	-24432	,	-7.7127104	,	0
12,56	,	127184	,	-26106	,	-24422	,	-7.036865	,	0
12,56	,	127216	,	-26083	,	-24426	,	-5.5878525	,	0
12,56	,	127232	,	-26089	,	-24432	,	-3.1049378	,	1
12,56	,	127248	,	-26085	,	-24423	,	0.3153193	,	3
12,56	,	127280	,	-26079	,	-24433	,	4.200821	,	6
12,56	,	127296	,	-26085	,	-24430	,	7.983698	,	9
12,56	,	127312	,	-26082	,	-24439	,	11.13456	,	12
12,56	,	127344	,	-26079	,	-24405	,	13.266249	,	15
12,56	,	127360	,	-26081	,	-24427	,	14.256712	,	17
12,56	,	127376	,	-26087	,	-24422	,	14.1498995	,	17
12,56	,	127408	,	-26094	,	-24420	,	13.0011835	,	17
12,56	,	127424	,	-26079	,	-24428	,	10.958698	,	16
12,56	,	127456	,	-26076	,	-24427	,	8.458984	,	14
12,56	,	127472	,	-26064	,	-24424	,	6.1461554	,	11
12,56	,	127488	,	-26082	,	-24427	,	4.4902625	,	8
12,56	,	127520	,	-26070	,	-24417	,	3.5324752	,	5
12,56	,	127536	,	-26069	,	-24421	,	3.0980694	,	2
12,56	,	127552	,	-26077	,	-24438	,	3.0311162	,	0
12,56	,	127584	,	-26078	,	-24411	,	3.1000233	,	0
12,56	,	127600	,	-26074	,	-24421	,	3.0501354	,	0
12,57	,	127632	,	-26080	,	-24435	,	2.7754998	,	0
12,57	,	127648	,	-26084	,	-24428	,	2.2487352	,	0
12,57	,	127664	,	-26078	,	-24425	,	1.4608692	,	0
12,57	,	127696	,	-26090	,	-24422	,	0.46508968	,	0
12,57	,	127712	,	-26083	,	-24429	,	-0.6571896	,	0
12,57	,	127728	,	-26090	,	-24424	,	-1.8024007	,	0
12,57	,	127760	,	-26087	,	-24435	,	-2.845992	,	0
12,57	,	127776	,	-26088	,	-24433	,	-3.6840918	,	0
12,57	,	127792	,	-26086	,	-24455	,	-4.2257385	,	0
12,57	,	127824	,	-26104	,	-24419	,	-4.490173	,	0
12,57	,	127840	,	-26112	,	-24436	,	-4.75521	,	0
12,57	,	127872	,	-26110	,	-24447	,	-5.378772	,	0
12,57	,	127888	,	-26113	,	-24448	,	-6.445471	,	0
12,57	,	127904	,	-26128	,	-24436	,	-7.8178434	,	0
12,57	,	127936	,	-26118	,	-24441	,	-9.361583	,	0
12,57	,	127952	,	-26133	,	-24451	,	-10.910351	,	0
12,57	,	127968	,	-26129	,	-24451	,	-12.2788925	,	0
12,57	,	128000	,	-26137	,	-24450	,	-13.346224	,	0
12,57	,	128016	,	-26138	,	-24446	,	-14.045908	,	0
12,57	,	128048	,	-26149	,	-24478	,	-14.400696	,	0
12,57	,	128064	,	-26130	,	-24452	,	-14.440708	,	0
12,57	,	128080	,	-26111	,	-24437	,	-13.90565	,	0
12,57	,	128112	,	-26101	,	-24438	,	-12.230489	,	0
12,57	,	128128	,	-26095	,	-24442	,	-9.0186205	,	1
12,57	,	128144	,	-26097	,	-24443	,	-4.425783	,	4
12,57	,	128176	,	-26095	,	-24431	,	0.894413	,	8
12,57	,	128192	,	-26098	,	-24432	,	6.087844	,	13
12,57	,	128208	,	-26087	,	-24434	,	10.441815	,	18
12,57	,	128240	,	-26094	,	-24436	,	13.579293	,	22
12,57	,	128256	,	-26089	,	-24431	,	15.380699	,	25
12,57	,	128288	,	-26086	,	-24448	,	15.90074	,	26
12,57	,	128304	,	-26086	,	-24426	,	15.375674	,	26
