Data recorded on Fri Jun 23 11:48:54 CAT 2017
Time: 11:49:2
Time		Millis		IR PPG		Red PPG		Filtered		SSF
49,6	,	45797	,	-30168	,	-28350	,	-3.7350466	,	0
49,6	,	45813	,	-30182	,	-28352	,	-3.74814	,	0
49,6	,	45830	,	-30180	,	-28352	,	-4.189112	,	0
49,6	,	45861	,	-30193	,	-28354	,	-5.093109	,	0
49,6	,	45877	,	-30174	,	-28360	,	-6.3489017	,	0
49,6	,	45909	,	-30169	,	-28337	,	-7.540289	,	0
49,6	,	45925	,	-30156	,	-28346	,	-8.038296	,	0
49,6	,	45941	,	-30167	,	-28339	,	-7.4157968	,	0
49,6	,	45973	,	-30142	,	-28341	,	-5.6497383	,	0
49,6	,	45989	,	-30147	,	-28339	,	-2.9025042	,	1
49,6	,	46021	,	-30143	,	-28332	,	0.5491588	,	3
49,6	,	46037	,	-30145	,	-28341	,	4.2180486	,	6
49,6	,	46053	,	-30132	,	-28330	,	7.6020455	,	9
49,6	,	46085	,	-30143	,	-28338	,	10.378652	,	12
49,6	,	46101	,	-30130	,	-28337	,	12.348581	,	14
49,6	,	46117	,	-30136	,	-28340	,	13.431816	,	15
49,6	,	46149	,	-30150	,	-28343	,	13.589302	,	16
49,6	,	46165	,	-30145	,	-28327	,	12.711685	,	16
49,6	,	46182	,	-30141	,	-28335	,	10.862532	,	15
49,6	,	46213	,	-30136	,	-28329	,	8.454849	,	13
49,6	,	46229	,	-30131	,	-28326	,	6.046188	,	10
49,6	,	46261	,	-30125	,	-28335	,	4.1230536	,	7
49,6	,	46277	,	-30126	,	-28340	,	2.9798653	,	4
49,6	,	46293	,	-30124	,	-28334	,	2.6431932	,	2
49,6	,	46326	,	-30122	,	-28328	,	2.9358397	,	1
49,6	,	46341	,	-30120	,	-28331	,	3.626299	,	0
49,6	,	46357	,	-30120	,	-28326	,	4.493833	,	0
49,6	,	46389	,	-30127	,	-28333	,	5.293696	,	0
49,6	,	46405	,	-30131	,	-28317	,	5.7356725	,	0
49,6	,	46437	,	-30134	,	-28325	,	5.5693507	,	0
49,6	,	46453	,	-30137	,	-28327	,	4.6977983	,	0
49,6	,	46469	,	-30127	,	-28351	,	3.250424	,	0
49,6	,	46501	,	-30120	,	-28319	,	1.6230927	,	0
49,6	,	46517	,	-30136	,	-28324	,	0.24735522	,	0
49,6	,	46533	,	-30126	,	-28327	,	-0.7384523	,	0
49,6	,	46565	,	-30143	,	-28332	,	-1.445752	,	0
49,6	,	46581	,	-30153	,	-28338	,	-2.1367323	,	0
49,6	,	46597	,	-30145	,	-28334	,	-3.1149597	,	0
49,6	,	46629	,	-30154	,	-28335	,	-4.4344597	,	0
49,6	,	46645	,	-30151	,	-28330	,	-5.903994	,	0
49,6	,	46677	,	-30154	,	-28335	,	-7.288727	,	0
49,6	,	46693	,	-30143	,	-28331	,	-8.331547	,	0
49,6	,	46709	,	-30152	,	-28351	,	-8.786333	,	0
49,6	,	46741	,	-30159	,	-28343	,	-8.617209	,	0
49,6	,	46757	,	-30162	,	-28336	,	-8.08313	,	0
49,6	,	46773	,	-30157	,	-28348	,	-7.482023	,	0
49,7	,	46805	,	-30175	,	-28346	,	-6.984329	,	0
49,7	,	46821	,	-30174	,	-28338	,	-6.7652426	,	0
49,7	,	46853	,	-30171	,	-28340	,	-6.935927	,	0
49,7	,	46869	,	-30157	,	-28345	,	-7.2859173	,	0
49,7	,	46885	,	-30156	,	-28339	,	-7.3467426	,	0
49,7	,	46917	,	-30151	,	-28338	,	-6.7292147	,	0
49,7	,	46933	,	-30135	,	-28316	,	-5.252881	,	0
49,7	,	46951	,	-30148	,	-28337	,	-2.9208932	,	1
49,7	,	46981	,	-30132	,	-28317	,	0.008767128	,	3
49,7	,	46997	,	-30130	,	-28320	,	3.1679592	,	5
49,7	,	47013	,	-30129	,	-28320	,	6.2697716	,	8
49,7	,	47045	,	-30125	,	-28326	,	9.044215	,	11
49,7	,	47061	,	-30118	,	-28317	,	11.2755165	,	13
49,7	,	47093	,	-30113	,	-28320	,	12.918512	,	15
49,7	,	47109	,	-30109	,	-28319	,	14.052833	,	16
49,7	,	47125	,	-30109	,	-28322	,	14.759527	,	17
49,7	,	47157	,	-30104	,	-28322	,	15.064854	,	16
49,7	,	47173	,	-30096	,	-28315	,	15.018137	,	14
49,7	,	47189	,	-30102	,	-28338	,	14.716686	,	12
49,7	,	47221	,	-30101	,	-28307	,	14.168127	,	9
49,7	,	47237	,	-30096	,	-28316	,	13.308207	,	6
49,7	,	47268	,	-30089	,	-28304	,	12.20492	,	4
49,7	,	47285	,	-30096	,	-28310	,	11.037487	,	2
49,7	,	47301	,	-30099	,	-28307	,	9.864761	,	1
49,7	,	47333	,	-30095	,	-28305	,	8.607521	,	0
49,7	,	47349	,	-30087	,	-28305	,	7.2820697	,	0
49,7	,	47365	,	-30089	,	-28305	,	6.0776014	,	0
49,7	,	47397	,	-30093	,	-28308	,	5.1399856	,	0
49,7	,	47413	,	-30090	,	-28305	,	4.4300756	,	0
49,7	,	47429	,	-30103	,	-28324	,	3.7861834	,	0
49,7	,	47461	,	-30101	,	-28304	,	2.992661	,	0
49,7	,	47477	,	-30103	,	-28308	,	1.9103379	,	0
49,7	,	47509	,	-30098	,	-28318	,	0.605111	,	0
49,7	,	47525	,	-30100	,	-28303	,	-0.7068943	,	0
49,7	,	47541	,	-30102	,	-28303	,	-1.8162885	,	0
49,7	,	47573	,	-30101	,	-28311	,	-2.6238678	,	0
49,7	,	47589	,	-30105	,	-28310	,	-3.1260743	,	0
49,7	,	47605	,	-30113	,	-28309	,	-3.4146857	,	0
49,7	,	47637	,	-30102	,	-28300	,	-3.6264043	,	0
49,7	,	47653	,	-30108	,	-28308	,	-3.7741585	,	0
49,7	,	47685	,	-30113	,	-28330	,	-3.8083143	,	0
49,7	,	47701	,	-30108	,	-28310	,	-3.7670012	,	0
49,7	,	47717	,	-30103	,	-28310	,	-3.6499434	,	0
49,7	,	47748	,	-30110	,	-28311	,	-3.37061	,	0
49,7	,	47765	,	-30128	,	-28312	,	-3.0192356	,	0
49,7	,	47780	,	-30118	,	-28315	,	-2.911611	,	0
49,8	,	47812	,	-30126	,	-28314	,	-3.2372875	,	0
49,8	,	47829	,	-30114	,	-28314	,	-3.8754745	,	0
49,8	,	47845	,	-30123	,	-28305	,	-4.5458403	,	0
49,8	,	47877	,	-30127	,	-28303	,	-5.057533	,	0
49,8	,	47893	,	-30126	,	-28309	,	-5.410725	,	0
49,8	,	47924	,	-30129	,	-28330	,	-5.6496387	,	0
49,8	,	47941	,	-30126	,	-28311	,	-5.7634964	,	0
49,8	,	47956	,	-30115	,	-28306	,	-5.65056	,	0
49,8	,	47988	,	-30108	,	-28296	,	-5.0699453	,	0
49,8	,	48004	,	-30095	,	-28301	,	-3.7382853	,	0
49,8	,	48021	,	-30086	,	-28304	,	-1.4748206	,	1
49,8	,	48053	,	-30096	,	-28292	,	1.6317751	,	3
49,8	,	48069	,	-30090	,	-28296	,	5.113093	,	6
49,8	,	48100	,	-30080	,	-28295	,	8.402461	,	9
49,8	,	48117	,	-30083	,	-28299	,	11.167099	,	12
49,8	,	48132	,	-30073	,	-28296	,	13.264868	,	14
49,8	,	48164	,	-30063	,	-28290	,	14.708156	,	16
49,8	,	48180	,	-30065	,	-28287	,	15.660658	,	17
49,8	,	48197	,	-30076	,	-28290	,	16.174778	,	17
49,8	,	48229	,	-30075	,	-28282	,	16.048716	,	16
49,8	,	48245	,	-30066	,	-28285	,	15.122218	,	14
49,8	,	48277	,	-30069	,	-28274	,	13.537187	,	11
49,8	,	48292	,	-30059	,	-28276	,	11.629871	,	8
49,8	,	48308	,	-30040	,	-28278	,	9.855894	,	5
49,8	,	48340	,	-30052	,	-28277	,	8.695204	,	3
49,8	,	48356	,	-30043	,	-28280	,	8.311454	,	1
49,8	,	48372	,	-30055	,	-28282	,	8.46516	,	0
49,8	,	48404	,	-30042	,	-28287	,	8.779183	,	0
49,8	,	48420	,	-30047	,	-28275	,	8.988386	,	0
49,8	,	48436	,	-30044	,	-28269	,	8.983845	,	0
49,8	,	48469	,	-30058	,	-28287	,	8.657839	,	0
49,8	,	48484	,	-30056	,	-28284	,	7.8299394	,	0
49,8	,	48516	,	-30062	,	-28272	,	6.384952	,	0
49,8	,	48532	,	-30059	,	-28281	,	4.4061413	,	0
49,8	,	48548	,	-30061	,	-28281	,	2.1516888	,	0
49,8	,	48580	,	-30065	,	-28284	,	-0.08425856	,	0
49,8	,	48596	,	-30066	,	-28286	,	-2.1059203	,	0
49,8	,	48612	,	-30063	,	-28299	,	-3.7928033	,	0
49,8	,	48644	,	-30073	,	-28290	,	-5.056506	,	0
49,8	,	48660	,	-30067	,	-28295	,	-5.8930664	,	0
49,8	,	48692	,	-30072	,	-28295	,	-6.34581	,	0
49,8	,	48708	,	-30080	,	-28289	,	-6.501786	,	0
49,8	,	48724	,	-30076	,	-28297	,	-6.5250106	,	0
49,8	,	48756	,	-30092	,	-28298	,	-6.5827312	,	0
49,8	,	48772	,	-30078	,	-28308	,	-6.7825613	,	0
49,8	,	48788	,	-30083	,	-28297	,	-7.065294	,	0
49,9	,	48820	,	-30091	,	-28303	,	-7.2686186	,	0
49,9	,	48836	,	-30090	,	-28302	,	-7.3652086	,	0
49,9	,	48852	,	-30101	,	-28306	,	-7.448829	,	0
49,9	,	48884	,	-30086	,	-28295	,	-7.5669518	,	0
49,9	,	48900	,	-30104	,	-28315	,	-7.6648016	,	0
49,9	,	48932	,	-30109	,	-28319	,	-7.759861	,	0
49,9	,	48948	,	-30122	,	-28310	,	-8.066608	,	0
49,9	,	48964	,	-30118	,	-28317	,	-8.783683	,	0
49,9	,	48996	,	-30102	,	-28315	,	-9.768816	,	0
49,9	,	49012	,	-30095	,	-28311	,	-10.459846	,	0
49,9	,	49028	,	-30085	,	-28321	,	-10.20495	,	0
49,9	,	49060	,	-30075	,	-28306	,	-8.611323	,	0
49,9	,	49076	,	-30084	,	-28298	,	-5.6971073	,	1
49,9	,	49108	,	-30076	,	-28322	,	-1.92871	,	3
49,9	,	49124	,	-30075	,	-28303	,	2.0449262	,	6
49,9	,	49140	,	-30069	,	-28298	,	5.726719	,	9
49,9	,	49172	,	-30063	,	-28298	,	8.849266	,	12
49,9	,	49188	,	-30069	,	-28293	,	11.278562	,	15
49,9	,	49204	,	-30062	,	-28293	,	12.898961	,	17
49,9	,	49236	,	-30069	,	-28292	,	13.630596	,	18
49,9	,	49252	,	-30059	,	-28294	,	13.506417	,	18
49,9	,	49268	,	-30067	,	-28298	,	12.681594	,	17
49,9	,	49300	,	-30061	,	-28296	,	11.36239	,	15
49,9	,	49316	,	-30062	,	-28313	,	9.746717	,	12
49,9	,	49348	,	-30069	,	-28313	,	7.989076	,	9
49,9	,	49364	,	-30060	,	-28304	,	6.183192	,	6
49,9	,	49380	,	-30059	,	-28290	,	4.4739738	,	3
49,9	,	49412	,	-30067	,	-28294	,	3.033514	,	1
49,9	,	49428	,	-30068	,	-28303	,	1.868011	,	0
49,9	,	49444	,	-30083	,	-28303	,	0.7935095	,	0
49,9	,	49476	,	-30071	,	-28290	,	-0.39440405	,	0
49,9	,	49492	,	-30068	,	-28308	,	-1.659079	,	0
49,9	,	49524	,	-30076	,	-28300	,	-2.7505617	,	0
49,9	,	49540	,	-30076	,	-28304	,	-3.5361319	,	0
49,9	,	49556	,	-30066	,	-28303	,	-4.0071096	,	0
49,9	,	49588	,	-30077	,	-28317	,	-4.1226225	,	0
49,9	,	49604	,	-30076	,	-28292	,	-3.927796	,	0
49,9	,	49620	,	-30077	,	-28309	,	-3.5877888	,	0
49,9	,	49652	,	-30073	,	-28302	,	-3.2145271	,	0
49,9	,	49668	,	-30079	,	-28298	,	-2.8330016	,	0
49,9	,	49684	,	-30088	,	-28306	,	-2.5236025	,	0
49,9	,	49716	,	-30088	,	-28299	,	-2.4702368	,	0
49,9	,	49732	,	-30080	,	-28307	,	-2.7529185	,	0
49,9	,	49764	,	-30095	,	-28303	,	-3.2575212	,	0
49,9	,	49780	,	-30085	,	-28312	,	-3.861334	,	0
49,10	,	49796	,	-30088	,	-28312	,	-4.446769	,	0
49,10	,	49828	,	-30101	,	-28325	,	-4.9073257	,	0
49,10	,	49844	,	-30103	,	-28301	,	-5.32633	,	0
49,10	,	49860	,	-30090	,	-28316	,	-5.81017	,	0
49,10	,	49892	,	-30104	,	-28311	,	-6.2459974	,	0
49,10	,	49908	,	-30108	,	-28315	,	-6.539656	,	0
49,10	,	49940	,	-30098	,	-28316	,	-6.7416134	,	0
49,10	,	49956	,	-30108	,	-28307	,	-6.8374524	,	0
49,10	,	49972	,	-30118	,	-28322	,	-6.8362017	,	0
49,10	,	50004	,	-30115	,	-28309	,	-6.9067326	,	0
49,10	,	50020	,	-30111	,	-28318	,	-7.1221128	,	0
49,10	,	50036	,	-30114	,	-28306	,	-7.320574	,	0
49,10	,	50068	,	-30106	,	-28327	,	-7.2830667	,	0
49,10	,	50084	,	-30081	,	-28298	,	-6.721158	,	0
49,10	,	50100	,	-30064	,	-28297	,	-5.1340227	,	0
49,10	,	50132	,	-30067	,	-28291	,	-2.1128821	,	1
49,10	,	50148	,	-30064	,	-28302	,	2.1706836	,	4
49,10	,	50180	,	-30056	,	-28292	,	7.050958	,	8
49,10	,	50196	,	-30062	,	-28304	,	11.779308	,	12
49,10	,	50212	,	-30072	,	-28292	,	15.628348	,	16
49,10	,	50243	,	-30060	,	-28292	,	17.993631	,	19
49,10	,	50260	,	-30050	,	-28286	,	18.755089	,	21
49,10	,	50275	,	-30056	,	-28288	,	18.282667	,	21
49,10	,	50308	,	-30048	,	-28315	,	17.019112	,	21
49,10	,	50324	,	-30048	,	-28283	,	15.310036	,	20
49,10	,	50356	,	-30041	,	-28291	,	13.471811	,	17
49,10	,	50372	,	-30050	,	-28295	,	11.731226	,	13
49,10	,	50388	,	-30043	,	-28289	,	10.143031	,	9
49,10	,	50420	,	-30044	,	-28287	,	8.684759	,	5
49,10	,	50436	,	-30050	,	-28288	,	7.3343897	,	2
49,10	,	50451	,	-30045	,	-28290	,	6.03758	,	0
49,10	,	50484	,	-30046	,	-28285	,	4.7702093	,	0
49,10	,	50500	,	-30040	,	-28292	,	3.6067367	,	0
49,10	,	50516	,	-30050	,	-28289	,	2.63592	,	0
49,10	,	50548	,	-30053	,	-28303	,	1.8155999	,	0
49,10	,	50564	,	-30054	,	-28271	,	0.9920865	,	0
49,10	,	50596	,	-30047	,	-28282	,	0.106075406	,	0
49,10	,	50612	,	-30050	,	-28280	,	-0.72527504	,	0
49,10	,	50628	,	-30055	,	-28283	,	-1.3730581	,	0
49,10	,	50660	,	-30052	,	-28287	,	-1.8278695	,	0
49,10	,	50676	,	-30061	,	-28290	,	-2.1555963	,	0
49,10	,	50691	,	-30062	,	-28280	,	-2.46914	,	0
49,10	,	50723	,	-30053	,	-28286	,	-2.8401139	,	0
49,10	,	50739	,	-30050	,	-28283	,	-3.139608	,	0
49,10	,	50772	,	-30055	,	-28291	,	-3.156353	,	0
49,10	,	50788	,	-30059	,	-28301	,	-2.8653274	,	0
49,11	,	50804	,	-30063	,	-28264	,	-2.4548326	,	0
49,11	,	50836	,	-30061	,	-28289	,	-2.145578	,	0
49,11	,	50852	,	-30063	,	-28294	,	-2.0393293	,	0
49,11	,	50868	,	-30060	,	-28288	,	-2.1034997	,	0
49,11	,	50899	,	-30069	,	-28290	,	-2.2659807	,	0
49,11	,	50916	,	-30077	,	-28291	,	-2.559914	,	0
49,11	,	50931	,	-30073	,	-28298	,	-3.103763	,	0
49,11	,	50964	,	-30087	,	-28297	,	-3.9452028	,	0
49,11	,	50980	,	-30084	,	-28297	,	-5.063759	,	0
49,11	,	51011	,	-30076	,	-28294	,	-6.323401	,	0
49,11	,	51028	,	-30090	,	-28320	,	-7.4450364	,	0
49,11	,	51044	,	-30088	,	-28292	,	-8.265411	,	0
49,11	,	51076	,	-30102	,	-28307	,	-8.855188	,	0
49,11	,	51092	,	-30093	,	-28309	,	-9.347601	,	0
49,11	,	51107	,	-30116	,	-28308	,	-9.837775	,	0
49,11	,	51139	,	-30097	,	-28291	,	-10.384935	,	0
49,11	,	51156	,	-30084	,	-28295	,	-10.794155	,	0
49,11	,	51187	,	-30086	,	-28300	,	-10.560158	,	0
49,11	,	51203	,	-30075	,	-28295	,	-9.3030205	,	0
49,11	,	51219	,	-30073	,	-28285	,	-6.9860687	,	1
49,11	,	51251	,	-30052	,	-28288	,	-3.7325497	,	3
49,11	,	51267	,	-30071	,	-28328	,	0.21641779	,	6
49,11	,	51283	,	-30059	,	-28280	,	4.353636	,	9
49,11	,	51316	,	-30053	,	-28294	,	8.098546	,	13
49,11	,	51331	,	-30062	,	-28293	,	11.091962	,	16
49,11	,	51347	,	-30061	,	-28288	,	13.073345	,	18
49,11	,	51379	,	-30067	,	-28285	,	13.822659	,	19
49,11	,	51395	,	-30071	,	-28304	,	13.277306	,	19
49,11	,	51427	,	-30059	,	-28309	,	11.605293	,	18
49,11	,	51443	,	-30058	,	-28295	,	9.270762	,	16
49,11	,	51459	,	-30052	,	-28286	,	6.8803678	,	13
49,11	,	51491	,	-30055	,	-28290	,	4.900407	,	10
49,11	,	51507	,	-30055	,	-28319	,	3.517026	,	6
49,11	,	51523	,	-30048	,	-28280	,	2.7056608	,	3
49,11	,	51555	,	-30050	,	-28299	,	2.4012635	,	1
49,11	,	51571	,	-30051	,	-28291	,	2.5029836	,	0
49,11	,	51603	,	-30056	,	-28301	,	2.796045	,	0
49,11	,	51619	,	-30060	,	-28306	,	2.9957523	,	0
49,11	,	51635	,	-30070	,	-28306	,	2.8156161	,	0
49,11	,	51667	,	-30067	,	-28312	,	2.0490663	,	0
49,11	,	51683	,	-30078	,	-28312	,	0.6622664	,	0
49,11	,	51699	,	-30064	,	-28314	,	-1.1767615	,	0
49,11	,	51731	,	-30071	,	-28322	,	-3.109258	,	0
49,11	,	51747	,	-30075	,	-28342	,	-4.7724376	,	0
49,11	,	51763	,	-30079	,	-28293	,	-6.0336385	,	0
49,12	,	51795	,	-30088	,	-28307	,	-6.9748454	,	0
49,12	,	51811	,	-30073	,	-28303	,	-7.689149	,	0
49,12	,	51843	,	-30091	,	-28320	,	-8.1487875	,	0
49,12	,	51859	,	-30093	,	-28315	,	-8.383585	,	0
49,12	,	51875	,	-30099	,	-28314	,	-8.5863	,	0
49,12	,	51907	,	-30102	,	-28318	,	-8.917381	,	0
49,12	,	51923	,	-30084	,	-28320	,	-9.315354	,	0
49,12	,	51939	,	-30101	,	-28328	,	-9.505655	,	0
49,12	,	51971	,	-30094	,	-28324	,	-9.294195	,	0
49,12	,	51987	,	-30096	,	-28352	,	-8.693718	,	0
49,12	,	52019	,	-30097	,	-28299	,	-7.775109	,	0
49,12	,	52035	,	-30100	,	-28326	,	-6.653999	,	0
49,12	,	52051	,	-30109	,	-28317	,	-5.540229	,	1
49,12	,	52083	,	-30106	,	-28316	,	-4.6824684	,	2
49,12	,	52099	,	-30108	,	-28321	,	-4.207531	,	2
49,12	,	52115	,	-30110	,	-28322	,	-4.066967	,	2
49,12	,	52147	,	-30124	,	-28329	,	-4.221475	,	2
49,12	,	52163	,	-30113	,	-28331	,	-4.697907	,	2
49,12	,	52179	,	-30109	,	-28324	,	-5.3516216	,	2
49,12	,	52211	,	-30091	,	-28314	,	-5.748096	,	2
49,12	,	52227	,	-30081	,	-28339	,	-5.3283315	,	2
49,12	,	52259	,	-30085	,	-28290	,	-3.7316866	,	1
49,12	,	52275	,	-30073	,	-28304	,	-1.042119	,	1
49,12	,	52291	,	-30082	,	-28305	,	2.3062046	,	3
49,12	,	52323	,	-30070	,	-28307	,	5.75912	,	6
49,12	,	52339	,	-30051	,	-28312	,	8.945952	,	9
49,12	,	52355	,	-30058	,	-28296	,	11.828663	,	12
49,12	,	52387	,	-30069	,	-28304	,	14.296398	,	14
49,12	,	52403	,	-30057	,	-28304	,	15.964552	,	16
49,12	,	52435	,	-30075	,	-28302	,	16.513206	,	17
49,12	,	52451	,	-30065	,	-28304	,	15.83033	,	17
49,12	,	52467	,	-30062	,	-28332	,	14.054626	,	16
49,12	,	52499	,	-30065	,	-28280	,	11.605156	,	14
49,12	,	52515	,	-30067	,	-28295	,	8.916859	,	11
49,12	,	52531	,	-30057	,	-28286	,	6.31041	,	8
49,12	,	52563	,	-30051	,	-28293	,	4.1298766	,	5
49,12	,	52579	,	-30056	,	-28293	,	2.680396	,	3
49,12	,	52611	,	-30059	,	-28314	,	1.9855092	,	1
49,12	,	52627	,	-30044	,	-28307	,	1.8614676	,	0
49,12	,	52643	,	-30053	,	-28304	,	2.175769	,	0
49,12	,	52675	,	-30052	,	-28317	,	2.7753296	,	0
49,12	,	52691	,	-30050	,	-28300	,	3.405173	,	0
49,12	,	52707	,	-30057	,	-28328	,	3.8491035	,	0
49,12	,	52739	,	-30045	,	-28280	,	4.008609	,	0
49,12	,	52755	,	-30055	,	-28308	,	3.9110484	,	0
49,12	,	52771	,	-30056	,	-28305	,	3.5999646	,	0
49,13	,	52803	,	-30070	,	-28304	,	2.9839463	,	0
49,13	,	52819	,	-30057	,	-28313	,	1.9414431	,	0
49,13	,	52851	,	-30058	,	-28306	,	0.58440113	,	0
49,13	,	52867	,	-30060	,	-28307	,	-0.7697078	,	0
49,13	,	52883	,	-30072	,	-28306	,	-1.9353838	,	0
49,13	,	52915	,	-30062	,	-28304	,	-2.943717	,	0
49,13	,	52931	,	-30059	,	-28308	,	-3.7659032	,	0
49,13	,	52947	,	-30073	,	-28335	,	-4.2819543	,	0
49,13	,	52979	,	-30068	,	-28301	,	-4.5277357	,	0
49,13	,	52995	,	-30069	,	-28313	,	-4.630806	,	0
49,13	,	53027	,	-30074	,	-28313	,	-4.6447	,	0
49,13	,	53043	,	-30064	,	-28314	,	-4.57603	,	0
49,13	,	53059	,	-30058	,	-28306	,	-4.3212795	,	0
49,13	,	53091	,	-30067	,	-28301	,	-3.7183852	,	0
49,13	,	53107	,	-30081	,	-28307	,	-2.8724976	,	0
49,13	,	53123	,	-30083	,	-28307	,	-2.2135904	,	0
49,13	,	53154	,	-30082	,	-28308	,	-2.110965	,	0
49,13	,	53170	,	-30083	,	-28321	,	-2.5939226	,	0
49,13	,	53186	,	-30110	,	-28332	,	-3.5721107	,	0
49,13	,	53218	,	-30101	,	-28297	,	-5.100106	,	0
49,13	,	53235	,	-30097	,	-28309	,	-7.0984263	,	0
49,13	,	53267	,	-30104	,	-28318	,	-9.141362	,	0
49,13	,	53283	,	-30091	,	-28325	,	-10.74258	,	0
49,13	,	53299	,	-30071	,	-28313	,	-11.4252825	,	0
49,13	,	53331	,	-30069	,	-28317	,	-10.681857	,	0
49,13	,	53347	,	-30055	,	-28299	,	-8.25873	,	0
49,13	,	53362	,	-30055	,	-28302	,	-4.3315144	,	2
49,13	,	53394	,	-30044	,	-28305	,	0.60208035	,	5
49,13	,	53411	,	-30031	,	-28299	,	5.96445	,	9
49,13	,	53442	,	-30043	,	-28315	,	11.222166	,	14
49,13	,	53459	,	-30021	,	-28281	,	15.849989	,	19
49,13	,	53474	,	-30024	,	-28298	,	19.491695	,	23
49,13	,	53506	,	-30019	,	-28283	,	22.02388	,	26
49,13	,	53523	,	-30028	,	-28297	,	23.344868	,	28
49,13	,	53539	,	-30024	,	-28300	,	23.331703	,	29
49,13	,	53571	,	-30015	,	-28286	,	22.048819	,	27
49,13	,	53586	,	-30023	,	-28286	,	19.836443	,	24
49,13	,	53602	,	-30015	,	-28292	,	17.096273	,	20
49,13	,	53634	,	-30011	,	-28282	,	14.192158	,	15
49,13	,	53651	,	-30009	,	-28288	,	11.500686	,	10
49,13	,	53682	,	-30019	,	-28305	,	9.252472	,	6
49,13	,	53698	,	-30009	,	-28269	,	7.4327707	,	3
49,13	,	53715	,	-30005	,	-28262	,	6.002806	,	1
49,13	,	53747	,	-30001	,	-28277	,	5.0473275	,	0
49,13	,	53762	,	-30011	,	-28270	,	4.590129	,	0
49,13	,	53779	,	-30013	,	-28273	,	4.4174376	,	0
49,14	,	53810	,	-30017	,	-28269	,	4.188936	,	0
49,14	,	53826	,	-30007	,	-28267	,	3.7019951	,	0
49,14	,	53859	,	-30005	,	-28271	,	3.0363975	,	0
49,14	,	53875	,	-30005	,	-28263	,	2.4250922	,	0
49,14	,	53891	,	-30002	,	-28277	,	2.033916	,	0
49,14	,	53922	,	-30012	,	-28297	,	1.8677272	,	0
49,14	,	53938	,	-30020	,	-28265	,	1.7274734	,	0
49,14	,	53954	,	-30027	,	-28278	,	1.2678947	,	0
49,14	,	53986	,	-30020	,	-28272	,	0.26891232	,	0
49,14	,	54002	,	-30025	,	-28277	,	-1.161475	,	0
49,14	,	54018	,	-30017	,	-28273	,	-2.6973968	,	0
49,14	,	54051	,	-30028	,	-28283	,	-4.032566	,	0
49,14	,	54067	,	-30015	,	-28272	,	-4.9847875	,	0
49,14	,	54098	,	-30014	,	-28279	,	-5.405962	,	0
49,14	,	54114	,	-30022	,	-28278	,	-5.2022247	,	0
49,14	,	54130	,	-30027	,	-28282	,	-4.535371	,	0
49,14	,	54162	,	-30035	,	-28293	,	-3.795162	,	0
49,14	,	54178	,	-30029	,	-28271	,	-3.3293703	,	0
49,14	,	54194	,	-30040	,	-28298	,	-3.2743073	,	0
49,14	,	54226	,	-30039	,	-28285	,	-3.6266868	,	0
49,14	,	54242	,	-30045	,	-28284	,	-4.336059	,	0
49,14	,	54274	,	-30048	,	-28271	,	-5.3069115	,	0
49,14	,	54290	,	-30051	,	-28288	,	-6.4246044	,	0
49,14	,	54306	,	-30049	,	-28300	,	-7.5426188	,	0
49,14	,	54338	,	-30066	,	-28298	,	-8.535997	,	0
49,14	,	54354	,	-30053	,	-28293	,	-9.377933	,	0
49,14	,	54370	,	-30047	,	-28297	,	-9.945968	,	0
49,14	,	54402	,	-30039	,	-28312	,	-9.905727	,	0
49,14	,	54418	,	-30040	,	-28283	,	-8.972963	,	0
49,14	,	54434	,	-30023	,	-28283	,	-7.08624	,	0
49,14	,	54466	,	-30009	,	-28287	,	-4.245387	,	1
49,14	,	54482	,	-30011	,	-28276	,	-0.47811127	,	3
49,14	,	54514	,	-30005	,	-28280	,	3.9216137	,	6
49,14	,	54530	,	-30010	,	-28271	,	8.368063	,	10
49,14	,	54546	,	-30006	,	-28276	,	12.218555	,	14
49,14	,	54578	,	-30008	,	-28271	,	14.9804945	,	17
49,14	,	54594	,	-30008	,	-28281	,	16.404402	,	19
49,14	,	54610	,	-30010	,	-28289	,	16.46505	,	20
49,14	,	54642	,	-30006	,	-28292	,	15.331982	,	20
49,14	,	54658	,	-30007	,	-28281	,	13.337859	,	19
49,14	,	54690	,	-30012	,	-28275	,	10.850105	,	17
49,14	,	54706	,	-30000	,	-28287	,	8.2009735	,	14
49,14	,	54722	,	-30017	,	-28274	,	5.6846056	,	10
49,14	,	54754	,	-29999	,	-28280	,	3.4871454	,	6
49,14	,	54770	,	-29995	,	-28275	,	1.798501	,	3
49,14	,	54786	,	-30007	,	-28282	,	0.82198524	,	1
49,15	,	54818	,	-29999	,	-28280	,	0.51009214	,	0
49,15	,	54834	,	-30002	,	-28281	,	0.62766147	,	0
49,15	,	54850	,	-30001	,	-28281	,	0.9632108	,	0
49,15	,	54882	,	-30006	,	-28277	,	1.327672	,	0
49,15	,	54898	,	-30012	,	-28277	,	1.5225451	,	0
49,15	,	54930	,	-30010	,	-28283	,	1.3733271	,	0
49,15	,	54946	,	-30014	,	-28271	,	0.82287395	,	0
49,15	,	54962	,	-30005	,	-28277	,	-0.009755313	,	0
49,15	,	54994	,	-30007	,	-28283	,	-0.8719171	,	0
49,15	,	55010	,	-30009	,	-28286	,	-1.5358145	,	0
49,15	,	55026	,	-30020	,	-28289	,	-1.9767693	,	0
49,15	,	55058	,	-30025	,	-28286	,	-2.3927429	,	0
49,15	,	55074	,	-30025	,	-28281	,	-3.022335	,	0
49,15	,	55106	,	-30025	,	-28281	,	-3.9198637	,	0
49,15	,	55122	,	-30024	,	-28291	,	-4.9234767	,	0
49,15	,	55138	,	-30021	,	-28277	,	-5.7807255	,	0
49,15	,	55170	,	-30017	,	-28280	,	-6.2477875	,	0
49,15	,	55186	,	-30019	,	-28273	,	-6.162944	,	0
49,15	,	55202	,	-30025	,	-28288	,	-5.5532393	,	0
49,15	,	55234	,	-30021	,	-28287	,	-4.634588	,	0
49,15	,	55250	,	-30032	,	-28280	,	-3.6753829	,	0
49,15	,	55266	,	-30028	,	-28293	,	-2.9117708	,	0
49,15	,	55298	,	-30032	,	-28289	,	-2.4814107	,	0
49,15	,	55314	,	-30038	,	-28291	,	-2.4150696	,	0
49,15	,	55346	,	-30041	,	-28288	,	-2.7305806	,	0
49,15	,	55362	,	-30043	,	-28299	,	-3.4222956	,	0
49,15	,	55378	,	-30046	,	-28296	,	-4.398392	,	0
49,15	,	55410	,	-30045	,	-28300	,	-5.494033	,	0
49,15	,	55426	,	-30031	,	-28282	,	-6.434848	,	0
49,15	,	55442	,	-30001	,	-28272	,	-6.6831985	,	0
49,15	,	55474	,	-29995	,	-28282	,	-5.511653	,	0
49,15	,	55490	,	-30000	,	-28274	,	-2.5748389	,	1
49,15	,	55522	,	-29988	,	-28270	,	1.73648	,	3
49,15	,	55538	,	-29986	,	-28272	,	6.6700935	,	7
49,15	,	55554	,	-29978	,	-28272	,	11.535626	,	11
49,15	,	55586	,	-29981	,	-28274	,	15.779854	,	15
49,15	,	55602	,	-29976	,	-28271	,	18.97508	,	19
49,15	,	55618	,	-29964	,	-28261	,	20.927027	,	22
49,15	,	55650	,	-29964	,	-28268	,	21.755978	,	23
49,15	,	55666	,	-29973	,	-28261	,	21.650621	,	23
49,15	,	55681	,	-29972	,	-28263	,	20.62889	,	22
49,15	,	55714	,	-29949	,	-28265	,	18.803532	,	20
49,15	,	55730	,	-29956	,	-28260	,	16.64083	,	16
49,15	,	55762	,	-29957	,	-28258	,	14.602114	,	12
49,15	,	55778	,	-29948	,	-28254	,	12.840357	,	8
49,16	,	55794	,	-29942	,	-28261	,	11.429535	,	4
49,16	,	55826	,	-29952	,	-28256	,	10.432162	,	1
49,16	,	55841	,	-29952	,	-28259	,	9.688612	,	0
49,16	,	55857	,	-29953	,	-28259	,	8.901747	,	0
49,16	,	55889	,	-29936	,	-28245	,	7.974922	,	0
49,16	,	55906	,	-29950	,	-28254	,	7.0657215	,	0
49,16	,	55938	,	-29938	,	-28248	,	6.308315	,	0
49,16	,	55954	,	-29942	,	-28256	,	5.7243614	,	0
49,16	,	55970	,	-29942	,	-28255	,	5.295239	,	0
49,16	,	56001	,	-29954	,	-28260	,	4.8862324	,	0
49,16	,	56017	,	-29954	,	-28256	,	4.2410707	,	0
49,16	,	56033	,	-29943	,	-28252	,	3.2309153	,	0
49,16	,	56066	,	-29946	,	-28258	,	2.0372882	,	0
49,16	,	56082	,	-29962	,	-28244	,	0.8756161	,	0
49,16	,	56098	,	-29960	,	-28246	,	-0.30963147	,	0
49,16	,	56130	,	-29939	,	-28248	,	-1.5374717	,	0
49,16	,	56145	,	-29946	,	-28238	,	-2.4773772	,	0
49,16	,	56177	,	-29950	,	-28245	,	-2.8190312	,	0
49,16	,	56193	,	-29943	,	-28244	,	-2.5920343	,	0
49,16	,	56210	,	-29954	,	-28256	,	-1.9983459	,	0
49,16	,	56242	,	-29962	,	-28257	,	-1.3406812	,	0
49,16	,	56257	,	-29952	,	-28257	,	-0.94922173	,	0
49,16	,	56273	,	-29964	,	-28258	,	-0.9557968	,	0
49,16	,	56305	,	-29950	,	-28265	,	-1.2830662	,	0
49,16	,	56321	,	-29957	,	-28244	,	-1.729086	,	0
49,16	,	56354	,	-29954	,	-28251	,	-2.0754385	,	0
49,16	,	56370	,	-29966	,	-28258	,	-2.272137	,	0
49,16	,	56385	,	-29973	,	-28258	,	-2.4967659	,	0
49,16	,	56417	,	-29974	,	-28263	,	-3.004619	,	0
49,16	,	56433	,	-29972	,	-28262	,	-3.8737144	,	0
49,16	,	56449	,	-29978	,	-28267	,	-4.9521675	,	0
49,16	,	56482	,	-29980	,	-28256	,	-6.056643	,	0
49,16	,	56498	,	-29979	,	-28260	,	-7.063826	,	0
49,16	,	56513	,	-29990	,	-28266	,	-7.8909273	,	0
49,16	,	56546	,	-29977	,	-28276	,	-8.490097	,	0
49,16	,	56561	,	-29980	,	-28250	,	-8.752332	,	0
49,16	,	56593	,	-29972	,	-28255	,	-8.496236	,	0
49,16	,	56609	,	-29958	,	-28258	,	-7.534097	,	0
49,16	,	56625	,	-29936	,	-28251	,	-5.5933995	,	0
49,16	,	56658	,	-29940	,	-28255	,	-2.4298067	,	1
49,16	,	56674	,	-29933	,	-28249	,	1.8072205	,	4
49,16	,	56689	,	-29932	,	-28246	,	6.5458503	,	8
49,16	,	56721	,	-29926	,	-28243	,	11.123437	,	12
49,16	,	56737	,	-29931	,	-28229	,	14.984335	,	16
49,16	,	56769	,	-29912	,	-28236	,	17.774868	,	19
49,16	,	56785	,	-29911	,	-28242	,	19.47805	,	21
49,17	,	56801	,	-29918	,	-28227	,	20.254547	,	22
49,17	,	56833	,	-29922	,	-28241	,	20.112476	,	22
49,17	,	56849	,	-29923	,	-28231	,	18.949867	,	21
49,17	,	56865	,	-29916	,	-28233	,	16.837248	,	18
49,17	,	56898	,	-29913	,	-28234	,	14.125715	,	14
49,17	,	56913	,	-29903	,	-28239	,	11.338653	,	10
49,17	,	56929	,	-29900	,	-28236	,	8.99338	,	6
49,17	,	56961	,	-29899	,	-28227	,	7.417866	,	3
49,17	,	56977	,	-29913	,	-28234	,	6.576961	,	1
49,17	,	57009	,	-29907	,	-28236	,	6.1060796	,	0
49,17	,	57025	,	-29912	,	-28245	,	5.6186023	,	0
49,17	,	57041	,	-29916	,	-28228	,	4.8971887	,	0
49,17	,	57073	,	-29913	,	-28243	,	3.8671284	,	0
49,17	,	57089	,	-29928	,	-28242	,	2.5350945	,	0
49,17	,	57105	,	-29908	,	-28237	,	0.97184515	,	0
49,17	,	57137	,	-29909	,	-28229	,	-0.5501151	,	0
49,17	,	57153	,	-29907	,	-28238	,	-1.6244779	,	0
49,17	,	57185	,	-29926	,	-28241	,	-2.1245	,	0
49,17	,	57201	,	-29925	,	-28244	,	-2.3469234	,	0
49,17	,	57217	,	-29929	,	-28245	,	-2.6772828	,	0
49,17	,	57249	,	-29922	,	-28242	,	-3.2406209	,	0
49,17	,	57265	,	-29927	,	-28254	,	-3.8986053	,	0
49,17	,	57281	,	-29936	,	-28245	,	-4.5112963	,	0
49,17	,	57313	,	-29928	,	-28258	,	-5.06404	,	0
49,17	,	57329	,	-29930	,	-28249	,	-5.5018725	,	0
49,17	,	57345	,	-29933	,	-28257	,	-5.7033234	,	0
49,17	,	57377	,	-29942	,	-28258	,	-5.684448	,	0
49,17	,	57393	,	-29934	,	-28258	,	-5.5881853	,	0
49,17	,	57425	,	-29945	,	-28258	,	-5.5042777	,	0
49,17	,	57441	,	-29946	,	-28251	,	-5.490213	,	0
49,17	,	57457	,	-29951	,	-28263	,	-5.6415615	,	0
49,17	,	57489	,	-29959	,	-28248	,	-6.03952	,	0
49,17	,	57505	,	-29967	,	-28271	,	-6.7579517	,	0
49,17	,	57521	,	-29973	,	-28260	,	-7.870397	,	0
49,17	,	57553	,	-29958	,	-28265	,	-9.2784195	,	0
49,17	,	57569	,	-29965	,	-28268	,	-10.595954	,	0
49,17	,	57601	,	-29960	,	-28256	,	-11.393747	,	0
49,17	,	57617	,	-29961	,	-28249	,	-11.45242	,	0
49,17	,	57633	,	-29937	,	-28258	,	-10.637596	,	0
49,17	,	57665	,	-29938	,	-28252	,	-8.755415	,	0
49,17	,	57681	,	-29919	,	-28239	,	-5.6972523	,	1
49,17	,	57697	,	-29919	,	-28248	,	-1.5873623	,	4
49,17	,	57729	,	-29917	,	-28247	,	3.184269	,	8
49,17	,	57745	,	-29919	,	-28258	,	7.9821434	,	12
49,17	,	57777	,	-29903	,	-28227	,	12.183509	,	16
49,18	,	57793	,	-29911	,	-28235	,	15.439168	,	20
49,18	,	57809	,	-29902	,	-28231	,	17.603693	,	23
49,18	,	57841	,	-29889	,	-28236	,	18.714552	,	25
49,18	,	57857	,	-29906	,	-28234	,	18.983345	,	26
49,18	,	57873	,	-29904	,	-28238	,	18.488895	,	25
49,18	,	57905	,	-29903	,	-28236	,	17.157839	,	22
49,18	,	57921	,	-29891	,	-28234	,	15.128156	,	18
49,18	,	57953	,	-29891	,	-28249	,	12.824682	,	14
49,18	,	57969	,	-29879	,	-28233	,	10.731339	,	10
49,18	,	57985	,	-29898	,	-28248	,	9.125529	,	6
49,18	,	58017	,	-29895	,	-28209	,	7.9006257	,	3
49,18	,	58033	,	-29889	,	-28229	,	6.784903	,	1
49,18	,	58049	,	-29891	,	-28239	,	5.696737	,	0
49,18	,	58081	,	-29879	,	-28232	,	4.744487	,	0
49,18	,	58097	,	-29884	,	-28237	,	4.0905905	,	0
49,18	,	58129	,	-29883	,	-28242	,	3.8011017	,	0
49,18	,	58145	,	-29890	,	-28232	,	3.7332888	,	0
49,18	,	58161	,	-29883	,	-28233	,	3.6637416	,	0
49,18	,	58193	,	-29887	,	-28227	,	3.4762921	,	0
49,18	,	58209	,	-29891	,	-28232	,	3.1398082	,	0
49,18	,	58225	,	-29891	,	-28249	,	2.6081529	,	0
49,18	,	58257	,	-29898	,	-28220	,	1.8336934	,	0
49,18	,	58273	,	-29892	,	-28215	,	0.8246057	,	0
49,18	,	58305	,	-29898	,	-28244	,	-0.31575584	,	0
49,18	,	58321	,	-29900	,	-28237	,	-1.457901	,	0
49,18	,	58337	,	-29901	,	-28239	,	-2.5352664	,	0
49,18	,	58369	,	-29915	,	-28235	,	-3.559514	,	0
49,18	,	58384	,	-29913	,	-28241	,	-4.6304555	,	0
49,18	,	58400	,	-29910	,	-28243	,	-5.7836227	,	0
49,18	,	58433	,	-29924	,	-28244	,	-6.9111185	,	0
49,18	,	58449	,	-29914	,	-28238	,	-7.9138947	,	0
49,18	,	58481	,	-29928	,	-28243	,	-8.725435	,	0
49,18	,	58497	,	-29910	,	-28249	,	-9.246413	,	0
49,18	,	58513	,	-29928	,	-28244	,	-9.362875	,	0
49,18	,	58545	,	-29932	,	-28256	,	-9.119025	,	0
49,18	,	58561	,	-29930	,	-28250	,	-8.761358	,	0
49,18	,	58576	,	-29935	,	-28254	,	-8.468712	,	0
49,18	,	58609	,	-29935	,	-28254	,	-8.262239	,	0
49,18	,	58625	,	-29947	,	-28261	,	-8.158563	,	0
49,18	,	58641	,	-29946	,	-28257	,	-8.23178	,	0
49,18	,	58673	,	-29937	,	-28260	,	-8.462435	,	0
49,18	,	58689	,	-29941	,	-28243	,	-8.623579	,	0
49,18	,	58721	,	-29941	,	-28245	,	-8.481636	,	0
49,18	,	58737	,	-29918	,	-28239	,	-7.866933	,	0
49,18	,	58753	,	-29906	,	-28242	,	-6.4557624	,	0
49,18	,	58784	,	-29904	,	-28239	,	-3.9077795	,	1
49,19	,	58800	,	-29884	,	-28235	,	-0.20197868	,	3
49,19	,	58816	,	-29894	,	-28233	,	4.3549175	,	6
49,19	,	58848	,	-29884	,	-28231	,	9.197342	,	10
49,19	,	58864	,	-29881	,	-28231	,	13.663276	,	14
49,19	,	58897	,	-29868	,	-28235	,	17.31183	,	18
49,19	,	58913	,	-29863	,	-28231	,	20.031084	,	21
49,19	,	58929	,	-29864	,	-28212	,	21.865753	,	23
49,19	,	58960	,	-29855	,	-28225	,	22.845865	,	24
49,19	,	58976	,	-29861	,	-28228	,	22.992126	,	23
49,19	,	58993	,	-29854	,	-28223	,	22.344439	,	21
49,19	,	59025	,	-29857	,	-28207	,	20.97947	,	18
49,19	,	59041	,	-29855	,	-28220	,	19.028042	,	14
49,19	,	59057	,	-29841	,	-28217	,	16.717556	,	10
49,19	,	59088	,	-29841	,	-28216	,	14.430506	,	6
49,19	,	59104	,	-29849	,	-28216	,	12.471198	,	3
49,19	,	59136	,	-29837	,	-28197	,	10.860133	,	1
49,19	,	59152	,	-29842	,	-28218	,	9.53338	,	0
49,19	,	59168	,	-29832	,	-28195	,	8.488681	,	0
49,19	,	59200	,	-29836	,	-28204	,	7.733052	,	0
49,19	,	59216	,	-29826	,	-28193	,	7.2607007	,	0
49,19	,	59232	,	-29841	,	-28198	,	7.006918	,	0
49,19	,	59264	,	-29843	,	-28189	,	6.7445583	,	0
49,19	,	59281	,	-29840	,	-28193	,	6.1837664	,	0
49,19	,	59312	,	-29842	,	-28193	,	5.22989	,	0
49,19	,	59328	,	-29841	,	-28197	,	3.9981842	,	0
49,19	,	59344	,	-29853	,	-28203	,	2.6153936	,	0
49,19	,	59376	,	-29844	,	-28207	,	1.1304433	,	0
49,19	,	59392	,	-29858	,	-28210	,	-0.4117174	,	0
49,19	,	59408	,	-29853	,	-28192	,	-1.949827	,	0
49,19	,	59440	,	-29862	,	-28206	,	-3.4354782	,	0
49,19	,	59456	,	-29857	,	-28208	,	-4.8039007	,	0
49,19	,	59472	,	-29865	,	-28208	,	-5.969987	,	0
49,19	,	59505	,	-29862	,	-28194	,	-6.86703	,	0
49,19	,	59520	,	-29885	,	-28209	,	-7.5548854	,	0
49,19	,	59552	,	-29859	,	-28203	,	-8.177139	,	0
49,19	,	59568	,	-29876	,	-28216	,	-8.68951	,	0
49,19	,	59584	,	-29862	,	-28207	,	-8.885891	,	0
49,19	,	59616	,	-29869	,	-28208	,	-8.623041	,	0
49,19	,	59632	,	-29878	,	-28235	,	-7.9275236	,	0
49,19	,	59648	,	-29891	,	-28198	,	-7.1113744	,	0
49,19	,	59680	,	-29890	,	-28220	,	-6.6308713	,	0
49,19	,	59696	,	-29890	,	-28218	,	-6.710065	,	0
49,19	,	59728	,	-29894	,	-28224	,	-7.2407103	,	0
49,19	,	59744	,	-29902	,	-28223	,	-8.018101	,	0
49,19	,	59760	,	-29902	,	-28233	,	-8.914967	,	0
49,20	,	59792	,	-29922	,	-28237	,	-9.902498	,	0
49,20	,	59808	,	-29895	,	-28225	,	-10.94574	,	0
49,20	,	59824	,	-29900	,	-28224	,	-11.745138	,	0
49,20	,	59856	,	-29872	,	-28217	,	-11.735077	,	0
49,20	,	59872	,	-29878	,	-28238	,	-10.405426	,	0
49,20	,	59888	,	-29870	,	-28208	,	-7.634108	,	1
49,20	,	59920	,	-29851	,	-28217	,	-3.6847515	,	3
49,20	,	59936	,	-29863	,	-28223	,	1.0366273	,	6
49,20	,	59968	,	-29856	,	-28219	,	5.945359	,	10
49,20	,	59984	,	-29865	,	-28216	,	10.294751	,	14
49,20	,	60000	,	-29853	,	-28212	,	13.493942	,	18
49,20	,	60032	,	-29853	,	-28220	,	15.337629	,	21
49,20	,	60048	,	-29858	,	-28229	,	15.92227	,	22
49,20	,	60064	,	-29867	,	-28217	,	15.354799	,	22
49,20	,	60096	,	-29875	,	-28217	,	13.642469	,	21
49,20	,	60112	,	-29851	,	-28237	,	10.955848	,	19
49,20	,	60144	,	-29860	,	-28196	,	7.861471	,	16
49,20	,	60160	,	-29846	,	-28219	,	5.0543113	,	12
49,20	,	60176	,	-29862	,	-28207	,	2.9531412	,	8
49,20	,	60208	,	-29855	,	-28207	,	1.5968981	,	4
49,20	,	60224	,	-29847	,	-28222	,	0.859817	,	1
49,20	,	60240	,	-29853	,	-28211	,	0.6795385	,	0
49,20	,	60272	,	-29852	,	-28218	,	0.94317424	,	0
49,20	,	60288	,	-29850	,	-28221	,	1.4223473	,	0
49,20	,	60304	,	-29849	,	-28221	,	1.9384602	,	0
49,20	,	60336	,	-29852	,	-28221	,	2.3958068	,	0
49,20	,	60352	,	-29849	,	-28238	,	2.7190783	,	0
49,20	,	60384	,	-29845	,	-28201	,	2.8849838	,	0
49,20	,	60400	,	-29850	,	-28225	,	2.937769	,	0
49,20	,	60416	,	-29860	,	-28241	,	2.8495326	,	0
49,20	,	60448	,	-29856	,	-28237	,	2.4694738	,	0
49,20	,	60464	,	-29858	,	-28242	,	1.722301	,	0
49,20	,	60480	,	-29860	,	-28244	,	0.70030165	,	0
49,20	,	60512	,	-29870	,	-28243	,	-0.4983461	,	0
49,20	,	60528	,	-29883	,	-28241	,	-1.9269845	,	0
49,20	,	60560	,	-29883	,	-28254	,	-3.7291615	,	0
49,20	,	60576	,	-29886	,	-28246	,	-5.898505	,	0
49,20	,	60592	,	-29877	,	-28260	,	-8.145034	,	0
49,20	,	60624	,	-29876	,	-28228	,	-9.985571	,	0
49,20	,	60640	,	-29899	,	-28248	,	-11.097665	,	0
49,20	,	60656	,	-29884	,	-28252	,	-11.561117	,	0
49,20	,	60688	,	-29899	,	-28255	,	-11.584574	,	0
49,20	,	60704	,	-29901	,	-28257	,	-11.335239	,	0
49,20	,	60720	,	-29909	,	-28266	,	-11.040049	,	0
49,20	,	60752	,	-29907	,	-28257	,	-10.886953	,	0
49,20	,	60768	,	-29908	,	-28258	,	-10.877283	,	0
49,21	,	60800	,	-29926	,	-28257	,	-10.943983	,	0
49,21	,	60816	,	-29905	,	-28253	,	-11.071554	,	0
49,21	,	60832	,	-29918	,	-28277	,	-11.132423	,	0
49,21	,	60864	,	-29914	,	-28244	,	-10.919554	,	0
49,21	,	60880	,	-29926	,	-28270	,	-10.4072075	,	0
49,21	,	60896	,	-29920	,	-28254	,	-9.737867	,	0
49,21	,	60928	,	-29908	,	-28245	,	-8.955082	,	0
49,21	,	60944	,	-29884	,	-28248	,	-7.7573357	,	0
49,21	,	60975	,	-29893	,	-28240	,	-5.685418	,	1
49,21	,	60992	,	-29883	,	-28250	,	-2.6312394	,	3
49,21	,	61008	,	-29876	,	-28253	,	1.101557	,	6
49,21	,	61040	,	-29884	,	-28249	,	5.067441	,	9
49,21	,	61056	,	-29869	,	-28238	,	8.784665	,	12
49,21	,	61072	,	-29860	,	-28270	,	11.94088	,	15
49,21	,	61104	,	-29861	,	-28217	,	14.494169	,	18
49,21	,	61120	,	-29871	,	-28231	,	16.360224	,	20
49,21	,	61136	,	-29858	,	-28234	,	17.31469	,	21
49,21	,	61167	,	-29863	,	-28245	,	17.284607	,	20
49,21	,	61183	,	-29865	,	-28246	,	16.385166	,	18
49,21	,	61216	,	-29854	,	-28230	,	14.790447	,	15
49,21	,	61232	,	-29863	,	-28244	,	12.771957	,	12
49,21	,	61248	,	-29849	,	-28235	,	10.653112	,	9
49,21	,	61280	,	-29851	,	-28241	,	8.736568	,	6
49,21	,	61296	,	-29834	,	-28229	,	7.3197327	,	3
49,21	,	61312	,	-29845	,	-28255	,	6.6103725	,	1
49,21	,	61343	,	-29844	,	-28220	,	6.533555	,	0
49,21	,	61360	,	-29845	,	-28235	,	6.7433243	,	0
49,21	,	61392	,	-29829	,	-28246	,	6.965554	,	0
49,21	,	61407	,	-29850	,	-28235	,	7.127082	,	0
49,21	,	61423	,	-29851	,	-28234	,	7.0601444	,	0
49,21	,	61455	,	-29850	,	-28234	,	6.4778934	,	0
49,21	,	61471	,	-29858	,	-28238	,	5.269382	,	0
49,21	,	61487	,	-29844	,	-28233	,	3.5801306	,	0
49,21	,	61520	,	-29850	,	-28225	,	1.7529068	,	0
49,21	,	61535	,	-29850	,	-28239	,	0.14242554	,	0
49,21	,	61551	,	-29849	,	-28261	,	-1.0815587	,	0
49,21	,	61583	,	-29855	,	-28222	,	-1.905985	,	0
49,21	,	61599	,	-29848	,	-28229	,	-2.3890092	,	0
49,21	,	61631	,	-29856	,	-28222	,	-2.601231	,	0
49,21	,	61648	,	-29857	,	-28233	,	-2.6404467	,	0
49,21	,	61663	,	-29861	,	-28225	,	-2.6582394	,	0
49,21	,	61696	,	-29858	,	-28230	,	-2.7669804	,	0
49,21	,	61712	,	-29869	,	-28239	,	-3.003872	,	0
49,21	,	61727	,	-29875	,	-28233	,	-3.444941	,	0
49,21	,	61760	,	-29875	,	-28233	,	-4.200638	,	0
49,21	,	61776	,	-29858	,	-28236	,	-5.165474	,	0
49,22	,	61807	,	-29873	,	-28266	,	-5.977998	,	0
49,22	,	61824	,	-29875	,	-28223	,	-6.412912	,	0
49,22	,	61839	,	-29896	,	-28238	,	-6.6450286	,	0
49,22	,	61871	,	-29884	,	-28243	,	-7.0269356	,	0
49,22	,	61887	,	-29880	,	-28251	,	-7.6343455	,	0
49,22	,	61903	,	-29889	,	-28240	,	-8.201596	,	0
49,22	,	61935	,	-29891	,	-28247	,	-8.532061	,	0
49,22	,	61951	,	-29886	,	-28242	,	-8.615768	,	0
49,22	,	61967	,	-29900	,	-28240	,	-8.4805355	,	0
49,22	,	62000	,	-29896	,	-28254	,	-8.226582	,	0
49,22	,	62016	,	-29900	,	-28257	,	-7.9793825	,	0
49,22	,	62047	,	-29910	,	-28296	,	-7.8160744	,	0
49,22	,	62063	,	-29911	,	-28245	,	-7.8397703	,	0
49,22	,	62079	,	-29892	,	-28253	,	-8.025357	,	0
49,22	,	62111	,	-29877	,	-28233	,	-7.9433517	,	0
49,22	,	62127	,	-29877	,	-28237	,	-6.976962	,	0
49,22	,	62143	,	-29846	,	-28246	,	-4.731534	,	0
49,22	,	62176	,	-29859	,	-28236	,	-1.1287596	,	2
49,22	,	62191	,	-29862	,	-28233	,	3.4288328	,	5
49,22	,	62223	,	-29864	,	-28233	,	8.036392	,	9
49,22	,	62239	,	-29850	,	-28241	,	11.842586	,	13
49,22	,	62255	,	-29850	,	-28238	,	14.5005045	,	16
49,22	,	62287	,	-29864	,	-28257	,	15.967207	,	18
49,22	,	62303	,	-29853	,	-28208	,	16.196407	,	19
49,22	,	62319	,	-29845	,	-28240	,	15.314018	,	19
49,22	,	62351	,	-29849	,	-28229	,	13.745546	,	19
49,22	,	62367	,	-29840	,	-28242	,	11.945589	,	17
49,22	,	62399	,	-29853	,	-28222	,	10.189146	,	14
49,22	,	62415	,	-29835	,	-28229	,	8.592803	,	10
49,22	,	62431	,	-29846	,	-28247	,	7.2474685	,	6
49,22	,	62463	,	-29849	,	-28235	,	6.167607	,	3
49,22	,	62479	,	-29846	,	-28251	,	5.2013884	,	1
49,22	,	62495	,	-29840	,	-28238	,	4.2507486	,	0
49,22	,	62527	,	-29857	,	-28267	,	3.3309813	,	0
49,22	,	62543	,	-29857	,	-28222	,	2.340636	,	0
49,22	,	62559	,	-29849	,	-28238	,	1.1543553	,	0
49,22	,	62591	,	-29853	,	-28241	,	-0.12107968	,	0
49,22	,	62607	,	-29856	,	-28238	,	-1.2757311	,	0
49,22	,	62639	,	-29870	,	-28244	,	-2.2798736	,	0
49,22	,	62655	,	-29865	,	-28251	,	-3.2894511	,	0
49,22	,	62671	,	-29866	,	-28254	,	-4.3858485	,	0
49,22	,	62703	,	-29850	,	-28255	,	-5.37337	,	0
49,22	,	62719	,	-29864	,	-28249	,	-5.913866	,	0
49,22	,	62735	,	-29865	,	-28255	,	-5.8898954	,	0
49,22	,	62767	,	-29872	,	-28273	,	-5.520288	,	0
49,22	,	62783	,	-29867	,	-28240	,	-5.093751	,	0
49,23	,	62815	,	-29888	,	-28251	,	-4.8250523	,	0
49,23	,	62831	,	-29877	,	-28249	,	-4.905737	,	0
49,23	,	62847	,	-29884	,	-28251	,	-5.37848	,	0
49,23	,	62879	,	-29890	,	-28262	,	-6.113454	,	0
49,23	,	62895	,	-29897	,	-28257	,	-7.031377	,	0
49,23	,	62911	,	-29886	,	-28260	,	-8.065073	,	0
49,23	,	62943	,	-29893	,	-28260	,	-8.985042	,	0
49,23	,	62959	,	-29905	,	-28256	,	-9.603041	,	0
49,23	,	62975	,	-29906	,	-28270	,	-10.0041485	,	0
49,23	,	63007	,	-29899	,	-28293	,	-10.309147	,	0
49,23	,	63023	,	-29892	,	-28247	,	-10.380226	,	0
49,23	,	63055	,	-29913	,	-28267	,	-10.030804	,	0
49,23	,	63071	,	-29914	,	-28283	,	-9.405056	,	0
49,23	,	63087	,	-29910	,	-28268	,	-8.819972	,	0
49,23	,	63119	,	-29889	,	-28257	,	-8.267302	,	0
49,23	,	63135	,	-29884	,	-28270	,	-7.3196435	,	0
49,23	,	63151	,	-29896	,	-28274	,	-5.6174335	,	0
49,23	,	63183	,	-29872	,	-28258	,	-3.2152417	,	1
49,23	,	63199	,	-29884	,	-28263	,	-0.35194445	,	3
49,23	,	63231	,	-29875	,	-28245	,	2.6826963	,	5
49,23	,	63247	,	-29867	,	-28288	,	5.569593	,	8
49,23	,	63263	,	-29865	,	-28239	,	8.137438	,	10
49,23	,	63294	,	-29862	,	-28256	,	10.313821	,	12
49,23	,	63311	,	-29859	,	-28255	,	12.0098715	,	14
49,23	,	63327	,	-29857	,	-28250	,	13.158279	,	15
49,23	,	63359	,	-29859	,	-28261	,	13.725168	,	16
49,23	,	63375	,	-29864	,	-28254	,	13.658521	,	15
49,23	,	63391	,	-29857	,	-28245	,	12.9221735	,	13
49,23	,	63423	,	-29851	,	-28265	,	11.657351	,	11
49,23	,	63439	,	-29855	,	-28254	,	10.168385	,	8
49,23	,	63471	,	-29845	,	-28253	,	8.728666	,	6
49,23	,	63487	,	-29851	,	-28272	,	7.5118585	,	4
49,23	,	63503	,	-29847	,	-28231	,	6.571857	,	2
49,23	,	63534	,	-29851	,	-28265	,	5.83884	,	1
49,23	,	63551	,	-29855	,	-28257	,	5.1796665	,	0
49,23	,	63567	,	-29848	,	-28248	,	4.4773293	,	0
49,23	,	63598	,	-29849	,	-28254	,	3.7303004	,	0
49,23	,	63614	,	-29857	,	-28255	,	2.983506	,	0
49,23	,	63646	,	-29856	,	-28251	,	2.1913202	,	0
49,23	,	63662	,	-29858	,	-28255	,	1.2942597	,	0
49,23	,	63679	,	-29848	,	-28262	,	0.36045468	,	0
49,23	,	63711	,	-29863	,	-28257	,	-0.4697833	,	0
49,23	,	63727	,	-29857	,	-28291	,	-1.1652603	,	0
49,23	,	63742	,	-29865	,	-28236	,	-1.7949237	,	0
49,23	,	63775	,	-29861	,	-28262	,	-2.3983934	,	0
49,24	,	63790	,	-29876	,	-28264	,	-3.014312	,	0
49,24	,	63806	,	-29871	,	-28272	,	-3.735128	,	0
49,24	,	63838	,	-29871	,	-28261	,	-4.576641	,	0
49,24	,	63854	,	-29877	,	-28251	,	-5.4121237	,	0
49,24	,	63887	,	-29879	,	-28267	,	-6.141668	,	0
49,24	,	63903	,	-29898	,	-28265	,	-6.8342533	,	0
49,24	,	63919	,	-29873	,	-28267	,	-7.592224	,	0
49,24	,	63950	,	-29871	,	-28255	,	-8.203625	,	0
49,24	,	63966	,	-29878	,	-28297	,	-8.244274	,	0
49,24	,	63983	,	-29887	,	-28259	,	-7.6256323	,	0
49,24	,	64015	,	-29878	,	-28274	,	-6.6388493	,	0
49,24	,	64030	,	-29899	,	-28269	,	-5.629907	,	0
49,24	,	64062	,	-29905	,	-28269	,	-4.9750624	,	1
49,24	,	64078	,	-29906	,	-28273	,	-5.020792	,	1
49,24	,	64094	,	-29904	,	-28276	,	-5.797069	,	1
49,24	,	64126	,	-29904	,	-28279	,	-6.9850874	,	1
49,24	,	64142	,	-29908	,	-28282	,	-8.177909	,	1
49,24	,	64158	,	-29902	,	-28278	,	-9.071572	,	1
49,24	,	64190	,	-29895	,	-28273	,	-9.42418	,	1
49,24	,	64207	,	-29904	,	-28302	,	-9.054452	,	1
49,24	,	64223	,	-29908	,	-28263	,	-8.040608	,	1
49,24	,	64254	,	-29877	,	-28264	,	-6.5725775	,	1
49,24	,	64270	,	-29878	,	-28260	,	-4.5534315	,	2
49,24	,	64302	,	-29880	,	-28265	,	-1.8329182	,	4
49,24	,	64318	,	-29864	,	-28269	,	1.4167604	,	6
49,24	,	64334	,	-29861	,	-28263	,	4.9195185	,	9
49,24	,	64366	,	-29859	,	-28258	,	8.443255	,	12
49,24	,	64382	,	-29849	,	-28260	,	11.713596	,	15
49,24	,	64398	,	-29844	,	-28245	,	14.513739	,	18
49,24	,	64430	,	-29850	,	-28260	,	16.700874	,	20
49,24	,	64446	,	-29854	,	-28287	,	18.044783	,	21
49,24	,	64478	,	-29850	,	-28249	,	18.29073	,	21
49,24	,	64494	,	-29833	,	-28255	,	17.484232	,	19
49,24	,	64510	,	-29829	,	-28250	,	16.1002	,	17
49,24	,	64542	,	-29847	,	-28248	,	14.621903	,	14
49,24	,	64559	,	-29822	,	-28252	,	13.192917	,	11
49,24	,	64574	,	-29837	,	-28247	,	11.858395	,	8
49,24	,	64606	,	-29816	,	-28243	,	10.73027	,	5
49,24	,	64622	,	-29836	,	-28251	,	9.85714	,	3
49,24	,	64638	,	-29816	,	-28253	,	9.177487	,	1
49,24	,	64670	,	-29828	,	-28257	,	8.615469	,	0
49,24	,	64686	,	-29813	,	-28266	,	8.154425	,	0
49,24	,	64718	,	-29829	,	-28221	,	7.7668786	,	0
49,24	,	64734	,	-29833	,	-28233	,	7.2787457	,	0
49,24	,	64750	,	-29829	,	-28240	,	6.4313755	,	0
49,24	,	64782	,	-29824	,	-28230	,	5.185778	,	0
49,25	,	64798	,	-29836	,	-28246	,	3.7280872	,	0
49,25	,	64814	,	-29829	,	-28243	,	2.2014818	,	0
49,25	,	64846	,	-29835	,	-28244	,	0.6957419	,	0
49,25	,	64862	,	-29838	,	-28242	,	-0.69883025	,	0
49,25	,	64894	,	-29845	,	-28254	,	-1.973585	,	0
49,25	,	64910	,	-29844	,	-28246	,	-3.1882222	,	0
49,25	,	64926	,	-29846	,	-28269	,	-4.3544765	,	0
49,25	,	64958	,	-29857	,	-28241	,	-5.447443	,	0
49,25	,	64974	,	-29858	,	-28260	,	-6.5079327	,	0
49,25	,	64990	,	-29867	,	-28258	,	-7.616111	,	0
49,25	,	65022	,	-29859	,	-28262	,	-8.763415	,	0
49,25	,	65038	,	-29861	,	-28257	,	-9.766387	,	0
49,25	,	65054	,	-29871	,	-28260	,	-10.408308	,	0
49,25	,	65086	,	-29884	,	-28255	,	-10.737859	,	0
49,25	,	65102	,	-29864	,	-28255	,	-10.954201	,	0
49,25	,	65134	,	-29880	,	-28251	,	-11.044481	,	0
49,25	,	65150	,	-29866	,	-28254	,	-10.854868	,	0
49,25	,	65166	,	-29898	,	-28284	,	-10.399763	,	0
49,25	,	65198	,	-29891	,	-28262	,	-9.975145	,	0
49,25	,	65214	,	-29899	,	-28267	,	-9.910966	,	0
49,25	,	65230	,	-29901	,	-28273	,	-10.276325	,	0
49,25	,	65262	,	-29904	,	-28268	,	-10.935497	,	0
49,25	,	65278	,	-29901	,	-28278	,	-11.66103	,	0
49,25	,	65310	,	-29906	,	-28265	,	-12.192476	,	0
49,25	,	65326	,	-29888	,	-28261	,	-12.278952	,	0
49,25	,	65342	,	-29867	,	-28267	,	-11.531062	,	0
49,25	,	65374	,	-29862	,	-28252	,	-9.440227	,	0
49,25	,	65390	,	-29861	,	-28259	,	-5.82713	,	2
49,25	,	65406	,	-29849	,	-28290	,	-1.0567074	,	5
49,25	,	65438	,	-29856	,	-28253	,	4.2191153	,	9
49,25	,	65454	,	-29859	,	-28263	,	9.226687	,	14
49,25	,	65470	,	-29849	,	-28252	,	13.23826	,	19
49,25	,	65502	,	-29842	,	-28256	,	15.925368	,	23
49,25	,	65518	,	-29860	,	-28254	,	17.307947	,	25
49,25	,	65550	,	-29853	,	-28256	,	17.387772	,	26
49,25	,	65566	,	-29866	,	-28271	,	16.149195	,	26
49,25	,	65582	,	-29860	,	-28267	,	13.740433	,	24
49,25	,	65614	,	-29861	,	-28254	,	10.523995	,	21
49,25	,	65630	,	-29840	,	-28262	,	7.1045136	,	17
49,25	,	65646	,	-29840	,	-28276	,	4.236866	,	12
49,25	,	65678	,	-29847	,	-28241	,	2.440991	,	7
49,25	,	65694	,	-29850	,	-28249	,	1.678786	,	3
49,25	,	65726	,	-29853	,	-28255	,	1.5365043	,	1
49,25	,	65742	,	-29851	,	-28257	,	1.6041843	,	0
49,25	,	65758	,	-29835	,	-28251	,	1.7213342	,	0
49,25	,	65790	,	-29849	,	-28265	,	1.9608297	,	0
49,26	,	65806	,	-29844	,	-28275	,	2.3211508	,	0
49,26	,	65822	,	-29849	,	-28260	,	2.6282208	,	0
49,26	,	65854	,	-29860	,	-28261	,	2.6640465	,	0
49,26	,	65870	,	-29859	,	-28268	,	2.2075589	,	0
49,26	,	65886	,	-29847	,	-28286	,	1.2329922	,	0
49,26	,	65918	,	-29861	,	-28263	,	0.010372281	,	0
49,26	,	65934	,	-29865	,	-28277	,	-1.2377889	,	0
49,26	,	65966	,	-29866	,	-28271	,	-2.5072563	,	0
49,26	,	65982	,	-29869	,	-28267	,	-3.8016677	,	0
49,26	,	65998	,	-29878	,	-28269	,	-5.078844	,	0
49,26	,	66030	,	-29868	,	-28269	,	-6.292106	,	0
49,26	,	66046	,	-29877	,	-28272	,	-7.3138065	,	0
49,26	,	66062	,	-29885	,	-28277	,	-8.051662	,	0
49,26	,	66094	,	-29882	,	-28265	,	-8.580167	,	0
49,26	,	66110	,	-29878	,	-28284	,	-8.937649	,	0
49,26	,	66142	,	-29880	,	-28309	,	-9.0021925	,	0
49,26	,	66158	,	-29892	,	-28288	,	-8.71474	,	0
49,26	,	66174	,	-29902	,	-28289	,	-8.293585	,	0
49,26	,	66205	,	-29918	,	-28274	,	-8.176951	,	0
49,26	,	66222	,	-29905	,	-28291	,	-8.695619	,	0
49,26	,	66238	,	-29906	,	-28285	,	-9.7227	,	0
49,26	,	66270	,	-29914	,	-28292	,	-10.816029	,	0
49,26	,	66286	,	-29909	,	-28292	,	-11.637754	,	0
49,26	,	66302	,	-29904	,	-28292	,	-11.9756775	,	0
49,26	,	66333	,	-29918	,	-28292	,	-11.700564	,	0
49,26	,	66349	,	-29895	,	-28287	,	-10.833519	,	0
49,26	,	66382	,	-29897	,	-28308	,	-9.357239	,	0
49,26	,	66397	,	-29889	,	-28265	,	-7.186703	,	1
49,26	,	66413	,	-29881	,	-28279	,	-4.359981	,	3
49,26	,	66446	,	-29874	,	-28280	,	-1.0110626	,	5
49,26	,	66462	,	-29877	,	-28270	,	2.6425455	,	8
49,26	,	66478	,	-29872	,	-28277	,	6.233942	,	11
49,26	,	66509	,	-29875	,	-28273	,	9.341946	,	14
49,26	,	66525	,	-29870	,	-28277	,	11.63802	,	17
49,26	,	66557	,	-29876	,	-28271	,	12.941368	,	19
49,26	,	66574	,	-29871	,	-28280	,	13.215587	,	20
49,26	,	66590	,	-29861	,	-28273	,	12.628557	,	19
49,26	,	66622	,	-29871	,	-28282	,	11.5215025	,	17
49,26	,	66638	,	-29864	,	-28267	,	10.171295	,	15
49,26	,	66654	,	-29855	,	-28269	,	8.774618	,	12
49,26	,	66686	,	-29852	,	-28267	,	7.603724	,	9
49,26	,	66702	,	-29847	,	-28270	,	6.9093165	,	6
49,26	,	66717	,	-29861	,	-28261	,	6.7013254	,	3
49,26	,	66749	,	-29867	,	-28258	,	6.647052	,	1
49,26	,	66765	,	-29857	,	-28270	,	6.312855	,	0
49,27	,	66797	,	-29848	,	-28255	,	5.615702	,	0
49,27	,	66813	,	-29856	,	-28267	,	4.8178067	,	0
49,27	,	66829	,	-29845	,	-28274	,	4.157937	,	0
49,27	,	66861	,	-29855	,	-28281	,	3.7241108	,	0
49,27	,	66877	,	-29852	,	-28266	,	3.4663	,	0
49,27	,	66894	,	-29850	,	-28273	,	3.2585554	,	0
49,27	,	66925	,	-29862	,	-28281	,	2.992267	,	0
49,27	,	66941	,	-29855	,	-28264	,	2.5518415	,	0
49,27	,	66973	,	-29856	,	-28276	,	1.8979622	,	0
49,27	,	66989	,	-29863	,	-28280	,	1.1130291	,	0
49,27	,	67006	,	-29879	,	-28275	,	0.16497326	,	0
49,27	,	67038	,	-29880	,	-28274	,	-1.1673023	,	0
49,27	,	67053	,	-29870	,	-28281	,	-2.9482741	,	0
49,27	,	67069	,	-29872	,	-28275	,	-4.8456044	,	0
49,27	,	67101	,	-29875	,	-28284	,	-6.4054933	,	0
49,27	,	67118	,	-29882	,	-28271	,	-7.421458	,	0
49,27	,	67133	,	-29885	,	-28279	,	-7.9754095	,	0
49,27	,	67165	,	-29887	,	-28283	,	-8.258513	,	0
49,27	,	67181	,	-29889	,	-28284	,	-8.40804	,	0
49,27	,	67213	,	-29893	,	-28276	,	-8.482861	,	0
49,27	,	67229	,	-29892	,	-28282	,	-8.497166	,	0
49,27	,	67245	,	-29891	,	-28285	,	-8.410662	,	0
49,27	,	67277	,	-29901	,	-28293	,	-8.188132	,	0
49,27	,	67293	,	-29918	,	-28277	,	-7.9893527	,	0
49,27	,	67310	,	-29894	,	-28299	,	-8.048618	,	0
49,27	,	67341	,	-29918	,	-28299	,	-8.332698	,	0
49,27	,	67357	,	-29918	,	-28292	,	-8.722524	,	0
49,27	,	67389	,	-29930	,	-28292	,	-9.289766	,	0
49,27	,	67405	,	-29925	,	-28302	,	-10.110265	,	0
49,27	,	67421	,	-29915	,	-28290	,	-11.013417	,	0
49,27	,	67453	,	-29924	,	-28297	,	-11.618015	,	0
49,27	,	67469	,	-29931	,	-28296	,	-11.690368	,	0
49,27	,	67485	,	-29921	,	-28294	,	-11.284897	,	0
49,27	,	67517	,	-29904	,	-28286	,	-10.385301	,	0
49,27	,	67533	,	-29890	,	-28290	,	-8.67807	,	0
49,27	,	67565	,	-29878	,	-28284	,	-5.7925014	,	1
49,27	,	67581	,	-29879	,	-28289	,	-1.6717811	,	3
49,27	,	67597	,	-29875	,	-28272	,	3.2745342	,	7
49,27	,	67629	,	-29877	,	-28262	,	8.327117	,	11
49,27	,	67645	,	-29871	,	-28272	,	12.761357	,	16
49,27	,	67661	,	-29864	,	-28273	,	16.114145	,	20
49,27	,	67693	,	-29860	,	-28267	,	18.278679	,	23
49,27	,	67709	,	-29847	,	-28271	,	19.418213	,	25
49,27	,	67725	,	-29868	,	-28268	,	19.735506	,	26
49,27	,	67757	,	-29874	,	-28271	,	19.16592	,	25
49,27	,	67773	,	-29872	,	-28258	,	17.474943	,	23
49,28	,	67805	,	-29862	,	-28277	,	14.737488	,	19
49,28	,	67821	,	-29858	,	-28282	,	11.47183	,	15
49,28	,	67837	,	-29856	,	-28264	,	8.330758	,	10
49,28	,	67869	,	-29853	,	-28265	,	5.79348	,	6
49,28	,	67885	,	-29854	,	-28257	,	4.0672235	,	3
49,28	,	67901	,	-29844	,	-28257	,	3.1639857	,	1
49,28	,	67933	,	-29850	,	-28258	,	2.9988997	,	0
49,28	,	67949	,	-29849	,	-28255	,	3.3624802	,	0
49,28	,	67965	,	-29839	,	-28262	,	3.9861436	,	0
49,28	,	67997	,	-29853	,	-28256	,	4.6726456	,	0
49,28	,	68013	,	-29849	,	-28261	,	5.2018056	,	0
49,28	,	68045	,	-29850	,	-28262	,	5.3503585	,	0
49,28	,	68061	,	-29850	,	-28261	,	5.0665894	,	0
49,28	,	68077	,	-29860	,	-28260	,	4.3909683	,	0
49,28	,	68109	,	-29858	,	-28260	,	3.3197334	,	0
49,28	,	68125	,	-29869	,	-28256	,	1.848419	,	0
49,28	,	68141	,	-29861	,	-28263	,	0.055338383	,	0
49,28	,	68173	,	-29859	,	-28263	,	-1.8202147	,	0
49,28	,	68189	,	-29852	,	-28264	,	-3.3894465	,	0
49,28	,	68221	,	-29860	,	-28264	,	-4.322753	,	0
49,28	,	68237	,	-29869	,	-28256	,	-4.6071095	,	0
49,28	,	68253	,	-29870	,	-28269	,	-4.5519514	,	0
49,28	,	68285	,	-29868	,	-28272	,	-4.4752636	,	0
49,28	,	68301	,	-29875	,	-28271	,	-4.499852	,	0
49,28	,	68317	,	-29881	,	-28260	,	-4.678344	,	0
49,28	,	68349	,	-29883	,	-28271	,	-5.091267	,	0
49,28	,	68365	,	-29898	,	-28277	,	-5.823797	,	0
49,28	,	68397	,	-29896	,	-28269	,	-6.9445925	,	0
49,28	,	68413	,	-29899	,	-28266	,	-8.39225	,	0
49,28	,	68429	,	-29899	,	-28267	,	-9.914703	,	0
49,28	,	68461	,	-29902	,	-28275	,	-11.212677	,	0
49,28	,	68477	,	-29908	,	-28268	,	-12.103848	,	0
49,28	,	68493	,	-29897	,	-28279	,	-12.51308	,	0
49,28	,	68525	,	-29906	,	-28290	,	-12.367178	,	0
49,28	,	68541	,	-29911	,	-28285	,	-11.694744	,	0
49,28	,	68557	,	-29917	,	-28292	,	-10.748405	,	0
49,28	,	68589	,	-29919	,	-28281	,	-9.851189	,	0
49,28	,	68605	,	-29920	,	-28287	,	-9.193907	,	0
49,28	,	68637	,	-29912	,	-28284	,	-8.747358	,	0
49,28	,	68653	,	-29899	,	-28286	,	-8.233263	,	0
49,28	,	68669	,	-29887	,	-28282	,	-7.1904106	,	0
49,28	,	68701	,	-29886	,	-28277	,	-5.232527	,	1
49,28	,	68717	,	-29887	,	-28278	,	-2.3558078	,	2
49,28	,	68732	,	-29882	,	-28282	,	1.0525377	,	4
49,28	,	68765	,	-29866	,	-28289	,	4.5622635	,	7
49,28	,	68781	,	-29878	,	-28279	,	7.900447	,	10
49,29	,	68812	,	-29879	,	-28268	,	10.738438	,	13
49,29	,	68828	,	-29871	,	-28265	,	12.68122	,	15
49,29	,	68845	,	-29879	,	-28271	,	13.549299	,	16
49,29	,	68877	,	-29890	,	-28280	,	13.313992	,	16
49,29	,	68893	,	-29888	,	-28290	,	11.941238	,	15
49,29	,	68909	,	-29889	,	-28266	,	9.55752	,	14
49,29	,	68941	,	-29870	,	-28278	,	6.628627	,	12
49,29	,	68957	,	-29861	,	-28265	,	3.9257278	,	9
49,29	,	68973	,	-29867	,	-28280	,	2.1623464	,	6
49,29	,	69005	,	-29869	,	-28271	,	1.532733	,	3
49,29	,	69021	,	-29891	,	-28278	,	1.6322755	,	1
49,29	,	69052	,	-29868	,	-28274	,	1.8413177	,	0
49,29	,	69069	,	-29874	,	-28275	,	1.8653991	,	0
49,29	,	69085	,	-29865	,	-28272	,	1.8083385	,	0
49,29	,	69117	,	-29868	,	-28277	,	1.8411444	,	0
49,29	,	69133	,	-29873	,	-28272	,	2.0021596	,	0
49,29	,	69148	,	-29870	,	-28280	,	2.1804183	,	0
49,29	,	69180	,	-29883	,	-28281	,	2.194274	,	0
49,29	,	69197	,	-29893	,	-28272	,	1.79196	,	0
49,29	,	69228	,	-29881	,	-28283	,	0.77495635	,	0
49,29	,	69245	,	-29879	,	-28282	,	-0.68629074	,	0
49,29	,	69260	,	-29886	,	-28284	,	-2.1670814	,	0
49,29	,	69293	,	-29891	,	-28281	,	-3.4225364	,	0
49,29	,	69309	,	-29891	,	-28289	,	-4.4546776	,	0
49,29	,	69325	,	-29896	,	-28296	,	-5.313471	,	0
49,29	,	69357	,	-29895	,	-28294	,	-6.016118	,	0
49,29	,	69373	,	-29897	,	-28293	,	-6.5434113	,	0
49,29	,	69389	,	-29898	,	-28288	,	-6.855118	,	0
49,29	,	69421	,	-29896	,	-28307	,	-6.9210005	,	0
49,29	,	69436	,	-29907	,	-28304	,	-6.7642937	,	0
49,29	,	69469	,	-29925	,	-28295	,	-6.6092434	,	0
49,29	,	69485	,	-29922	,	-28300	,	-6.851958	,	0
49,29	,	69500	,	-29918	,	-28298	,	-7.649534	,	0
49,29	,	69533	,	-29906	,	-28296	,	-8.664046	,	0
49,29	,	69548	,	-29922	,	-28298	,	-9.373799	,	0
49,29	,	69564	,	-29915	,	-28308	,	-9.528431	,	0
49,29	,	69596	,	-29925	,	-28307	,	-9.190554	,	0
49,29	,	69612	,	-29933	,	-28308	,	-8.596679	,	0
49,29	,	69645	,	-29936	,	-28309	,	-8.083162	,	0
49,29	,	69661	,	-29912	,	-28311	,	-7.7738547	,	0
49,29	,	69677	,	-29938	,	-28306	,	-7.4502068	,	0
49,29	,	69708	,	-29912	,	-28302	,	-6.904557	,	0
49,29	,	69724	,	-29906	,	-28297	,	-5.961198	,	0
49,29	,	69740	,	-29901	,	-28277	,	-4.341259	,	0
49,29	,	69772	,	-29896	,	-28294	,	-1.9298229	,	1
49,29	,	69789	,	-29890	,	-28286	,	1.1070638	,	3
49,30	,	69805	,	-29890	,	-28287	,	4.4538336	,	6
49,30	,	69837	,	-29881	,	-28279	,	7.7464876	,	9
49,30	,	69852	,	-29890	,	-28272	,	10.636795	,	12
49,30	,	69884	,	-29883	,	-28277	,	12.800452	,	14
49,30	,	69900	,	-29871	,	-28289	,	14.087109	,	16
49,30	,	69916	,	-29875	,	-28280	,	14.634796	,	17
49,30	,	69948	,	-29865	,	-28285	,	14.673405	,	17
49,30	,	69964	,	-29874	,	-28284	,	14.348267	,	16
49,30	,	69996	,	-29875	,	-28268	,	13.661942	,	14
49,30	,	70012	,	-29888	,	-28276	,	12.458794	,	11
49,30	,	70028	,	-29876	,	-28283	,	10.60939	,	8
49,30	,	70060	,	-29873	,	-28271	,	8.28275	,	5
49,30	,	70076	,	-29880	,	-28273	,	5.879535	,	3
49,30	,	70092	,	-29868	,	-28278	,	3.7362971	,	1
49,30	,	70124	,	-29870	,	-28272	,	2.0880377	,	0
49,30	,	70140	,	-29874	,	-28274	,	1.0607481	,	0
49,30	,	70172	,	-29880	,	-28277	,	0.54066765	,	0
49,30	,	70188	,	-29873	,	-28268	,	0.27428633	,	0
49,30	,	70204	,	-29879	,	-28284	,	0.08789137	,	0
49,30	,	70236	,	-29871	,	-28259	,	-0.06419748	,	0
49,30	,	70252	,	-29881	,	-28270	,	-0.17527483	,	0
49,30	,	70268	,	-29885	,	-28273	,	-0.31236988	,	0
49,30	,	70300	,	-29881	,	-28270	,	-0.6060744	,	0
49,30	,	70316	,	-29898	,	-28280	,	-1.1410626	,	0
49,30	,	70348	,	-29883	,	-28279	,	-1.9497786	,	0
49,30	,	70364	,	-29888	,	-28284	,	-2.914859	,	0
49,30	,	70380	,	-29904	,	-28281	,	-3.8555925	,	0
49,30	,	70412	,	-29891	,	-28286	,	-4.759591	,	0
49,30	,	70428	,	-29901	,	-28291	,	-5.617621	,	0
49,30	,	70444	,	-29894	,	-28282	,	-6.3011365	,	0
49,30	,	70476	,	-29899	,	-28281	,	-6.688213	,	0
49,30	,	70492	,	-29903	,	-28276	,	-6.7465625	,	0
49,30	,	70508	,	-29896	,	-28281	,	-6.5365853	,	0
49,30	,	70540	,	-29913	,	-28290	,	-6.167398	,	0
49,30	,	70556	,	-29909	,	-28293	,	-5.8232174	,	0
49,30	,	70588	,	-29915	,	-28290	,	-5.6892853	,	0
49,30	,	70604	,	-29903	,	-28286	,	-5.7576547	,	0
49,30	,	70620	,	-29905	,	-28290	,	-5.8042507	,	0
49,30	,	70652	,	-29920	,	-28293	,	-5.6553917	,	0
49,30	,	70668	,	-29908	,	-28290	,	-5.38402	,	0
49,30	,	70684	,	-29931	,	-28296	,	-5.1671824	,	0
49,30	,	70716	,	-29927	,	-28293	,	-5.2103043	,	0
49,30	,	70732	,	-29927	,	-28285	,	-5.651003	,	0
49,30	,	70764	,	-29927	,	-28295	,	-6.365934	,	0
49,30	,	70780	,	-29933	,	-28295	,	-7.1061506	,	0
49,31	,	70796	,	-29930	,	-28295	,	-7.702987	,	0
49,31	,	70828	,	-29928	,	-28310	,	-8.028015	,	0
49,31	,	70844	,	-29931	,	-28297	,	-7.962619	,	0
49,31	,	70860	,	-29927	,	-28296	,	-7.4760904	,	0
49,31	,	70892	,	-29902	,	-28300	,	-6.4997263	,	0
49,31	,	70908	,	-29905	,	-28299	,	-4.7792225	,	0
49,31	,	70924	,	-29898	,	-28287	,	-2.1659617	,	1
49,31	,	70956	,	-29900	,	-28284	,	1.1071739	,	3
49,31	,	70972	,	-29894	,	-28286	,	4.5779366	,	6
49,31	,	71004	,	-29890	,	-28269	,	7.814755	,	9
49,31	,	71020	,	-29872	,	-28278	,	10.611181	,	12
49,31	,	71036	,	-29875	,	-28274	,	13.005431	,	14
49,31	,	71068	,	-29874	,	-28263	,	15.020591	,	16
49,31	,	71084	,	-29870	,	-28270	,	16.511906	,	18
49,31	,	71100	,	-29877	,	-28266	,	17.286518	,	19
49,31	,	71132	,	-29876	,	-28267	,	17.182127	,	18
49,31	,	71148	,	-29877	,	-28275	,	16.132488	,	16
49,31	,	71180	,	-29859	,	-28254	,	14.336099	,	13
49,31	,	71196	,	-29847	,	-28264	,	12.351139	,	10
49,31	,	71211	,	-29854	,	-28246	,	10.8148155	,	7
49,31	,	71244	,	-29849	,	-28263	,	9.98467	,	5
49,31	,	71260	,	-29853	,	-28265	,	9.704401	,	3
49,31	,	71276	,	-29849	,	-28266	,	9.673778	,	1
49,31	,	71308	,	-29848	,	-28253	,	9.641678	,	0
49,31	,	71323	,	-29855	,	-28264	,	9.443787	,	0
49,31	,	71340	,	-29852	,	-28262	,	8.940651	,	0
49,31	,	71372	,	-29858	,	-28264	,	8.035988	,	0
49,31	,	71388	,	-29850	,	-28264	,	6.7533417	,	0
49,31	,	71420	,	-29844	,	-28257	,	5.3018904	,	0
49,31	,	71436	,	-29850	,	-28257	,	3.9933662	,	0
49,31	,	71452	,	-29854	,	-28251	,	2.9693222	,	0
49,31	,	71484	,	-29855	,	-28258	,	2.1360984	,	0
49,31	,	71500	,	-29863	,	-28250	,	1.3274103	,	0
49,31	,	71516	,	-29851	,	-28259	,	0.4443965	,	0
49,31	,	71547	,	-29863	,	-28278	,	-0.46979225	,	0
49,31	,	71564	,	-29865	,	-28265	,	-1.3595911	,	0
49,31	,	71596	,	-29862	,	-28257	,	-2.2451618	,	0
49,31	,	71612	,	-29870	,	-28270	,	-3.108456	,	0
49,31	,	71628	,	-29859	,	-28253	,	-3.8641305	,	0
49,31	,	71660	,	-29875	,	-28260	,	-4.429897	,	0
49,31	,	71676	,	-29873	,	-28265	,	-4.8419414	,	0
49,31	,	71692	,	-29872	,	-28270	,	-5.2097535	,	0
49,31	,	71724	,	-29884	,	-28269	,	-5.5795	,	0
49,31	,	71740	,	-29878	,	-28275	,	-5.9817033	,	0
49,31	,	71756	,	-29888	,	-28263	,	-6.438323	,	0
49,31	,	71787	,	-29881	,	-28280	,	-6.9133854	,	0
49,32	,	71803	,	-29894	,	-28279	,	-7.3496695	,	0
49,32	,	71835	,	-29897	,	-28283	,	-7.763488	,	0
49,32	,	71851	,	-29896	,	-28284	,	-8.2313	,	0
49,32	,	71868	,	-29900	,	-28283	,	-8.7380085	,	0
49,32	,	71900	,	-29909	,	-28289	,	-9.217079	,	0
49,32	,	71915	,	-29913	,	-28283	,	-9.70023	,	0
49,32	,	71931	,	-29924	,	-28298	,	-10.302619	,	0
49,32	,	71963	,	-29924	,	-28288	,	-11.1195965	,	0
49,32	,	71980	,	-29896	,	-28281	,	-11.9725	,	0
49,32	,	72011	,	-29902	,	-28281	,	-12.276979	,	0
49,32	,	72028	,	-29891	,	-28270	,	-11.47434	,	0
49,32	,	72043	,	-29888	,	-28270	,	-9.417549	,	0
49,32	,	72076	,	-29893	,	-28270	,	-6.337803	,	2
49,32	,	72091	,	-29878	,	-28270	,	-2.6916404	,	5
49,32	,	72107	,	-29876	,	-28269	,	1.1092186	,	8
49,32	,	72140	,	-29875	,	-28270	,	4.7850566	,	11
49,32	,	72156	,	-29877	,	-28274	,	8.026029	,	14
49,32	,	72172	,	-29875	,	-28269	,	10.499141	,	17
49,32	,	72203	,	-29886	,	-28278	,	11.94934	,	19
49,32	,	72219	,	-29880	,	-28284	,	12.233906	,	20
49,32	,	72251	,	-29883	,	-28273	,	11.404139	,	20
49,32	,	72267	,	-29875	,	-28277	,	9.754396	,	18
49,32	,	72283	,	-29889	,	-28271	,	7.6660757	,	15
49,32	,	72315	,	-29882	,	-28274	,	5.404872	,	12
49,32	,	72331	,	-29878	,	-28269	,	3.184091	,	9
49,32	,	72347	,	-29877	,	-28272	,	1.2946289	,	6
49,32	,	72379	,	-29867	,	-28271	,	0.023608446	,	3
49,32	,	72395	,	-29877	,	-28280	,	-0.48645496	,	1
49,32	,	72427	,	-29862	,	-28268	,	-0.28606343	,	0
49,32	,	72443	,	-29880	,	-28269	,	0.42689407	,	0
49,32	,	72459	,	-29887	,	-28273	,	1.2585893	,	0
49,32	,	72491	,	-29882	,	-28271	,	1.7149913	,	0
49,32	,	72507	,	-29868	,	-28268	,	1.6481302	,	0
49,32	,	72523	,	-29882	,	-28290	,	1.3136442	,	0
49,32	,	72556	,	-29882	,	-28280	,	0.9020851	,	0
49,32	,	72571	,	-29880	,	-28284	,	0.40411645	,	0
49,32	,	72587	,	-29882	,	-28272	,	-0.15554035	,	0
49,32	,	72619	,	-29895	,	-28268	,	-0.75232494	,	0
49,32	,	72635	,	-29892	,	-28276	,	-1.4927675	,	0
49,32	,	72667	,	-29890	,	-28287	,	-2.434632	,	0
49,32	,	72683	,	-29897	,	-28282	,	-3.461982	,	0
49,32	,	72699	,	-29902	,	-28281	,	-4.4706807	,	0
49,32	,	72731	,	-29901	,	-28286	,	-5.4529905	,	0
49,32	,	72747	,	-29908	,	-28284	,	-6.3921165	,	0
49,32	,	72763	,	-29889	,	-28281	,	-7.1610885	,	0
49,33	,	72795	,	-29906	,	-28289	,	-7.5307875	,	0
49,33	,	72811	,	-29906	,	-28295	,	-7.4280176	,	0
49,33	,	72843	,	-29901	,	-28291	,	-7.0067444	,	0
49,33	,	72859	,	-29923	,	-28290	,	-6.475773	,	0
49,33	,	72875	,	-29911	,	-28297	,	-6.0865307	,	0
49,33	,	72907	,	-29919	,	-28289	,	-5.9937134	,	0
49,33	,	72923	,	-29918	,	-28285	,	-6.1441765	,	0
49,33	,	72939	,	-29934	,	-28298	,	-6.487176	,	0
49,33	,	72971	,	-29922	,	-28298	,	-7.041419	,	0
49,33	,	72987	,	-29933	,	-28297	,	-7.7281384	,	0
49,33	,	73019	,	-29926	,	-28284	,	-8.360481	,	0
49,33	,	73035	,	-29909	,	-28276	,	-8.659214	,	0
49,33	,	73051	,	-29907	,	-28287	,	-8.213835	,	0
49,33	,	73083	,	-29903	,	-28271	,	-6.7301188	,	0
49,33	,	73099	,	-29888	,	-28273	,	-4.2127695	,	1
49,33	,	73115	,	-29884	,	-28273	,	-0.81741095	,	3
49,33	,	73147	,	-29876	,	-28272	,	3.2055373	,	6
49,33	,	73163	,	-29880	,	-28264	,	7.4442396	,	10
49,33	,	73179	,	-29883	,	-28268	,	11.329184	,	14
49,33	,	73211	,	-29868	,	-28263	,	14.338684	,	17
49,33	,	73227	,	-29883	,	-28256	,	16.227928	,	20
49,33	,	73259	,	-29867	,	-28275	,	16.96975	,	21
49,33	,	73275	,	-29868	,	-28281	,	16.711203	,	21
49,33	,	73291	,	-29876	,	-28291	,	15.715048	,	20
49,33	,	73323	,	-29865	,	-28257	,	14.180605	,	18
49,33	,	73339	,	-29857	,	-28270	,	12.356523	,	15
49,33	,	73355	,	-29862	,	-28259	,	10.6040535	,	11
49,33	,	73387	,	-29858	,	-28267	,	9.1464615	,	7
49,33	,	73403	,	-29857	,	-28262	,	8.009651	,	4
49,33	,	73435	,	-29862	,	-28268	,	7.1334505	,	1
49,33	,	73451	,	-29849	,	-28264	,	6.4431124	,	0
49,33	,	73467	,	-29848	,	-28259	,	5.962974	,	0
49,33	,	73499	,	-29860	,	-28271	,	5.7174997	,	0
49,33	,	73515	,	-29857	,	-28260	,	5.523688	,	0
49,33	,	73531	,	-29865	,	-28276	,	5.112394	,	0
49,33	,	73563	,	-29855	,	-28250	,	4.3598976	,	0
49,33	,	73579	,	-29875	,	-28252	,	3.2787406	,	0
49,33	,	73595	,	-29869	,	-28260	,	1.8656039	,	0
49,33	,	73627	,	-29863	,	-28272	,	0.1901555	,	0
49,33	,	73643	,	-29879	,	-28267	,	-1.5194435	,	0
49,33	,	73675	,	-29874	,	-28275	,	-3.1131268	,	0
49,33	,	73691	,	-29870	,	-28272	,	-4.513946	,	0
49,33	,	73707	,	-29865	,	-28276	,	-5.5151896	,	0
49,33	,	73739	,	-29876	,	-28272	,	-5.9254107	,	0
49,33	,	73755	,	-29885	,	-28265	,	-5.855569	,	0
49,33	,	73771	,	-29883	,	-28286	,	-5.6608877	,	0
49,34	,	73802	,	-29890	,	-28266	,	-5.619211	,	0
49,34	,	73818	,	-29900	,	-28269	,	-5.8684654	,	0
49,34	,	73851	,	-29884	,	-28287	,	-6.4390454	,	0
49,34	,	73867	,	-29896	,	-28274	,	-7.1469994	,	0
49,34	,	73883	,	-29895	,	-28269	,	-7.7497263	,	0
49,34	,	73915	,	-29885	,	-28274	,	-8.095274	,	0
49,34	,	73931	,	-29896	,	-28270	,	-8.041597	,	0
49,34	,	73947	,	-29893	,	-28270	,	-7.5529537	,	0
49,34	,	73979	,	-29906	,	-28282	,	-6.8049536	,	0
49,34	,	73995	,	-29915	,	-28279	,	-6.1461987	,	0
49,34	,	74011	,	-29894	,	-28278	,	-5.8574896	,	0
49,34	,	74043	,	-29913	,	-28271	,	-5.872713	,	0
49,34	,	74059	,	-29916	,	-28289	,	-6.038962	,	0
49,34	,	74091	,	-29915	,	-28275	,	-6.3739963	,	0
49,34	,	74107	,	-29903	,	-28270	,	-6.7907877	,	0
49,34	,	74123	,	-29896	,	-28280	,	-6.9318104	,	0
49,34	,	74155	,	-29883	,	-28270	,	-6.344569	,	0
49,34	,	74171	,	-29877	,	-28270	,	-4.6986084	,	0
49,34	,	74187	,	-29878	,	-28277	,	-1.9734037	,	1
49,34	,	74218	,	-29864	,	-28261	,	1.5242186	,	3
49,34	,	74234	,	-29848	,	-28251	,	5.459772	,	6
49,34	,	74267	,	-29843	,	-28273	,	9.6622505	,	9
49,34	,	74283	,	-29847	,	-28248	,	13.891378	,	13
49,34	,	74299	,	-29856	,	-28253	,	17.60202	,	17
49,34	,	74331	,	-29851	,	-28266	,	20.119518	,	20
49,34	,	74347	,	-29851	,	-28261	,	21.051373	,	22
49,34	,	74363	,	-29850	,	-28255	,	20.439796	,	22
49,34	,	74394	,	-29844	,	-28261	,	18.620522	,	21
49,34	,	74410	,	-29842	,	-28255	,	16.08513	,	19
49,34	,	74426	,	-29846	,	-28253	,	13.312824	,	16
49,34	,	74458	,	-29832	,	-28247	,	10.662353	,	13
49,34	,	74474	,	-29838	,	-28239	,	8.42778	,	9
49,34	,	74507	,	-29842	,	-28264	,	6.746887	,	5
49,34	,	74523	,	-29832	,	-28242	,	5.5441976	,	2
49,34	,	74539	,	-29832	,	-28253	,	4.7481947	,	0
49,34	,	74570	,	-29841	,	-28236	,	4.3009515	,	0
49,34	,	74586	,	-29839	,	-28237	,	4.001189	,	0
49,34	,	74602	,	-29837	,	-28240	,	3.6345642	,	0
49,34	,	74635	,	-29832	,	-28248	,	3.169379	,	0
49,34	,	74651	,	-29835	,	-28242	,	2.7072277	,	0
49,34	,	74682	,	-29837	,	-28247	,	2.3127022	,	0
49,34	,	74698	,	-29837	,	-28254	,	1.9570568	,	0
49,34	,	74715	,	-29834	,	-28253	,	1.6094376	,	0
49,34	,	74747	,	-29844	,	-28256	,	1.2524592	,	0
49,34	,	74763	,	-29840	,	-28241	,	0.8172318	,	0
49,34	,	74778	,	-29849	,	-28236	,	0.2256335	,	0
49,35	,	74810	,	-29848	,	-28247	,	-0.5656612	,	0
49,35	,	74826	,	-29857	,	-28246	,	-1.5823873	,	0
49,35	,	74842	,	-29852	,	-28244	,	-2.8002381	,	0
49,35	,	74874	,	-29842	,	-28245	,	-4.02951	,	0
49,35	,	74890	,	-29852	,	-28247	,	-4.947294	,	0
49,35	,	74922	,	-29849	,	-28241	,	-5.3707266	,	0
49,35	,	74938	,	-29857	,	-28248	,	-5.3633637	,	0
49,35	,	74954	,	-29856	,	-28241	,	-5.109378	,	0
49,35	,	74986	,	-29854	,	-28261	,	-4.7679105	,	0
49,35	,	75002	,	-29854	,	-28236	,	-4.3757277	,	0
49,35	,	75018	,	-29874	,	-28253	,	-3.993688	,	0
49,35	,	75050	,	-29873	,	-28261	,	-3.8866823	,	0
49,35	,	75066	,	-29884	,	-28265	,	-4.3479624	,	0
49,35	,	75098	,	-29883	,	-28253	,	-5.457326	,	0
49,35	,	75114	,	-29891	,	-28258	,	-7.0788007	,	0
49,35	,	75130	,	-29872	,	-28262	,	-8.8751135	,	0
49,35	,	75162	,	-29878	,	-28263	,	-10.316854	,	0
49,35	,	75178	,	-29885	,	-28260	,	-10.984404	,	0
49,35	,	75194	,	-29889	,	-28259	,	-10.880499	,	0
49,35	,	75226	,	-29886	,	-28287	,	-10.268585	,	0
49,35	,	75242	,	-29883	,	-28244	,	-9.344031	,	0
49,35	,	75258	,	-29859	,	-28246	,	-8.055497	,	0
49,35	,	75290	,	-29853	,	-28253	,	-6.083397	,	1
49,35	,	75306	,	-29850	,	-28249	,	-3.1520858	,	2
49,35	,	75338	,	-29854	,	-28253	,	0.5789809	,	4
49,35	,	75354	,	-29839	,	-28252	,	4.6018333	,	7
49,35	,	75370	,	-29839	,	-28249	,	8.453741	,	11
49,35	,	75402	,	-29843	,	-28237	,	11.797039	,	14
49,35	,	75418	,	-29850	,	-28251	,	14.242905	,	17
49,35	,	75434	,	-29847	,	-28247	,	15.420525	,	19
49,35	,	75466	,	-29847	,	-28272	,	15.220535	,	20
49,35	,	75482	,	-29851	,	-28239	,	13.823368	,	19
49,35	,	75514	,	-29856	,	-28246	,	11.520342	,	18
49,35	,	75530	,	-29845	,	-28246	,	8.651335	,	16
49,35	,	75546	,	-29854	,	-28253	,	5.6433215	,	13
49,35	,	75578	,	-29849	,	-28246	,	2.883309	,	9
49,35	,	75594	,	-29842	,	-28253	,	0.6467228	,	6
49,35	,	75610	,	-29845	,	-28251	,	-0.8471856	,	3
49,35	,	75642	,	-29842	,	-28253	,	-1.5249026	,	1
49,35	,	75658	,	-29845	,	-28249	,	-1.5161259	,	0
49,35	,	75674	,	-29845	,	-28246	,	-1.0630333	,	0
49,35	,	75706	,	-29856	,	-28267	,	-0.47191966	,	0
49,35	,	75722	,	-29840	,	-28239	,	-0.00935632	,	0
49,35	,	75754	,	-29849	,	-28263	,	0.26700848	,	0
49,35	,	75770	,	-29850	,	-28258	,	0.4053292	,	0
49,35	,	75786	,	-29856	,	-28257	,	0.35287592	,	0
49,36	,	75818	,	-29848	,	-28261	,	0.045025915	,	0
49,36	,	75834	,	-29861	,	-28257	,	-0.48166278	,	0
49,36	,	75850	,	-29863	,	-28258	,	-1.2127211	,	0
49,36	,	75882	,	-29856	,	-28248	,	-2.1523652	,	0
49,36	,	75898	,	-29877	,	-28261	,	-3.235176	,	0
49,36	,	75930	,	-29864	,	-28253	,	-4.420072	,	0
49,36	,	75946	,	-29861	,	-28284	,	-5.581093	,	0
49,36	,	75962	,	-29874	,	-28243	,	-6.463235	,	0
49,36	,	75994	,	-29875	,	-28265	,	-7.001212	,	0
49,36	,	76010	,	-29867	,	-28265	,	-7.2914267	,	0
49,36	,	76026	,	-29880	,	-28268	,	-7.3562417	,	0
49,36	,	76058	,	-29876	,	-28258	,	-7.229685	,	0
49,36	,	76074	,	-29893	,	-28268	,	-7.067286	,	0
49,36	,	76090	,	-29885	,	-28273	,	-7.0736103	,	0
49,36	,	76122	,	-29879	,	-28270	,	-7.275211	,	0
49,36	,	76138	,	-29891	,	-28282	,	-7.470972	,	0
49,36	,	76170	,	-29906	,	-28275	,	-7.6079254	,	0
49,36	,	76186	,	-29893	,	-28285	,	-7.865958	,	0
49,36	,	76202	,	-29901	,	-28259	,	-8.269689	,	0
49,36	,	76234	,	-29894	,	-28261	,	-8.617548	,	0
49,36	,	76250	,	-29889	,	-28269	,	-8.663391	,	0
49,36	,	76266	,	-29878	,	-28259	,	-8.134829	,	0
49,36	,	76298	,	-29867	,	-28272	,	-6.7508945	,	0
49,36	,	76314	,	-29867	,	-28270	,	-4.3675413	,	1
49,36	,	76346	,	-29859	,	-28267	,	-1.1255727	,	3
49,36	,	76362	,	-29864	,	-28260	,	2.5690548	,	6
49,36	,	76378	,	-29861	,	-28241	,	6.1753664	,	9
49,36	,	76410	,	-29848	,	-28258	,	9.243097	,	12
49,36	,	76426	,	-29850	,	-28281	,	11.612767	,	15
49,36	,	76442	,	-29854	,	-28235	,	13.254736	,	17
49,36	,	76474	,	-29864	,	-28258	,	14.009359	,	18
49,36	,	76490	,	-29846	,	-28267	,	13.733297	,	18
49,36	,	76506	,	-29868	,	-28263	,	12.530745	,	17
49,36	,	76538	,	-29857	,	-28258	,	10.606049	,	15
49,36	,	76554	,	-29850	,	-28251	,	8.225672	,	12
49,36	,	76586	,	-29842	,	-28258	,	5.8817663	,	9
49,36	,	76602	,	-29865	,	-28258	,	3.9965043	,	6
49,36	,	76618	,	-29847	,	-28252	,	2.590682	,	3
49,36	,	76650	,	-29842	,	-28260	,	1.6079645	,	1
49,36	,	76666	,	-29853	,	-28275	,	1.1342701	,	0
49,36	,	76682	,	-29849	,	-28236	,	1.0988086	,	0
49,36	,	76714	,	-29843	,	-28261	,	1.2910072	,	0
49,36	,	76730	,	-29848	,	-28253	,	1.6061262	,	0
49,36	,	76762	,	-29852	,	-28245	,	1.9514916	,	0
49,36	,	76778	,	-29857	,	-28245	,	2.1317294	,	0
49,37	,	76794	,	-29853	,	-28248	,	1.9733531	,	0
49,37	,	76826	,	-29860	,	-28264	,	1.4427558	,	0
49,37	,	76842	,	-29855	,	-28255	,	0.6163361	,	0
49,37	,	76858	,	-29874	,	-28245	,	-0.43351704	,	0
49,37	,	76890	,	-29855	,	-28253	,	-1.668447	,	0
49,37	,	76906	,	-29870	,	-28278	,	-2.957113	,	0
49,37	,	76921	,	-29870	,	-28241	,	-4.1369553	,	0
49,37	,	76954	,	-29871	,	-28257	,	-5.158223	,	0
49,37	,	76970	,	-29865	,	-28265	,	-5.959086	,	0
49,37	,	77001	,	-29878	,	-28266	,	-6.4438715	,	0
49,37	,	77017	,	-29871	,	-28258	,	-6.6250124	,	0
49,37	,	77033	,	-29876	,	-28268	,	-6.570363	,	0
49,37	,	77066	,	-29884	,	-28252	,	-6.3616667	,	0
49,37	,	77082	,	-29882	,	-28265	,	-6.153393	,	0
49,37	,	77098	,	-29882	,	-28257	,	-6.0496187	,	0
49,37	,	77130	,	-29884	,	-28258	,	-6.008196	,	0
49,37	,	77146	,	-29893	,	-28286	,	-5.990225	,	0
49,37	,	77177	,	-29890	,	-28254	,	-6.045145	,	0
49,37	,	77193	,	-29896	,	-28269	,	-6.2096877	,	0
49,37	,	77209	,	-29901	,	-28272	,	-6.489648	,	0
49,37	,	77241	,	-29891	,	-28281	,	-6.860402	,	0
49,37	,	77258	,	-29900	,	-28277	,	-7.18507	,	0
49,37	,	77273	,	-29911	,	-28281	,	-7.376817	,	0
49,37	,	77306	,	-29909	,	-28282	,	-7.5587454	,	0
49,37	,	77321	,	-29913	,	-28276	,	-7.8551593	,	0
49,37	,	77337	,	-29881	,	-28269	,	-8.086575	,	0
49,37	,	77369	,	-29872	,	-28270	,	-7.65676	,	0
49,37	,	77386	,	-29874	,	-28286	,	-5.959988	,	0
49,37	,	77417	,	-29877	,	-28237	,	-2.9949775	,	1
49,37	,	77433	,	-29861	,	-28252	,	0.71226406	,	3
49,37	,	77449	,	-29850	,	-28257	,	4.688281	,	6
49,37	,	77481	,	-29846	,	-28266	,	8.711633	,	9
49,37	,	77497	,	-29852	,	-28250	,	12.5315	,	13
49,37	,	77514	,	-29843	,	-28264	,	15.731638	,	16
49,37	,	77546	,	-29854	,	-28264	,	17.91589	,	19
49,37	,	77561	,	-29838	,	-28257	,	18.884495	,	21
49,37	,	77593	,	-29855	,	-28264	,	18.668457	,	21
49,37	,	77609	,	-29852	,	-28258	,	17.379677	,	20
49,37	,	77625	,	-29858	,	-28267	,	15.122543	,	18
49,37	,	77657	,	-29843	,	-28237	,	12.167909	,	15
49,37	,	77673	,	-29837	,	-28242	,	9.071476	,	12
49,37	,	77689	,	-29834	,	-28250	,	6.4796	,	8
49,37	,	77722	,	-29850	,	-28246	,	4.7167377	,	5
49,37	,	77737	,	-29832	,	-28237	,	3.6720338	,	2
49,37	,	77753	,	-29845	,	-28243	,	3.1222615	,	0
49,37	,	77785	,	-29846	,	-28255	,	2.8510883	,	0
49,38	,	77801	,	-29844	,	-28241	,	2.608407	,	0
49,38	,	77833	,	-29849	,	-28247	,	2.23758	,	0
49,38	,	77849	,	-29830	,	-28249	,	1.7746373	,	0
49,38	,	77865	,	-29826	,	-28264	,	1.4947429	,	0
49,38	,	77897	,	-29837	,	-28234	,	1.6849066	,	0
49,38	,	77913	,	-29831	,	-28237	,	2.2931042	,	0
49,38	,	77929	,	-29838	,	-28245	,	3.0246315	,	0
49,38	,	77961	,	-29837	,	-28239	,	3.590957	,	0
49,38	,	77977	,	-29837	,	-28237	,	3.808209	,	0
49,38	,	78009	,	-29848	,	-28244	,	3.596629	,	0
49,38	,	78025	,	-29847	,	-28240	,	2.889981	,	0
49,38	,	78041	,	-29844	,	-28249	,	1.7068114	,	0
49,38	,	78073	,	-29847	,	-28249	,	0.2624352	,	0
49,38	,	78089	,	-29834	,	-28243	,	-1.1158599	,	0
49,38	,	78105	,	-29847	,	-28264	,	-2.1345372	,	0
49,38	,	78137	,	-29857	,	-28233	,	-2.7636273	,	0
49,38	,	78153	,	-29844	,	-28257	,	-3.2202935	,	0
49,38	,	78169	,	-29861	,	-28253	,	-3.6448512	,	0
49,38	,	78201	,	-29852	,	-28238	,	-4.068662	,	0
49,38	,	78217	,	-29863	,	-28258	,	-4.514044	,	0
49,38	,	78249	,	-29865	,	-28252	,	-5.004535	,	0
49,38	,	78265	,	-29873	,	-28260	,	-5.614692	,	0
49,38	,	78281	,	-29865	,	-28251	,	-6.3774796	,	0
49,38	,	78313	,	-29871	,	-28257	,	-7.156645	,	0
49,38	,	78329	,	-29875	,	-28253	,	-7.7750225	,	0
49,38	,	78345	,	-29885	,	-28270	,	-8.226421	,	0
49,38	,	78377	,	-29882	,	-28249	,	-8.635177	,	0
49,38	,	78393	,	-29890	,	-28264	,	-9.0757675	,	0
49,38	,	78425	,	-29900	,	-28260	,	-9.589591	,	0
49,38	,	78441	,	-29901	,	-28267	,	-10.258213	,	0
49,38	,	78457	,	-29909	,	-28263	,	-11.11453	,	0
49,38	,	78489	,	-29879	,	-28253	,	-11.949283	,	0
49,38	,	78505	,	-29864	,	-28256	,	-12.126141	,	0
49,38	,	78521	,	-29867	,	-28254	,	-10.901743	,	0
49,38	,	78553	,	-29869	,	-28252	,	-8.116406	,	1
49,38	,	78569	,	-29868	,	-28255	,	-4.291976	,	3
49,38	,	78601	,	-29865	,	-28279	,	-0.16780472	,	6
49,38	,	78617	,	-29856	,	-28236	,	3.684836	,	10
49,38	,	78633	,	-29849	,	-28257	,	7.005849	,	13
49,38	,	78665	,	-29857	,	-28253	,	9.71413	,	16
49,38	,	78681	,	-29839	,	-28257	,	11.741798	,	18
49,38	,	78697	,	-29854	,	-28251	,	13.06396	,	20
49,38	,	78729	,	-29856	,	-28249	,	13.61665	,	21
49,38	,	78745	,	-29862	,	-28247	,	13.225767	,	20
49,38	,	78761	,	-29863	,	-28253	,	11.803368	,	18
49,38	,	78793	,	-29857	,	-28246	,	9.514996	,	15
49,39	,	78809	,	-29857	,	-28250	,	6.771584	,	11
49,39	,	78841	,	-29859	,	-28277	,	4.04712	,	8
49,39	,	78857	,	-29861	,	-28235	,	1.663887	,	5
49,39	,	78873	,	-29861	,	-28258	,	-0.24101686	,	3
49,39	,	78905	,	-29852	,	-28259	,	-1.5978969	,	1
49,39	,	78921	,	-29865	,	-28261	,	-2.3646073	,	0
49,39	,	78937	,	-29852	,	-28252	,	-2.6029248	,	0
49,39	,	78969	,	-29860	,	-28250	,	-2.4279397	,	0
49,39	,	78985	,	-29866	,	-28266	,	-1.9943749	,	0
49,39	,	79016	,	-29879	,	-28269	,	-1.6235589	,	0
49,39	,	79032	,	-29872	,	-28266	,	-1.6783538	,	0
49,39	,	79049	,	-29860	,	-28253	,	-2.1877108	,	0
49,39	,	79081	,	-29874	,	-28272	,	-2.8312201	,	0
49,39	,	79097	,	-29882	,	-28241	,	-3.414706	,	0
49,39	,	79113	,	-29869	,	-28258	,	-3.9874797	,	0
49,39	,	79145	,	-29882	,	-28262	,	-4.5298986	,	0
49,39	,	79161	,	-29881	,	-28262	,	-4.979522	,	0
49,39	,	79177	,	-29883	,	-28254	,	-5.358645	,	0
49,39	,	79209	,	-29878	,	-28269	,	-5.6524053	,	0
49,39	,	79225	,	-29884	,	-28270	,	-5.7770624	,	0
49,39	,	79257	,	-29894	,	-28270	,	-5.7480364	,	0
49,39	,	79273	,	-29888	,	-28273	,	-5.719945	,	0
49,39	,	79289	,	-29902	,	-28261	,	-5.8238945	,	0
49,39	,	79320	,	-29903	,	-28286	,	-6.146138	,	0
49,39	,	79336	,	-29902	,	-28254	,	-6.727387	,	0
49,39	,	79352	,	-29899	,	-28279	,	-7.4276457	,	0
49,39	,	79385	,	-29906	,	-28278	,	-7.999899	,	0
49,39	,	79401	,	-29908	,	-28286	,	-8.320091	,	0
49,39	,	79433	,	-29919	,	-28292	,	-8.463582	,	0
49,39	,	79449	,	-29922	,	-28291	,	-8.6256485	,	0
49,39	,	79465	,	-29930	,	-28283	,	-8.993235	,	0
49,39	,	79496	,	-29918	,	-28295	,	-9.583483	,	0
49,39	,	79513	,	-29928	,	-28286	,	-10.180068	,	0
49,39	,	79529	,	-29914	,	-28272	,	-10.485872	,	0
49,39	,	79560	,	-29896	,	-28303	,	-10.153532	,	0
49,39	,	79576	,	-29896	,	-28257	,	-8.772003	,	0
49,39	,	79593	,	-29904	,	-28265	,	-6.2424526	,	1
49,39	,	79624	,	-29886	,	-28271	,	-2.9348946	,	3
49,39	,	79641	,	-29887	,	-28269	,	0.71580887	,	6
49,39	,	79672	,	-29885	,	-28266	,	4.3812494	,	9
49,39	,	79689	,	-29879	,	-28280	,	7.728191	,	12
49,39	,	79705	,	-29890	,	-28266	,	10.42999	,	15
49,39	,	79736	,	-29873	,	-28274	,	12.247665	,	17
49,39	,	79752	,	-29870	,	-28274	,	13.202448	,	18
49,39	,	79769	,	-29875	,	-28268	,	13.522793	,	18
49,40	,	79801	,	-29885	,	-28297	,	13.279839	,	17
49,40	,	79816	,	-29881	,	-28248	,	12.35084	,	15
49,40	,	79848	,	-29874	,	-28267	,	10.760838	,	12
49,40	,	79864	,	-29876	,	-28261	,	8.805494	,	9
49,40	,	79880	,	-29877	,	-28266	,	6.811206	,	6
49,40	,	79912	,	-29879	,	-28261	,	4.9518237	,	3
49,40	,	79928	,	-29870	,	-28262	,	3.3362098	,	1
49,40	,	79945	,	-29880	,	-28263	,	2.0800104	,	0
49,40	,	79976	,	-29859	,	-28266	,	1.2734513	,	0
49,40	,	79992	,	-29866	,	-28269	,	1.0227095	,	0
49,40	,	80008	,	-29876	,	-28275	,	1.3051777	,	0
49,40	,	80040	,	-29870	,	-28292	,	1.8089504	,	0
49,40	,	80057	,	-29881	,	-28247	,	2.1661398	,	0
49,40	,	80088	,	-29878	,	-28272	,	2.1504054	,	0
49,40	,	80105	,	-29877	,	-28277	,	1.7095504	,	0
49,40	,	80120	,	-29872	,	-28264	,	0.9980905	,	0
49,40	,	80152	,	-29874	,	-28274	,	0.2643839	,	0
49,40	,	80168	,	-29886	,	-28272	,	-0.3722734	,	0
49,40	,	80184	,	-29886	,	-28276	,	-1.0159105	,	0
49,40	,	80216	,	-29895	,	-28264	,	-1.8471282	,	0
49,40	,	80232	,	-29876	,	-28259	,	-2.8752134	,	0
49,40	,	80264	,	-29884	,	-28272	,	-3.8299725	,	0
49,40	,	80280	,	-29899	,	-28294	,	-4.4767056	,	0
49,40	,	80296	,	-29888	,	-28251	,	-4.897234	,	0
49,40	,	80329	,	-29893	,	-28280	,	-5.207556	,	0
49,40	,	80344	,	-29910	,	-28278	,	-5.4567604	,	0
49,40	,	80360	,	-29902	,	-28281	,	-5.8113804	,	0
49,40	,	80392	,	-29905	,	-28280	,	-6.360031	,	0
49,40	,	80408	,	-29915	,	-28276	,	-7.0128975	,	0
49,40	,	80424	,	-29911	,	-28279	,	-7.7026315	,	0
49,40	,	80456	,	-29906	,	-28275	,	-8.32654	,	0
49,40	,	80472	,	-29912	,	-28284	,	-8.672585	,	0
49,40	,	80504	,	-29919	,	-28290	,	-8.649688	,	0
49,40	,	80520	,	-29916	,	-28300	,	-8.377452	,	0
49,40	,	80536	,	-29935	,	-28258	,	-8.063263	,	0
49,40	,	80568	,	-29929	,	-28279	,	-7.947439	,	0
49,40	,	80584	,	-29938	,	-28275	,	-8.177877	,	0
49,40	,	80600	,	-29933	,	-28280	,	-8.6957855	,	0
49,40	,	80632	,	-29924	,	-28263	,	-9.248848	,	0
49,40	,	80648	,	-29910	,	-28284	,	-9.386253	,	0
49,40	,	80680	,	-29895	,	-28279	,	-8.546469	,	0
49,40	,	80696	,	-29901	,	-28263	,	-6.3648276	,	0
49,40	,	80712	,	-29889	,	-28262	,	-2.9516625	,	2
49,40	,	80744	,	-29883	,	-28269	,	1.2471361	,	5
49,40	,	80760	,	-29883	,	-28285	,	5.725732	,	9
49,40	,	80776	,	-29893	,	-28252	,	9.897736	,	13
49,41	,	80808	,	-29870	,	-28259	,	13.204853	,	17
49,41	,	80824	,	-29875	,	-28260	,	15.458117	,	20
49,41	,	80840	,	-29866	,	-28260	,	16.78741	,	22
49,41	,	80872	,	-29879	,	-28250	,	17.298246	,	23
49,41	,	80888	,	-29872	,	-28260	,	16.972511	,	23
49,41	,	80920	,	-29873	,	-28255	,	15.831452	,	21
49,41	,	80936	,	-29867	,	-28258	,	14.0749	,	18
49,41	,	80952	,	-29864	,	-28263	,	12.036295	,	14
49,41	,	80984	,	-29859	,	-28255	,	10.071583	,	10
49,41	,	81000	,	-29855	,	-28283	,	8.475695	,	6
49,41	,	81016	,	-29856	,	-28250	,	7.404629	,	3
49,41	,	81048	,	-29860	,	-28258	,	6.8059683	,	1
49,41	,	81064	,	-29864	,	-28247	,	6.430586	,	0
49,41	,	81096	,	-29867	,	-28251	,	5.964046	,	0
49,41	,	81112	,	-29863	,	-28253	,	5.202654	,	0
49,41	,	81128	,	-29857	,	-28248	,	4.185583	,	0
49,41	,	81160	,	-29867	,	-28262	,	3.1108015	,	0
49,41	,	81176	,	-29860	,	-28252	,	2.1131587	,	0
49,41	,	81192	,	-29863	,	-28260	,	1.2513145	,	0
49,41	,	81224	,	-29853	,	-28241	,	0.6229192	,	0
49,41	,	81240	,	-29857	,	-28277	,	0.34611386	,	0
49,41	,	81256	,	-29859	,	-28235	,	0.42798615	,	0
49,41	,	81288	,	-29851	,	-28249	,	0.75221026	,	0
49,41	,	81304	,	-29864	,	-28252	,	1.1790186	,	0
49,41	,	81336	,	-29866	,	-28255	,	1.4985535	,	0
49,41	,	81352	,	-29858	,	-28255	,	1.4963269	,	0
49,41	,	81368	,	-29861	,	-28265	,	1.1818602	,	0
49,41	,	81400	,	-29869	,	-28257	,	0.68952745	,	0
49,41	,	81416	,	-29874	,	-28265	,	0.018816292	,	0
49,41	,	81432	,	-29877	,	-28265	,	-0.9349823	,	0
49,41	,	81464	,	-29875	,	-28258	,	-2.1766467	,	0
49,41	,	81480	,	-29870	,	-28275	,	-3.509158	,	0
49,41	,	81512	,	-29871	,	-28233	,	-4.6159463	,	0
49,41	,	81528	,	-29884	,	-28255	,	-5.3142786	,	0
49,41	,	81544	,	-29889	,	-28259	,	-5.7418485	,	0
49,41	,	81576	,	-29890	,	-28261	,	-6.1814823	,	0
49,41	,	81592	,	-29896	,	-28261	,	-6.7806473	,	0
49,41	,	81608	,	-29906	,	-28269	,	-7.576185	,	0
49,41	,	81640	,	-29900	,	-28259	,	-8.571634	,	0
49,41	,	81656	,	-29908	,	-28267	,	-9.652198	,	0
49,41	,	81672	,	-29900	,	-28259	,	-10.593118	,	0
49,41	,	81704	,	-29901	,	-28266	,	-11.13515	,	0
49,41	,	81720	,	-29910	,	-28289	,	-11.108574	,	0
49,41	,	81752	,	-29918	,	-28255	,	-10.632482	,	0
49,41	,	81768	,	-29917	,	-28262	,	-10.033139	,	0
49,41	,	81784	,	-29905	,	-28258	,	-9.47002	,	0
49,42	,	81816	,	-29910	,	-28264	,	-8.799477	,	0
49,42	,	81832	,	-29892	,	-28266	,	-7.7694764	,	0
49,42	,	81848	,	-29885	,	-28259	,	-6.1223087	,	1
49,42	,	81880	,	-29889	,	-28264	,	-3.7113934	,	2
49,42	,	81896	,	-29885	,	-28261	,	-0.7205281	,	4
49,42	,	81928	,	-29883	,	-28249	,	2.4316535	,	6
49,42	,	81944	,	-29888	,	-28265	,	5.318653	,	9
49,42	,	81960	,	-29877	,	-28282	,	7.6077213	,	11
49,42	,	81992	,	-29883	,	-28255	,	9.153895	,	13
49,42	,	82008	,	-29879	,	-28268	,	9.954703	,	14
49,42	,	82040	,	-29890	,	-28264	,	10.007971	,	14
49,42	,	82056	,	-29887	,	-28257	,	9.297462	,	13
49,42	,	82072	,	-29878	,	-28263	,	7.947207	,	12
49,42	,	82104	,	-29882	,	-28255	,	6.2956786	,	10
49,42	,	82120	,	-29873	,	-28258	,	4.7142334	,	8
49,42	,	82136	,	-29867	,	-28259	,	3.505644	,	5
49,42	,	82168	,	-29870	,	-28264	,	2.8901362	,	3
49,42	,	82184	,	-29876	,	-28261	,	2.8492575	,	1
49,42	,	82216	,	-29871	,	-28291	,	3.1200714	,	0
49,42	,	82231	,	-29865	,	-28246	,	3.4652872	,	0
49,42	,	82248	,	-29869	,	-28262	,	3.8135557	,	0
49,42	,	82280	,	-29867	,	-28262	,	4.12738	,	0
49,42	,	82297	,	-29871	,	-28256	,	4.3167815	,	0
49,42	,	82312	,	-29866	,	-28266	,	4.302348	,	0
49,42	,	82344	,	-29861	,	-28260	,	4.1081696	,	0
49,42	,	82360	,	-29865	,	-28269	,	3.8516955	,	0
49,42	,	82376	,	-29879	,	-28268	,	3.5322995	,	0
49,42	,	82408	,	-29880	,	-28280	,	2.9207644	,	0
49,42	,	82424	,	-29869	,	-28249	,	1.8619304	,	0
49,42	,	82456	,	-29876	,	-28269	,	0.53197443	,	0
49,42	,	82472	,	-29879	,	-28263	,	-0.7918048	,	0
49,42	,	82488	,	-29885	,	-28277	,	-2.0063577	,	0
49,42	,	82519	,	-29886	,	-28268	,	-3.1467557	,	0
49,42	,	82536	,	-29889	,	-28272	,	-4.24715	,	0
49,42	,	82551	,	-29898	,	-28270	,	-5.3179274	,	0
49,42	,	82583	,	-29902	,	-28279	,	-6.4142995	,	0
49,42	,	82599	,	-29888	,	-28267	,	-7.520047	,	0
49,42	,	82632	,	-29898	,	-28272	,	-8.408066	,	0
49,42	,	82648	,	-29889	,	-28298	,	-8.824594	,	0
49,42	,	82664	,	-29894	,	-28268	,	-8.662329	,	0
49,42	,	82696	,	-29901	,	-28277	,	-7.986785	,	0
49,42	,	82711	,	-29899	,	-28264	,	-7.0369077	,	0
49,42	,	82727	,	-29905	,	-28267	,	-6.081924	,	0
49,42	,	82759	,	-29908	,	-28281	,	-5.3187227	,	0
49,42	,	82775	,	-29903	,	-28283	,	-4.8478503	,	0
49,43	,	82792	,	-29907	,	-28295	,	-4.615108	,	0
49,43	,	82824	,	-29916	,	-28288	,	-4.532748	,	0
49,43	,	82839	,	-29914	,	-28274	,	-4.6258087	,	0
49,43	,	82871	,	-29908	,	-28278	,	-4.880268	,	0
49,43	,	82887	,	-29891	,	-28291	,	-5.0265064	,	0
49,43	,	82903	,	-29888	,	-28250	,	-4.604105	,	0
49,43	,	82935	,	-29891	,	-28266	,	-3.3205698	,	0
49,43	,	82951	,	-29885	,	-28274	,	-1.2898772	,	1
49,43	,	82967	,	-29882	,	-28251	,	1.1559937	,	3
49,43	,	82999	,	-29873	,	-28258	,	3.736619	,	5
49,43	,	83015	,	-29861	,	-28256	,	6.3226295	,	7
49,43	,	83047	,	-29863	,	-28252	,	8.882604	,	9
49,43	,	83063	,	-29859	,	-28250	,	11.304638	,	11
49,43	,	83079	,	-29861	,	-28248	,	13.340446	,	13
49,43	,	83111	,	-29865	,	-28253	,	14.693893	,	15
49,43	,	83127	,	-29849	,	-28277	,	15.18873	,	16
49,43	,	83143	,	-29874	,	-28232	,	14.843737	,	15
49,43	,	83175	,	-29855	,	-28249	,	13.708757	,	13
49,43	,	83191	,	-29848	,	-28241	,	11.974216	,	11
49,43	,	83207	,	-29851	,	-28245	,	10.097445	,	9
49,43	,	83239	,	-29844	,	-28245	,	8.476257	,	7
49,43	,	83255	,	-29841	,	-28243	,	7.3030996	,	5
49,43	,	83287	,	-29850	,	-28242	,	6.6122384	,	3
49,43	,	83303	,	-29840	,	-28253	,	6.2594647	,	1
49,43	,	83319	,	-29842	,	-28251	,	6.077128	,	0
49,43	,	83351	,	-29841	,	-28256	,	5.976833	,	0
49,43	,	83367	,	-29845	,	-28272	,	5.858711	,	0
49,43	,	83383	,	-29847	,	-28227	,	5.5833945	,	0
49,43	,	83415	,	-29854	,	-28254	,	5.0098066	,	0
49,43	,	83431	,	-29852	,	-28247	,	4.0425262	,	0
49,43	,	83463	,	-29857	,	-28258	,	2.6967673	,	0
49,43	,	83480	,	-29856	,	-28249	,	1.0988953	,	0
49,43	,	83495	,	-29861	,	-28258	,	-0.585763	,	0
49,43	,	83527	,	-29872	,	-28251	,	-2.2672286	,	0
49,43	,	83543	,	-29861	,	-28257	,	-3.920444	,	0
49,43	,	83559	,	-29879	,	-28260	,	-5.467143	,	0
49,43	,	83591	,	-29856	,	-28262	,	-6.763693	,	0
49,43	,	83607	,	-29862	,	-28291	,	-7.5620384	,	0
49,43	,	83639	,	-29867	,	-28238	,	-7.644155	,	0
49,43	,	83655	,	-29877	,	-28262	,	-7.1380863	,	0
49,43	,	83671	,	-29870	,	-28253	,	-6.410116	,	0
49,43	,	83703	,	-29874	,	-28252	,	-5.7092247	,	0
49,43	,	83719	,	-29861	,	-28272	,	-5.0448637	,	0
49,43	,	83735	,	-29874	,	-28266	,	-4.306823	,	0
49,43	,	83767	,	-29874	,	-28259	,	-3.5039132	,	0
49,43	,	83783	,	-29882	,	-28257	,	-2.8347607	,	0
49,44	,	83799	,	-29876	,	-28260	,	-2.4892068	,	0
49,44	,	83831	,	-29883	,	-28259	,	-2.492073	,	0
49,44	,	83847	,	-29888	,	-28286	,	-2.792389	,	0
49,44	,	83879	,	-29884	,	-28245	,	-3.3483725	,	0
49,44	,	83895	,	-29890	,	-28277	,	-4.0593586	,	0
49,44	,	83911	,	-29914	,	-28272	,	-4.9050565	,	0
49,44	,	83943	,	-29905	,	-28270	,	-6.0713525	,	0
49,44	,	83959	,	-29901	,	-28271	,	-7.576506	,	0
49,44	,	83975	,	-29913	,	-28275	,	-9.10691	,	0
49,44	,	84007	,	-29896	,	-28276	,	-10.322996	,	0
49,44	,	84023	,	-29895	,	-28270	,	-10.904372	,	0
49,44	,	84055	,	-29886	,	-28260	,	-10.526483	,	0
49,44	,	84071	,	-29867	,	-28268	,	-8.961157	,	0
49,44	,	84087	,	-29871	,	-28289	,	-6.113302	,	1
49,44	,	84119	,	-29861	,	-28247	,	-2.1772165	,	3
49,44	,	84135	,	-29859	,	-28256	,	2.3536391	,	6
49,44	,	84151	,	-29853	,	-28264	,	6.9255266	,	10
49,44	,	84183	,	-29851	,	-28251	,	11.064705	,	14
49,44	,	84199	,	-29843	,	-28260	,	14.441407	,	18
49,44	,	84215	,	-29841	,	-28253	,	16.910187	,	21
49,44	,	84247	,	-29840	,	-28253	,	18.443924	,	23
49,44	,	84263	,	-29858	,	-28243	,	18.958431	,	24
49,44	,	84295	,	-29835	,	-28254	,	18.335995	,	23
49,44	,	84311	,	-29830	,	-28243	,	16.797623	,	21
49,44	,	84327	,	-29830	,	-28269	,	14.917323	,	18
49,44	,	84359	,	-29829	,	-28235	,	13.145369	,	14
49,44	,	84375	,	-29832	,	-28247	,	11.6068325	,	10
49,44	,	84391	,	-29818	,	-28249	,	10.30069	,	6
49,44	,	84423	,	-29819	,	-28232	,	9.305417	,	3
49,44	,	84439	,	-29828	,	-28234	,	8.662867	,	1
49,44	,	84471	,	-29821	,	-28232	,	8.201593	,	0
49,44	,	84487	,	-29820	,	-28234	,	7.725873	,	0
49,44	,	84503	,	-29820	,	-28244	,	7.188127	,	0
49,44	,	84535	,	-29823	,	-28238	,	6.5834856	,	0
49,44	,	84551	,	-29819	,	-28239	,	5.887601	,	0
49,44	,	84567	,	-29828	,	-28261	,	5.0791554	,	0
49,44	,	84599	,	-29837	,	-28227	,	4.065371	,	0
49,44	,	84615	,	-29821	,	-28236	,	2.7551255	,	0
49,44	,	84631	,	-29820	,	-28233	,	1.3325586	,	0
49,44	,	84663	,	-29828	,	-28231	,	0.1388011	,	0
49,44	,	84679	,	-29838	,	-28249	,	-0.75246453	,	0
49,44	,	84711	,	-29830	,	-28244	,	-1.5224733	,	0
49,44	,	84727	,	-29838	,	-28242	,	-2.282588	,	0
49,44	,	84743	,	-29833	,	-28242	,	-3.005458	,	0
49,44	,	84775	,	-29839	,	-28246	,	-3.6287177	,	0
49,44	,	84791	,	-29836	,	-28247	,	-4.0984263	,	0
49,45	,	84807	,	-29848	,	-28269	,	-4.423145	,	0
49,45	,	84839	,	-29850	,	-28224	,	-4.7351704	,	0
49,45	,	84854	,	-29855	,	-28244	,	-5.2106876	,	0
49,45	,	84887	,	-29860	,	-28248	,	-5.9375725	,	0
49,45	,	84903	,	-29864	,	-28251	,	-6.9125605	,	0
49,45	,	84919	,	-29845	,	-28251	,	-7.9658647	,	0
49,45	,	84950	,	-29853	,	-28246	,	-8.692536	,	0
49,45	,	84966	,	-29860	,	-28252	,	-8.791383	,	0
49,45	,	84983	,	-29876	,	-28256	,	-8.4306345	,	0
49,45	,	85015	,	-29876	,	-28255	,	-8.090801	,	0
49,45	,	85031	,	-29863	,	-28261	,	-8.058149	,	0
49,45	,	85046	,	-29875	,	-28289	,	-8.203724	,	0
49,45	,	85079	,	-29887	,	-28242	,	-8.372386	,	0
49,45	,	85095	,	-29889	,	-28255	,	-8.680416	,	0
49,45	,	85126	,	-29893	,	-28262	,	-9.269749	,	0
49,45	,	85142	,	-29893	,	-28268	,	-10.0862665	,	0
49,45	,	85159	,	-29894	,	-28274	,	-10.932358	,	0
49,45	,	85191	,	-29895	,	-28268	,	-11.577802	,	0
49,45	,	85206	,	-29899	,	-28266	,	-11.859615	,	0
49,45	,	85222	,	-29887	,	-28267	,	-11.684292	,	0
49,45	,	85254	,	-29876	,	-28254	,	-10.882179	,	0
49,45	,	85271	,	-29865	,	-28254	,	-9.169159	,	0
49,45	,	85302	,	-29860	,	-28284	,	-6.3550186	,	1
49,45	,	85318	,	-29849	,	-28249	,	-2.5125399	,	3
49,45	,	85334	,	-29857	,	-28260	,	2.0020719	,	6
49,45	,	85366	,	-29851	,	-28259	,	6.5816317	,	10
49,45	,	85382	,	-29852	,	-28254	,	10.570168	,	14
49,45	,	85398	,	-29848	,	-28257	,	13.519628	,	17
49,45	,	85430	,	-29858	,	-28253	,	15.209248	,	19
49,45	,	85446	,	-29863	,	-28258	,	15.512264	,	20
49,45	,	85463	,	-29858	,	-28250	,	14.422064	,	20
49,45	,	85495	,	-29855	,	-28246	,	12.222934	,	19
49,45	,	85510	,	-29845	,	-28244	,	9.488904	,	17
49,45	,	85542	,	-29845	,	-28285	,	6.8750744	,	14
49,45	,	85558	,	-29853	,	-28231	,	4.8132935	,	10
49,45	,	85574	,	-29849	,	-28251	,	3.3516645	,	6
49,45	,	85607	,	-29856	,	-28250	,	2.3215094	,	3
49,45	,	85623	,	-29842	,	-28264	,	1.5863299	,	1
49,45	,	85638	,	-29855	,	-28251	,	1.1185865	,	0
49,45	,	85670	,	-29848	,	-28261	,	0.8749646	,	0
49,45	,	85686	,	-29849	,	-28257	,	0.7568506	,	0
49,45	,	85718	,	-29855	,	-28255	,	0.6849358	,	0
49,45	,	85734	,	-29853	,	-28254	,	0.5691875	,	0
49,45	,	85750	,	-29850	,	-28252	,	0.35594067	,	0
49,45	,	85782	,	-29850	,	-28279	,	0.10273656	,	0
49,46	,	85798	,	-29861	,	-28245	,	-0.15165612	,	0
49,46	,	85814	,	-29856	,	-28259	,	-0.4885009	,	0
49,46	,	85846	,	-29857	,	-28248	,	-0.96109545	,	0
49,46	,	85862	,	-29866	,	-28258	,	-1.5287783	,	0
49,46	,	85878	,	-29872	,	-28261	,	-2.2242007	,	0
49,46	,	85910	,	-29862	,	-28255	,	-3.1081088	,	0
49,46	,	85926	,	-29879	,	-28258	,	-4.113596	,	0
49,46	,	85958	,	-29856	,	-28270	,	-5.076913	,	0
49,46	,	85974	,	-29869	,	-28254	,	-5.7494683	,	0
49,46	,	85990	,	-29869	,	-28264	,	-5.951586	,	0
49,46	,	86022	,	-29878	,	-28283	,	-5.7852154	,	0
49,46	,	86038	,	-29896	,	-28250	,	-5.605424	,	0
49,46	,	86054	,	-29897	,	-28271	,	-5.873439	,	0
49,46	,	86086	,	-29903	,	-28274	,	-6.867174	,	0
49,46	,	86102	,	-29899	,	-28269	,	-8.472139	,	0
49,46	,	86134	,	-29905	,	-28268	,	-10.301387	,	0
49,46	,	86150	,	-29902	,	-28279	,	-11.930082	,	0
49,46	,	86166	,	-29904	,	-28268	,	-13.033125	,	0
49,46	,	86198	,	-29909	,	-28282	,	-13.454076	,	0
49,46	,	86214	,	-29917	,	-28276	,	-13.274192	,	0
49,46	,	86230	,	-29909	,	-28279	,	-12.708231	,	0
49,46	,	86262	,	-29895	,	-28302	,	-11.794942	,	0
49,46	,	86278	,	-29897	,	-28256	,	-10.330765	,	0
49,46	,	86294	,	-29893	,	-28276	,	-8.193682	,	1
49,46	,	86326	,	-29885	,	-28271	,	-5.4902177	,	3
49,46	,	86342	,	-29877	,	-28261	,	-2.3750534	,	5
49,46	,	86374	,	-29864	,	-28264	,	1.0635097	,	8
49,46	,	86390	,	-29875	,	-28260	,	4.690078	,	11
49,46	,	86406	,	-29862	,	-28258	,	8.179457	,	14
49,46	,	86438	,	-29858	,	-28256	,	11.190682	,	17
49,46	,	86454	,	-29857	,	-28251	,	13.5684185	,	20
49,46	,	86470	,	-29855	,	-28243	,	15.235421	,	22
49,46	,	86502	,	-29844	,	-28280	,	16.168045	,	22
49,46	,	86518	,	-29857	,	-28240	,	16.432312	,	20
49,46	,	86550	,	-29853	,	-28259	,	16.031338	,	18
49,46	,	86566	,	-29851	,	-28246	,	14.930393	,	15
49,46	,	86582	,	-29844	,	-28252	,	13.2807865	,	12
49,46	,	86614	,	-29845	,	-28249	,	11.41023	,	9
49,46	,	86630	,	-29854	,	-28249	,	9.568485	,	6
49,46	,	86646	,	-29844	,	-28254	,	7.813913	,	3
49,46	,	86678	,	-29835	,	-28255	,	6.239208	,	1
49,46	,	86694	,	-29842	,	-28260	,	5.0575075	,	0
49,46	,	86710	,	-29847	,	-28257	,	4.309507	,	0
49,46	,	86742	,	-29843	,	-28280	,	3.7885368	,	0
49,46	,	86758	,	-29841	,	-28225	,	3.3192003	,	0
49,46	,	86790	,	-29840	,	-28244	,	2.8896885	,	0
49,47	,	86806	,	-29847	,	-28244	,	2.517816	,	0
49,47	,	86822	,	-29850	,	-28245	,	2.11557	,	0
49,47	,	86854	,	-29851	,	-28250	,	1.538593	,	0
49,47	,	86870	,	-29848	,	-28254	,	0.74879396	,	0
49,47	,	86886	,	-29848	,	-28241	,	-0.12710196	,	0
49,47	,	86918	,	-29844	,	-28248	,	-0.8902506	,	0
49,47	,	86934	,	-29847	,	-28238	,	-1.3863508	,	0
49,47	,	86966	,	-29850	,	-28243	,	-1.5868132	,	0
49,47	,	86982	,	-29852	,	-28279	,	-1.6001062	,	0
49,47	,	86998	,	-29857	,	-28234	,	-1.6010482	,	0
49,47	,	87030	,	-29863	,	-28256	,	-1.7739968	,	0
49,47	,	87046	,	-29865	,	-28241	,	-2.267819	,	0
49,47	,	87062	,	-29866	,	-28240	,	-3.1138418	,	0
49,47	,	87094	,	-29865	,	-28244	,	-4.1834207	,	0
49,47	,	87110	,	-29863	,	-28246	,	-5.230382	,	0
49,47	,	87126	,	-29871	,	-28237	,	-6.0276337	,	0
49,47	,	87158	,	-29871	,	-28244	,	-6.5119305	,	0
49,47	,	87174	,	-29871	,	-28250	,	-6.7391467	,	0
49,47	,	87206	,	-29879	,	-28257	,	-6.7831397	,	0
49,47	,	87222	,	-29872	,	-28287	,	-6.718942	,	0
49,47	,	87238	,	-29878	,	-28240	,	-6.5656276	,	0
49,47	,	87270	,	-29881	,	-28255	,	-6.3209124	,	0
49,47	,	87285	,	-29886	,	-28258	,	-6.0711966	,	0
49,47	,	87302	,	-29895	,	-28263	,	-5.982131	,	0
49,47	,	87334	,	-29897	,	-28266	,	-6.224826	,	0
49,47	,	87350	,	-29909	,	-28263	,	-6.906107	,	0
49,47	,	87381	,	-29892	,	-28264	,	-7.960979	,	0
49,47	,	87397	,	-29911	,	-28267	,	-9.113898	,	0
49,47	,	87413	,	-29902	,	-28267	,	-10.088348	,	0
49,47	,	87446	,	-29891	,	-28258	,	-10.658268	,	0
49,47	,	87462	,	-29873	,	-28276	,	-10.425931	,	0
49,47	,	87478	,	-29874	,	-28251	,	-8.948379	,	0
49,47	,	87509	,	-29869	,	-28241	,	-6.1410093	,	1
49,47	,	87526	,	-29848	,	-28246	,	-2.2713156	,	3
49,47	,	87542	,	-29839	,	-28243	,	2.392056	,	6
49,47	,	87573	,	-29854	,	-28248	,	7.507169	,	10
49,47	,	87589	,	-29842	,	-28252	,	12.400617	,	15
49,47	,	87622	,	-29845	,	-28238	,	16.353334	,	19
49,47	,	87638	,	-29838	,	-28233	,	18.971	,	22
49,47	,	87654	,	-29829	,	-28240	,	20.23436	,	24
49,47	,	87685	,	-29828	,	-28230	,	20.411032	,	25
49,47	,	87702	,	-29830	,	-28252	,	19.81065	,	24
49,47	,	87718	,	-29831	,	-28233	,	18.593357	,	22
49,47	,	87750	,	-29833	,	-28228	,	16.82447	,	19
49,47	,	87765	,	-29828	,	-28217	,	14.605796	,	15
49,48	,	87797	,	-29817	,	-28224	,	12.198267	,	10
49,48	,	87813	,	-29829	,	-28225	,	9.958598	,	6
49,48	,	87829	,	-29817	,	-28218	,	8.094899	,	3
49,48	,	87861	,	-29812	,	-28214	,	6.6938004	,	1
49,48	,	87877	,	-29810	,	-28220	,	5.86525	,	0
49,48	,	87893	,	-29812	,	-28229	,	5.6178493	,	0
49,48	,	87926	,	-29822	,	-28229	,	5.717004	,	0
49,48	,	87942	,	-29806	,	-28245	,	5.829836	,	0
49,48	,	87973	,	-29813	,	-28207	,	5.807506	,	0
49,48	,	87989	,	-29822	,	-28204	,	5.609617	,	0
49,48	,	88005	,	-29813	,	-28215	,	5.1191072	,	0
49,48	,	88037	,	-29815	,	-28215	,	4.3187256	,	0
49,48	,	88053	,	-29814	,	-28223	,	3.3626482	,	0
49,48	,	88070	,	-29813	,	-28213	,	2.4116633	,	0
49,48	,	88102	,	-29814	,	-28221	,	1.5713875	,	0
49,48	,	88117	,	-29824	,	-28216	,	0.8505616	,	0
49,48	,	88133	,	-29831	,	-28216	,	0.09694564	,	0
49,48	,	88165	,	-29826	,	-28220	,	-0.8737083	,	0
49,48	,	88181	,	-29824	,	-28246	,	-2.0289881	,	0
49,48	,	88213	,	-29829	,	-28215	,	-3.1433449	,	0
49,48	,	88230	,	-29832	,	-28219	,	-4.056883	,	0
49,48	,	88245	,	-29827	,	-28213	,	-4.733996	,	0
49,48	,	88277	,	-29834	,	-28223	,	-5.1513834	,	0
49,48	,	88293	,	-29836	,	-28233	,	-5.324375	,	0
49,48	,	88309	,	-29845	,	-28234	,	-5.383417	,	0
49,48	,	88341	,	-29845	,	-28245	,	-5.5175867	,	0
49,48	,	88357	,	-29851	,	-28245	,	-5.854092	,	0
49,48	,	88389	,	-29843	,	-28230	,	-6.364957	,	0
49,48	,	88405	,	-29857	,	-28228	,	-6.905547	,	0
49,48	,	88421	,	-29841	,	-28248	,	-7.334032	,	0
49,48	,	88453	,	-29853	,	-28225	,	-7.51641	,	0
49,48	,	88470	,	-29863	,	-28241	,	-7.432849	,	0
49,48	,	88485	,	-29865	,	-28244	,	-7.305558	,	0
49,48	,	88517	,	-29859	,	-28237	,	-7.3372145	,	0
49,48	,	88533	,	-29856	,	-28230	,	-7.4452887	,	0
49,48	,	88549	,	-29872	,	-28247	,	-7.4592543	,	0
49,48	,	88581	,	-29870	,	-28249	,	-7.4104795	,	0
49,48	,	88597	,	-29874	,	-28232	,	-7.436413	,	0
49,48	,	88629	,	-29864	,	-28224	,	-7.529874	,	0
49,48	,	88645	,	-29837	,	-28225	,	-7.3655796	,	0
49,48	,	88661	,	-29844	,	-28247	,	-6.372591	,	0
49,48	,	88693	,	-29846	,	-28214	,	-4.284503	,	0
49,48	,	88709	,	-29831	,	-28226	,	-1.3758423	,	2
49,48	,	88725	,	-29846	,	-28226	,	1.893734	,	4
49,48	,	88757	,	-29824	,	-28239	,	5.091588	,	7
49,48	,	88773	,	-29838	,	-28222	,	7.8824205	,	10
49,49	,	88805	,	-29836	,	-28230	,	9.990104	,	12
49,49	,	88821	,	-29831	,	-28235	,	11.176638	,	14
49,49	,	88837	,	-29831	,	-28227	,	11.426872	,	15
49,49	,	88869	,	-29834	,	-28235	,	10.911922	,	15
49,49	,	88885	,	-29830	,	-28233	,	9.821978	,	15
49,49	,	88901	,	-29837	,	-28245	,	8.343134	,	13
49,49	,	88933	,	-29830	,	-28226	,	6.6508155	,	11
49,49	,	88949	,	-29829	,	-28217	,	4.944351	,	8
49,49	,	88965	,	-29821	,	-28222	,	3.4797816	,	5
49,49	,	88997	,	-29816	,	-28213	,	2.5228746	,	3
49,49	,	89013	,	-29828	,	-28221	,	2.194871	,	1
49,49	,	89045	,	-29828	,	-28227	,	2.3041835	,	0
49,49	,	89061	,	-29829	,	-28229	,	2.4875336	,	0
49,49	,	89077	,	-29836	,	-28234	,	2.4679894	,	0
49,49	,	89109	,	-29820	,	-28231	,	2.153768	,	0
49,49	,	89125	,	-29826	,	-28228	,	1.6810291	,	0
49,49	,	89141	,	-29835	,	-28248	,	1.2072645	,	0
49,49	,	89173	,	-29826	,	-28230	,	0.715716	,	0
49,49	,	89189	,	-29840	,	-28224	,	0.15291893	,	0
49,49	,	89221	,	-29832	,	-28231	,	-0.5004387	,	0
49,49	,	89237	,	-29851	,	-28235	,	-1.2935541	,	0
49,49	,	89253	,	-29827	,	-28233	,	-2.2365437	,	0
49,49	,	89285	,	-29842	,	-28234	,	-3.157104	,	0
49,49	,	89301	,	-29844	,	-28232	,	-3.8632054	,	0
49,49	,	89317	,	-29837	,	-28236	,	-4.342234	,	0
49,49	,	89349	,	-29849	,	-28235	,	-4.630998	,	0
49,49	,	89365	,	-29847	,	-28244	,	-4.7889476	,	0
49,49	,	89381	,	-29848	,	-28269	,	-4.9040937	,	0
49,49	,	89413	,	-29848	,	-28230	,	-4.9831896	,	0
49,49	,	89429	,	-29846	,	-28237	,	-4.965888	,	0
49,49	,	89461	,	-29845	,	-28237	,	-4.779958	,	0
49,49	,	89477	,	-29858	,	-28249	,	-4.438924	,	0
49,49	,	89493	,	-29860	,	-28233	,	-4.1376295	,	0
49,49	,	89525	,	-29862	,	-28250	,	-4.1098075	,	0
49,49	,	89541	,	-29872	,	-28253	,	-4.4649935	,	0
49,49	,	89557	,	-29874	,	-28255	,	-5.233768	,	0
49,49	,	89589	,	-29869	,	-28250	,	-6.3359094	,	0
49,49	,	89605	,	-29870	,	-28251	,	-7.4938955	,	0
49,49	,	89637	,	-29875	,	-28272	,	-8.394995	,	0
49,49	,	89653	,	-29878	,	-28232	,	-8.909304	,	0
49,49	,	89669	,	-29855	,	-28232	,	-8.9633465	,	0
49,49	,	89701	,	-29848	,	-28239	,	-8.27	,	0
49,49	,	89717	,	-29842	,	-28249	,	-6.4840326	,	0
49,49	,	89733	,	-29837	,	-28241	,	-3.5647278	,	1
49,49	,	89765	,	-29833	,	-28245	,	0.18701982	,	3
49,49	,	89781	,	-29835	,	-28234	,	4.2660284	,	6
49,50	,	89797	,	-29836	,	-28242	,	8.069047	,	10
49,50	,	89828	,	-29814	,	-28244	,	11.152692	,	13
49,50	,	89844	,	-29823	,	-28247	,	13.449677	,	16
49,50	,	89877	,	-29826	,	-28249	,	14.992166	,	18
49,50	,	89893	,	-29842	,	-28217	,	15.567666	,	19
49,50	,	89909	,	-29817	,	-28230	,	14.967249	,	19
49,50	,	89940	,	-29823	,	-28218	,	13.417789	,	18
49,50	,	89956	,	-29828	,	-28242	,	11.39773	,	16
49,50	,	89973	,	-29820	,	-28226	,	9.231888	,	13
49,50	,	90004	,	-29827	,	-28233	,	7.11835	,	9
49,50	,	90020	,	-29821	,	-28227	,	5.2112675	,	6
49,50	,	90053	,	-29813	,	-28223	,	3.656695	,	3
49,50	,	90069	,	-29817	,	-28227	,	2.6276824	,	1
49,50	,	90084	,	-29814	,	-28227	,	2.173766	,	0
49,50	,	90117	,	-29834	,	-28240	,	2.0787594	,	0
49,50	,	90133	,	-29821	,	-28226	,	1.9518574	,	0
49,50	,	90148	,	-29824	,	-28232	,	1.5634158	,	0
49,50	,	90181	,	-29822	,	-28226	,	0.9862821	,	0
49,50	,	90197	,	-29821	,	-28231	,	0.38260484	,	0
49,50	,	90213	,	-29827	,	-28218	,	-0.14895916	,	0
49,50	,	90244	,	-29839	,	-28224	,	-0.6602042	,	0
49,50	,	90260	,	-29828	,	-28228	,	-1.3116198	,	0
49,50	,	90292	,	-29827	,	-28229	,	-2.0903504	,	0
49,50	,	90308	,	-29824	,	-28233	,	-2.7522423	,	0
49,50	,	90325	,	-29821	,	-28235	,	-3.0543602	,	0
49,50	,	90357	,	-29838	,	-28241	,	-2.9606884	,	0
49,50	,	90373	,	-29834	,	-28230	,	-2.710042	,	0
49,50	,	90389	,	-29845	,	-28248	,	-2.6286693	,	0
49,50	,	90421	,	-29842	,	-28236	,	-2.909041	,	0
49,50	,	90437	,	-29832	,	-28239	,	-3.5028505	,	0
49,50	,	90468	,	-29844	,	-28231	,	-4.1518307	,	0
49,50	,	90484	,	-29851	,	-28234	,	-4.7003307	,	0
49,50	,	90501	,	-29854	,	-28241	,	-5.248723	,	0
49,50	,	90533	,	-29840	,	-28241	,	-5.856393	,	0
49,50	,	90549	,	-29848	,	-28245	,	-6.3366776	,	0
49,50	,	90565	,	-29851	,	-28237	,	-6.497267	,	0
49,50	,	90596	,	-29848	,	-28245	,	-6.3418074	,	0
49,50	,	90612	,	-29851	,	-28238	,	-5.944767	,	0
49,50	,	90628	,	-29864	,	-28249	,	-5.43344	,	0
49,50	,	90660	,	-29879	,	-28240	,	-5.136463	,	0
49,50	,	90676	,	-29864	,	-28264	,	-5.3989954	,	0
49,50	,	90709	,	-29876	,	-28250	,	-6.210676	,	0
49,50	,	90725	,	-29870	,	-28248	,	-7.2747517	,	0
49,50	,	90741	,	-29860	,	-28243	,	-8.212735	,	0
49,50	,	90772	,	-29856	,	-28238	,	-8.577362	,	0
49,50	,	90788	,	-29843	,	-28227	,	-7.9762406	,	0
49,51	,	90804	,	-29852	,	-28235	,	-6.2748837	,	0
49,51	,	90836	,	-29837	,	-28245	,	-3.667925	,	1
49,51	,	90852	,	-29825	,	-28224	,	-0.44626546	,	3
49,51	,	90885	,	-29824	,	-28224	,	3.2058735	,	6
49,51	,	90901	,	-29815	,	-28231	,	7.0674667	,	9
49,51	,	90917	,	-29808	,	-28224	,	10.841223	,	12
49,51	,	90948	,	-29802	,	-28227	,	14.283946	,	15
49,51	,	90964	,	-29803	,	-28224	,	17.191378	,	18
49,51	,	90980	,	-29802	,	-28230	,	19.325035	,	20
49,51	,	91012	,	-29797	,	-28231	,	20.479097	,	22
49,51	,	91028	,	-29808	,	-28221	,	20.560446	,	22
49,51	,	91044	,	-29794	,	-28220	,	19.592087	,	20
49,51	,	91076	,	-29806	,	-28234	,	17.748348	,	17
49,51	,	91092	,	-29799	,	-28213	,	15.290776	,	14
49,51	,	91124	,	-29793	,	-28213	,	12.52265	,	11
49,51	,	91140	,	-29785	,	-28201	,	9.870747	,	8
49,51	,	91156	,	-29790	,	-28218	,	7.748155	,	5
49,51	,	91188	,	-29798	,	-28217	,	6.2572002	,	3
49,51	,	91204	,	-29783	,	-28200	,	5.2272367	,	1
49,51	,	91220	,	-29790	,	-28211	,	4.5290184	,	0
49,51	,	91252	,	-29797	,	-28206	,	4.063472	,	0
49,51	,	91268	,	-29785	,	-28205	,	3.6512647	,	0
49,51	,	91300	,	-29796	,	-28215	,	3.1946685	,	0
49,51	,	91316	,	-29806	,	-28228	,	2.6155663	,	0
49,51	,	91332	,	-29801	,	-28203	,	1.7410567	,	0
49,51	,	91364	,	-29803	,	-28212	,	0.52853453	,	0
49,51	,	91380	,	-29801	,	-28212	,	-0.83976674	,	0
49,51	,	91396	,	-29811	,	-28203	,	-2.16034	,	0
49,51	,	91428	,	-29806	,	-28206	,	-3.343702	,	0
49,51	,	91444	,	-29802	,	-28215	,	-4.303605	,	0
49,51	,	91460	,	-29806	,	-28216	,	-4.8847504	,	0
49,51	,	91492	,	-29804	,	-28213	,	-5.00778	,	0
49,51	,	91508	,	-29797	,	-28202	,	-4.689208	,	0
49,51	,	91540	,	-29811	,	-28212	,	-3.9957502	,	0
49,51	,	91556	,	-29816	,	-28223	,	-3.1812556	,	0
49,51	,	91572	,	-29800	,	-28211	,	-2.5499635	,	0
49,51	,	91604	,	-29808	,	-28222	,	-2.1170247	,	0
49,51	,	91620	,	-29814	,	-28207	,	-1.7751428	,	0
49,51	,	91636	,	-29815	,	-28205	,	-1.5891544	,	0
49,51	,	91668	,	-29824	,	-28221	,	-1.7071979	,	0
49,51	,	91684	,	-29831	,	-28219	,	-2.2635746	,	0
49,51	,	91716	,	-29823	,	-28213	,	-3.2968476	,	0
49,51	,	91732	,	-29824	,	-28221	,	-4.5904746	,	0
49,51	,	91748	,	-29838	,	-28213	,	-5.837875	,	0
49,51	,	91780	,	-29838	,	-28226	,	-6.955905	,	0
49,52	,	91796	,	-29836	,	-28234	,	-7.976856	,	0
49,52	,	91812	,	-29832	,	-28218	,	-8.78515	,	0
49,52	,	91844	,	-29841	,	-28219	,	-9.196164	,	0
49,52	,	91860	,	-29843	,	-28237	,	-9.193512	,	0
49,52	,	91876	,	-29850	,	-28232	,	-8.948963	,	0
49,52	,	91908	,	-29844	,	-28232	,	-8.638741	,	0
49,52	,	91924	,	-29843	,	-28234	,	-8.283092	,	0
49,52	,	91956	,	-29847	,	-28223	,	-7.7894993	,	0
49,52	,	91972	,	-29832	,	-28234	,	-7.0573516	,	0
49,52	,	91988	,	-29827	,	-28224	,	-5.9195423	,	0
49,52	,	92020	,	-29814	,	-28216	,	-4.142252	,	1
49,52	,	92036	,	-29808	,	-28228	,	-1.5742536	,	2
49,52	,	92052	,	-29814	,	-28214	,	1.6816018	,	4
49,52	,	92084	,	-29806	,	-28217	,	5.2107744	,	7
49,52	,	92100	,	-29808	,	-28203	,	8.502074	,	10
49,52	,	92132	,	-29788	,	-28216	,	11.243606	,	13
49,52	,	92148	,	-29780	,	-28210	,	13.465498	,	15
49,52	,	92164	,	-29784	,	-28208	,	15.35257	,	17
49,52	,	92196	,	-29802	,	-28215	,	16.798697	,	18
49,52	,	92212	,	-29798	,	-28208	,	17.340384	,	18
49,52	,	92228	,	-29799	,	-28209	,	16.630875	,	17
49,52	,	92260	,	-29788	,	-28208	,	14.79321	,	15
49,52	,	92276	,	-29785	,	-28215	,	12.334735	,	12
49,52	,	92292	,	-29794	,	-28197	,	9.798029	,	9
49,52	,	92324	,	-29780	,	-28202	,	7.5103745	,	6
49,52	,	92340	,	-29788	,	-28202	,	5.6523924	,	4
49,52	,	92372	,	-29790	,	-28201	,	4.2728424	,	2
49,52	,	92388	,	-29794	,	-28199	,	3.2228694	,	1
49,52	,	92404	,	-29785	,	-28193	,	2.332173	,	0
49,52	,	92436	,	-29795	,	-28209	,	1.554347	,	0
49,52	,	92452	,	-29796	,	-28206	,	0.8481773	,	0
49,52	,	92468	,	-29789	,	-28210	,	0.15168524	,	0
49,52	,	92500	,	-29798	,	-28205	,	-0.5067309	,	0
49,52	,	92516	,	-29801	,	-28217	,	-1.1099137	,	0
49,52	,	92548	,	-29788	,	-28210	,	-1.6742605	,	0
49,52	,	92564	,	-29793	,	-28216	,	-2.083903	,	0
49,52	,	92580	,	-29808	,	-28219	,	-2.2687914	,	0
49,52	,	92612	,	-29804	,	-28222	,	-2.4242957	,	0
49,52	,	92628	,	-29806	,	-28206	,	-2.7606938	,	0
49,52	,	92644	,	-29824	,	-28222	,	-3.3606791	,	0
49,52	,	92676	,	-29802	,	-28214	,	-4.248679	,	0
49,52	,	92692	,	-29816	,	-28221	,	-5.2508893	,	0
49,52	,	92723	,	-29813	,	-28227	,	-6.0893517	,	0
49,52	,	92739	,	-29811	,	-28210	,	-6.6114445	,	0
49,52	,	92755	,	-29819	,	-28217	,	-6.764565	,	0
49,52	,	92787	,	-29807	,	-28222	,	-6.5602503	,	0
49,53	,	92804	,	-29826	,	-28211	,	-6.071876	,	0
49,53	,	92819	,	-29826	,	-28225	,	-5.5085497	,	0
49,53	,	92851	,	-29828	,	-28225	,	-5.1599092	,	0
49,53	,	92868	,	-29828	,	-28225	,	-5.146254	,	0
49,53	,	92884	,	-29832	,	-28226	,	-5.397276	,	0
49,53	,	92916	,	-29828	,	-28225	,	-5.770116	,	0
49,53	,	92932	,	-29841	,	-28231	,	-6.1382527	,	0
49,53	,	92963	,	-29840	,	-28230	,	-6.5006948	,	0
49,53	,	92979	,	-29845	,	-28241	,	-6.9346313	,	0
49,53	,	92995	,	-29835	,	-28234	,	-7.4039373	,	0
49,53	,	93027	,	-29829	,	-28225	,	-7.6621885	,	0
49,53	,	93044	,	-29819	,	-28211	,	-7.3360033	,	0
49,53	,	93060	,	-29816	,	-28220	,	-6.1295366	,	0
49,53	,	93092	,	-29814	,	-28228	,	-4.008516	,	1
49,53	,	93108	,	-29799	,	-28223	,	-1.1634932	,	3
49,53	,	93139	,	-29802	,	-28208	,	2.1631196	,	5
49,53	,	93156	,	-29789	,	-28219	,	5.706807	,	8
49,53	,	93171	,	-29801	,	-28224	,	9.12202	,	11
49,53	,	93203	,	-29804	,	-28212	,	11.93491	,	14
49,53	,	93219	,	-29789	,	-28220	,	13.721023	,	16
49,53	,	93236	,	-29799	,	-28217	,	14.397639	,	17
49,53	,	93268	,	-29805	,	-28230	,	14.061842	,	17
49,53	,	93284	,	-29810	,	-28225	,	12.73059	,	16
49,53	,	93300	,	-29788	,	-28224	,	10.561094	,	14
49,53	,	93332	,	-29790	,	-28211	,	8.088871	,	12
49,53	,	93347	,	-29788	,	-28225	,	5.937098	,	9
49,53	,	93380	,	-29795	,	-28224	,	4.393532	,	6
49,53	,	93395	,	-29787	,	-28221	,	3.4180853	,	3
49,53	,	93411	,	-29793	,	-28214	,	2.878777	,	1
49,53	,	93443	,	-29790	,	-28221	,	2.6364014	,	0
49,53	,	93459	,	-29792	,	-28228	,	2.538772	,	0
49,53	,	93476	,	-29795	,	-28218	,	2.4442472	,	0
49,53	,	93507	,	-29784	,	-28218	,	2.280428	,	0
49,53	,	93523	,	-29790	,	-28222	,	2.0985217	,	0
49,53	,	93555	,	-29794	,	-28218	,	1.9467808	,	0
49,53	,	93571	,	-29801	,	-28218	,	1.7148322	,	0
49,53	,	93587	,	-29808	,	-28215	,	1.1879556	,	0
49,53	,	93619	,	-29800	,	-28215	,	0.23896515	,	0
49,53	,	93635	,	-29798	,	-28214	,	-0.9891738	,	0
49,53	,	93651	,	-29812	,	-28213	,	-2.2282386	,	0
49,53	,	93683	,	-29804	,	-28225	,	-3.3599672	,	0
49,53	,	93700	,	-29802	,	-28230	,	-4.305214	,	0
49,53	,	93716	,	-29807	,	-28217	,	-4.9107995	,	0
49,53	,	93747	,	-29804	,	-28218	,	-5.1092844	,	0
49,53	,	93763	,	-29818	,	-28220	,	-5.0068035	,	0
49,54	,	93795	,	-29802	,	-28221	,	-4.7821884	,	0
49,54	,	93811	,	-29815	,	-28221	,	-4.5119295	,	0
49,54	,	93827	,	-29821	,	-28221	,	-4.250943	,	0
49,54	,	93859	,	-29824	,	-28225	,	-4.1897936	,	0
49,54	,	93875	,	-29810	,	-28230	,	-4.4173336	,	0
49,54	,	93891	,	-29820	,	-28230	,	-4.7386055	,	0
49,54	,	93923	,	-29826	,	-28237	,	-4.966611	,	0
49,54	,	93939	,	-29825	,	-28222	,	-5.1404223	,	0
49,54	,	93971	,	-29833	,	-28236	,	-5.372597	,	0
49,54	,	93987	,	-29842	,	-28229	,	-5.7731066	,	0
49,54	,	94003	,	-29834	,	-28222	,	-6.4235964	,	0
49,54	,	94035	,	-29842	,	-28236	,	-7.2405367	,	0
49,54	,	94051	,	-29825	,	-28230	,	-7.965971	,	0
49,54	,	94083	,	-29844	,	-28233	,	-8.320522	,	0
49,54	,	94099	,	-29841	,	-28223	,	-8.241017	,	0
49,54	,	94116	,	-29816	,	-28216	,	-7.7633114	,	0
49,54	,	94147	,	-29810	,	-28219	,	-6.6373043	,	0
49,54	,	94163	,	-29790	,	-28212	,	-4.4471865	,	1
49,54	,	94179	,	-29804	,	-28223	,	-1.0682113	,	3
49,54	,	94211	,	-29802	,	-28216	,	3.067607	,	6
49,54	,	94227	,	-29804	,	-28221	,	7.150111	,	10
49,54	,	94259	,	-29785	,	-28216	,	10.539777	,	14
49,54	,	94275	,	-29792	,	-28203	,	13.047056	,	17
49,54	,	94291	,	-29775	,	-28213	,	14.7473135	,	19
49,54	,	94323	,	-29776	,	-28214	,	15.80946	,	20
49,54	,	94339	,	-29770	,	-28215	,	16.42492	,	21
49,54	,	94355	,	-29779	,	-28213	,	16.65464	,	20
49,54	,	94387	,	-29779	,	-28208	,	16.36365	,	18
49,54	,	94403	,	-29768	,	-28203	,	15.436726	,	15
49,54	,	94419	,	-29764	,	-28211	,	14.045528	,	11
49,54	,	94451	,	-29761	,	-28204	,	12.554676	,	7
49,54	,	94467	,	-29767	,	-28200	,	11.204828	,	4
49,54	,	94499	,	-29758	,	-28199	,	10.029971	,	2
49,54	,	94515	,	-29756	,	-28194	,	9.035231	,	1
49,54	,	94531	,	-29748	,	-28203	,	8.30925	,	0
49,54	,	94563	,	-29742	,	-28186	,	7.9778976	,	0
49,54	,	94579	,	-29762	,	-28184	,	8.0217	,	0
49,54	,	94595	,	-29761	,	-28192	,	8.086068	,	0
49,54	,	94627	,	-29745	,	-28203	,	7.7896976	,	0
49,54	,	94643	,	-29750	,	-28205	,	7.1578894	,	0
49,54	,	94675	,	-29759	,	-28183	,	6.372547	,	0
49,54	,	94691	,	-29756	,	-28200	,	5.424567	,	0
49,54	,	94707	,	-29757	,	-28203	,	4.269817	,	0
49,54	,	94739	,	-29764	,	-28193	,	2.9539685	,	0
49,54	,	94755	,	-29752	,	-28201	,	1.5685427	,	0
49,54	,	94771	,	-29763	,	-28195	,	0.27358294	,	0
49,55	,	94803	,	-29759	,	-28202	,	-0.794456	,	0
49,55	,	94819	,	-29749	,	-28196	,	-1.5473778	,	0
49,55	,	94835	,	-29759	,	-28189	,	-1.8727533	,	0
49,55	,	94867	,	-29764	,	-28197	,	-1.8159114	,	0
49,55	,	94883	,	-29756	,	-28215	,	-1.611515	,	0
49,55	,	94915	,	-29758	,	-28188	,	-1.3995135	,	0
49,55	,	94931	,	-29763	,	-28189	,	-1.1979716	,	0
49,55	,	94947	,	-29762	,	-28204	,	-1.0636227	,	0
49,55	,	94979	,	-29768	,	-28199	,	-1.0782323	,	0
49,55	,	94995	,	-29769	,	-28208	,	-1.3004935	,	0
49,55	,	95011	,	-29777	,	-28202	,	-1.7836275	,	0
49,55	,	95043	,	-29772	,	-28203	,	-2.5394893	,	0
49,55	,	95059	,	-29798	,	-28207	,	-3.5680623	,	0
49,55	,	95091	,	-29782	,	-28200	,	-4.92351	,	0
49,55	,	95107	,	-29784	,	-28206	,	-6.491888	,	0
49,55	,	95123	,	-29788	,	-28224	,	-7.9130683	,	0
49,55	,	95155	,	-29771	,	-28200	,	-8.832222	,	0
49,55	,	95171	,	-29797	,	-28202	,	-9.058621	,	0
49,55	,	95187	,	-29781	,	-28209	,	-8.680578	,	0
49,55	,	95219	,	-29802	,	-28212	,	-7.9915357	,	0
49,55	,	95235	,	-29801	,	-28205	,	-7.326239	,	0
49,55	,	95251	,	-29805	,	-28201	,	-6.971451	,	0
49,55	,	95283	,	-29814	,	-28210	,	-7.057991	,	0
49,55	,	95299	,	-29820	,	-28207	,	-7.6213064	,	0
49,55	,	95330	,	-29805	,	-28211	,	-8.565276	,	0
49,55	,	95347	,	-29820	,	-28215	,	-9.564722	,	0
49,55	,	95363	,	-29820	,	-28225	,	-10.333487	,	0
49,55	,	95394	,	-29830	,	-28215	,	-10.844817	,	0
49,55	,	95411	,	-29807	,	-28210	,	-11.098445	,	0
49,55	,	95427	,	-29794	,	-28212	,	-10.782646	,	0
49,55	,	95459	,	-29792	,	-28202	,	-9.404051	,	0
49,55	,	95475	,	-29790	,	-28193	,	-6.7888174	,	1
49,55	,	95506	,	-29776	,	-28196	,	-3.1866555	,	3
49,55	,	95523	,	-29776	,	-28203	,	1.0180683	,	6
49,55	,	95539	,	-29761	,	-28198	,	5.453494	,	10
49,55	,	95570	,	-29755	,	-28195	,	9.816661	,	14
49,55	,	95586	,	-29749	,	-28191	,	13.888914	,	18
49,55	,	95602	,	-29768	,	-28206	,	17.35063	,	22
49,55	,	95635	,	-29759	,	-28199	,	19.692402	,	25
49,55	,	95651	,	-29758	,	-28195	,	20.545303	,	27
49,55	,	95667	,	-29768	,	-28203	,	19.904552	,	26
49,55	,	95699	,	-29762	,	-28191	,	17.961813	,	24
49,55	,	95715	,	-29755	,	-28184	,	15.082086	,	21
49,55	,	95746	,	-29743	,	-28186	,	11.895672	,	17
49,55	,	95762	,	-29748	,	-28189	,	9.0836935	,	13
49,55	,	95779	,	-29759	,	-28196	,	6.9662004	,	9
49,56	,	95811	,	-29746	,	-28192	,	5.4393897	,	5
49,56	,	95827	,	-29745	,	-28197	,	4.367729	,	2
49,56	,	95843	,	-29750	,	-28192	,	3.726855	,	0
49,56	,	95874	,	-29754	,	-28182	,	3.3856828	,	0
49,56	,	95890	,	-29755	,	-28187	,	3.0939834	,	0
49,56	,	95922	,	-29753	,	-28182	,	2.6746447	,	0
49,56	,	95939	,	-29760	,	-28194	,	2.0785606	,	0
49,56	,	95955	,	-29752	,	-28192	,	1.3232359	,	0
49,56	,	95987	,	-29766	,	-28199	,	0.45006526	,	0
49,56	,	96003	,	-29754	,	-28199	,	-0.50024974	,	0
49,56	,	96018	,	-29744	,	-28191	,	-1.3579352	,	0
49,56	,	96050	,	-29761	,	-28190	,	-1.8475854	,	0
49,56	,	96066	,	-29758	,	-28198	,	-1.9444418	,	0
49,56	,	96082	,	-29766	,	-28209	,	-1.8946104	,	0
49,56	,	96114	,	-29774	,	-28198	,	-1.9759691	,	0
49,56	,	96131	,	-29773	,	-28202	,	-2.4107163	,	0
49,56	,	96163	,	-29785	,	-28201	,	-3.2995067	,	0
49,56	,	96179	,	-29772	,	-28211	,	-4.568684	,	0
49,56	,	96195	,	-29779	,	-28211	,	-5.9478807	,	0
49,56	,	96226	,	-29770	,	-28210	,	-7.0713477	,	0
49,56	,	96242	,	-29783	,	-28206	,	-7.6947956	,	0
49,56	,	96258	,	-29777	,	-28219	,	-7.8035364	,	0
49,56	,	96290	,	-29787	,	-28217	,	-7.54121	,	0
49,56	,	96306	,	-29783	,	-28213	,	-7.085517	,	0
49,56	,	96338	,	-29790	,	-28230	,	-6.5860357	,	0
49,56	,	96355	,	-29798	,	-28214	,	-6.192586	,	0
49,56	,	96371	,	-29804	,	-28222	,	-6.104472	,	0
49,56	,	96402	,	-29794	,	-28226	,	-6.4202557	,	0
49,56	,	96418	,	-29797	,	-28228	,	-6.94901	,	0
49,56	,	96434	,	-29802	,	-28226	,	-7.3857536	,	0
49,56	,	96466	,	-29814	,	-28225	,	-7.6494484	,	0
49,56	,	96482	,	-29803	,	-28217	,	-7.8563066	,	0
49,56	,	96498	,	-29803	,	-28231	,	-7.9917336	,	0
49,56	,	96531	,	-29809	,	-28232	,	-7.8903193	,	0
49,56	,	96547	,	-29810	,	-28225	,	-7.511034	,	0
49,56	,	96578	,	-29797	,	-28236	,	-6.898649	,	0
49,56	,	96594	,	-29786	,	-28221	,	-5.915307	,	0
49,56	,	96610	,	-29787	,	-28232	,	-4.310062	,	0
49,56	,	96642	,	-29771	,	-28211	,	-1.9850616	,	1
49,56	,	96658	,	-29772	,	-28222	,	0.97326756	,	3
49,56	,	96674	,	-29778	,	-28222	,	4.2735095	,	5
49,56	,	96706	,	-29775	,	-28223	,	7.3876724	,	8
49,56	,	96722	,	-29771	,	-28217	,	9.826191	,	11
49,56	,	96754	,	-29772	,	-28213	,	11.374087	,	13
49,56	,	96770	,	-29775	,	-28222	,	11.994157	,	14
49,56	,	96786	,	-29773	,	-28229	,	11.717408	,	14
49,57	,	96818	,	-29768	,	-28231	,	10.701885	,	14
49,57	,	96834	,	-29775	,	-28224	,	9.221518	,	13
49,57	,	96850	,	-29771	,	-28214	,	7.516208	,	11
49,57	,	96882	,	-29778	,	-28217	,	5.7320414	,	9
49,57	,	96898	,	-29765	,	-28210	,	4.005335	,	6
49,57	,	96914	,	-29759	,	-28215	,	2.5888865	,	3
49,57	,	96946	,	-29759	,	-28213	,	1.7892978	,	1
49,57	,	96962	,	-29770	,	-28208	,	1.6646769	,	0
49,57	,	96994	,	-29769	,	-28223	,	1.9205425	,	0
49,57	,	97010	,	-29771	,	-28211	,	2.1737022	,	0
49,57	,	97026	,	-29764	,	-28222	,	2.2258747	,	0
49,57	,	97058	,	-29772	,	-28216	,	2.0754397	,	0
49,57	,	97074	,	-29771	,	-28218	,	1.754365	,	0
49,57	,	97090	,	-29769	,	-28208	,	1.2779711	,	0
49,57	,	97122	,	-29775	,	-28216	,	0.69432455	,	0
49,57	,	97138	,	-29781	,	-28216	,	0.010140359	,	0
49,57	,	97170	,	-29783	,	-28229	,	-0.8559209	,	0
49,57	,	97186	,	-29781	,	-28212	,	-1.933466	,	0
49,57	,	97202	,	-29785	,	-28218	,	-3.109903	,	0
49,57	,	97234	,	-29778	,	-28225	,	-4.1933804	,	0
49,57	,	97250	,	-29770	,	-28214	,	-4.9262333	,	0
49,57	,	97266	,	-29780	,	-28216	,	-5.066332	,	0
49,57	,	97298	,	-29795	,	-28221	,	-4.697277	,	0
49,57	,	97314	,	-29783	,	-28218	,	-4.2205925	,	0
49,57	,	97330	,	-29807	,	-28221	,	-3.9917202	,	0
49,57	,	97362	,	-29799	,	-28220	,	-4.231655	,	0
49,57	,	97378	,	-29794	,	-28221	,	-4.949493	,	0
49,57	,	97410	,	-29789	,	-28227	,	-5.798397	,	0
49,57	,	97426	,	-29798	,	-28223	,	-6.3596663	,	0
49,57	,	97442	,	-29820	,	-28214	,	-6.601629	,	0
49,57	,	97474	,	-29824	,	-28226	,	-6.943595	,	0
49,57	,	97490	,	-29816	,	-28221	,	-7.755713	,	0
49,57	,	97506	,	-29810	,	-28228	,	-8.886442	,	0
49,57	,	97538	,	-29817	,	-28229	,	-9.859434	,	0
49,57	,	97554	,	-29815	,	-28224	,	-10.337564	,	0
49,57	,	97586	,	-29824	,	-28234	,	-10.267364	,	0
49,57	,	97602	,	-29840	,	-28235	,	-9.87367	,	0
49,57	,	97618	,	-29832	,	-28248	,	-9.5441265	,	0
49,57	,	97649	,	-29839	,	-28234	,	-9.490232	,	0
49,57	,	97666	,	-29840	,	-28236	,	-9.658909	,	0
49,57	,	97682	,	-29835	,	-28243	,	-9.89698	,	0
49,57	,	97713	,	-29825	,	-28228	,	-9.939363	,	0
49,57	,	97730	,	-29806	,	-28221	,	-9.34697	,	0
49,57	,	97762	,	-29803	,	-28228	,	-7.6505756	,	0
49,57	,	97778	,	-29797	,	-28224	,	-4.6742454	,	1
49,58	,	97794	,	-29809	,	-28224	,	-0.75563335	,	3
49,58	,	97826	,	-29783	,	-28229	,	3.4670296	,	6
49,58	,	97842	,	-29783	,	-28219	,	7.541308	,	10
49,58	,	97858	,	-29794	,	-28231	,	11.202343	,	14
49,58	,	97890	,	-29765	,	-28219	,	14.158348	,	17
49,58	,	97906	,	-29775	,	-28226	,	16.315098	,	19
49,58	,	97922	,	-29782	,	-28220	,	17.689638	,	21
49,58	,	97953	,	-29774	,	-28221	,	18.131968	,	22
49,58	,	97969	,	-29767	,	-28222	,	17.612917	,	21
49,58	,	98002	,	-29767	,	-28217	,	16.416193	,	19
49,58	,	98018	,	-29771	,	-28203	,	14.856547	,	16
49,58	,	98034	,	-29760	,	-28210	,	13.120745	,	12
49,58	,	98066	,	-29777	,	-28202	,	11.32165	,	8
49,58	,	98081	,	-29753	,	-28208	,	9.540087	,	5
49,58	,	98097	,	-29759	,	-28202	,	7.9546485	,	3
49,58	,	98130	,	-29771	,	-28204	,	6.7156744	,	1
49,58	,	98145	,	-29761	,	-28210	,	5.6983166	,	0
49,58	,	98177	,	-29770	,	-28211	,	4.713433	,	0
49,58	,	98193	,	-29764	,	-28206	,	3.7038226	,	0
49,58	,	98209	,	-29757	,	-28210	,	2.7385194	,	0
49,58	,	98242	,	-29759	,	-28223	,	1.9972491	,	0
49,58	,	98258	,	-29764	,	-28216	,	1.5758746	,	0
49,58	,	98274	,	-29774	,	-28211	,	1.3202556	,	0
49,58	,	98305	,	-29775	,	-28216	,	0.92345285	,	0
49,58	,	98322	,	-29786	,	-28217	,	0.11974615	,	0
49,58	,	98337	,	-29780	,	-28212	,	-1.187636	,	0
49,58	,	98369	,	-29779	,	-28216	,	-2.836669	,	0
49,58	,	98385	,	-29771	,	-28221	,	-4.4270477	,	0
49,58	,	98417	,	-29776	,	-28216	,	-5.5401444	,	0
49,58	,	98434	,	-29766	,	-28215	,	-5.9326234	,	0
49,58	,	98450	,	-29784	,	-28212	,	-5.605872	,	0
49,58	,	98482	,	-29773	,	-28229	,	-4.811963	,	0
49,58	,	98498	,	-29787	,	-28212	,	-3.8977907	,	0
49,58	,	98513	,	-29780	,	-28224	,	-3.1302168	,	0
49,58	,	98545	,	-29792	,	-28217	,	-2.6702638	,	0
49,58	,	98561	,	-29802	,	-28228	,	-2.6656828	,	0
49,58	,	98594	,	-29795	,	-28230	,	-3.2507823	,	0
49,58	,	98610	,	-29798	,	-28218	,	-4.3317637	,	0
49,58	,	98626	,	-29799	,	-28239	,	-5.5914664	,	0
49,58	,	98657	,	-29806	,	-28227	,	-6.7628894	,	0
49,58	,	98673	,	-29801	,	-28228	,	-7.7111897	,	0
49,58	,	98689	,	-29809	,	-28234	,	-8.35379	,	0
49,58	,	98721	,	-29806	,	-28240	,	-8.663591	,	0
49,58	,	98737	,	-29803	,	-28230	,	-8.6423	,	0
49,58	,	98753	,	-29820	,	-28234	,	-8.323384	,	0
49,58	,	98786	,	-29818	,	-28235	,	-7.897473	,	0
49,59	,	98801	,	-29812	,	-28230	,	-7.5556006	,	0
49,59	,	98833	,	-29828	,	-28246	,	-7.309877	,	0
49,59	,	98849	,	-29829	,	-28232	,	-7.2052836	,	0
49,59	,	98865	,	-29826	,	-28243	,	-7.3362293	,	0
49,59	,	98897	,	-29839	,	-28242	,	-7.676604	,	0
49,59	,	98913	,	-29845	,	-28240	,	-8.215806	,	0
49,59	,	98929	,	-29837	,	-28240	,	-8.968153	,	0
49,59	,	98962	,	-29834	,	-28254	,	-9.725852	,	0
49,59	,	98977	,	-29814	,	-28226	,	-10.027536	,	0
49,59	,	99009	,	-29806	,	-28230	,	-9.326957	,	0
49,59	,	99025	,	-29806	,	-28236	,	-7.2848353	,	0
49,59	,	99041	,	-29790	,	-28217	,	-3.9748368	,	2
49,59	,	99073	,	-29796	,	-28230	,	0.22819138	,	5
49,59	,	99089	,	-29785	,	-28229	,	4.7899685	,	9
49,59	,	99105	,	-29791	,	-28212	,	9.117396	,	13
49,59	,	99137	,	-29773	,	-28223	,	12.748615	,	17
49,59	,	99153	,	-29786	,	-28230	,	15.449605	,	20
49,59	,	99169	,	-29776	,	-28216	,	17.104162	,	22
49,59	,	99201	,	-29779	,	-28233	,	17.669462	,	23
49,59	,	99217	,	-29785	,	-28212	,	17.199259	,	23
49,59	,	99249	,	-29783	,	-28225	,	15.7757845	,	21
49,59	,	99265	,	-29783	,	-28212	,	13.55832	,	18
49,59	,	99281	,	-29768	,	-28208	,	10.9158	,	14
49,59	,	99313	,	-29768	,	-28220	,	8.398108	,	10
49,59	,	99329	,	-29777	,	-28216	,	6.4261303	,	6
49,59	,	99345	,	-29784	,	-28209	,	4.983169	,	3
49,59	,	99377	,	-29777	,	-28219	,	3.7827075	,	1
49,59	,	99393	,	-29773	,	-28221	,	2.6826882	,	0
49,59	,	99425	,	-29781	,	-28222	,	1.7398872	,	0
49,59	,	99441	,	-29786	,	-28230	,	0.9408884	,	0
49,59	,	99457	,	-29789	,	-28218	,	0.12665784	,	0
49,59	,	99489	,	-29777	,	-28218	,	-0.77679425	,	0
49,59	,	99505	,	-29781	,	-28221	,	-1.6110086	,	0
49,59	,	99521	,	-29785	,	-28225	,	-2.1825552	,	0
49,59	,	99553	,	-29779	,	-28210	,	-2.4496646	,	0
49,59	,	99569	,	-29792	,	-28223	,	-2.4809854	,	0
49,59	,	99585	,	-29799	,	-28225	,	-2.4836652	,	0
49,59	,	99617	,	-29796	,	-28218	,	-2.7404702	,	0
49,59	,	99633	,	-29801	,	-28212	,	-3.3621676	,	0
49,59	,	99665	,	-29793	,	-28226	,	-4.225251	,	0
49,59	,	99681	,	-29797	,	-28241	,	-5.0762887	,	0
49,59	,	99697	,	-29793	,	-28217	,	-5.6615276	,	0
49,59	,	99729	,	-29796	,	-28224	,	-5.8350945	,	0
49,59	,	99745	,	-29804	,	-28233	,	-5.6204643	,	0
49,59	,	99761	,	-29802	,	-28241	,	-5.20654	,	0
50,0	,	99793	,	-29811	,	-28238	,	-4.8243265	,	0
50,0	,	99809	,	-29817	,	-28240	,	-4.681714	,	0
50,0	,	99841	,	-29811	,	-28234	,	-4.909301	,	0
50,0	,	99857	,	-29816	,	-28254	,	-5.431288	,	0
50,0	,	99873	,	-29828	,	-28232	,	-6.0967903	,	0
50,0	,	99905	,	-29823	,	-28246	,	-6.8738995	,	0
50,0	,	99921	,	-29826	,	-28249	,	-7.717231	,	0
50,0	,	99937	,	-29830	,	-28224	,	-8.485651	,	0
50,0	,	99969	,	-29839	,	-28243	,	-9.106766	,	0
50,0	,	99985	,	-29833	,	-28243	,	-9.606514	,	0
50,0	,	100001	,	-29844	,	-28241	,	-9.990724	,	0
50,0	,	100033	,	-29849	,	-28252	,	-10.287643	,	0
50,0	,	100049	,	-29835	,	-28251	,	-10.523549	,	0
50,0	,	100081	,	-29844	,	-28243	,	-10.556074	,	0
50,0	,	100097	,	-29829	,	-28232	,	-10.153265	,	0
50,0	,	100113	,	-29817	,	-28237	,	-9.070553	,	0
