Data recorded on Sun Jul 23 11-48-10 CAT 2017
Time: 11:48:12
Time		Millis		IR PPG		Red PPG		Filtered		SSF
48,21	,	48499	,	-20435	,	-18355	,	-5.5380173	,	1
48,21	,	48515	,	-20447	,	-18379	,	-4.7027454	,	2
48,21	,	48531	,	-20454	,	-18377	,	-4.600906	,	2
48,21	,	48563	,	-20453	,	-18376	,	-5.35415	,	2
48,21	,	48579	,	-20462	,	-18379	,	-6.8181367	,	2
48,21	,	48595	,	-20462	,	-18393	,	-8.688964	,	2
48,21	,	48627	,	-20471	,	-18382	,	-10.65601	,	2
48,21	,	48643	,	-20477	,	-18378	,	-12.496223	,	2
48,21	,	48675	,	-20483	,	-18384	,	-14.119877	,	2
48,21	,	48691	,	-20488	,	-18390	,	-15.510078	,	1
48,21	,	48707	,	-20498	,	-18397	,	-16.672157	,	0
48,21	,	48739	,	-20495	,	-18393	,	-17.605255	,	0
48,21	,	48755	,	-20513	,	-18409	,	-18.296179	,	0
48,21	,	48771	,	-20527	,	-18405	,	-18.870832	,	0
48,21	,	48803	,	-20522	,	-18402	,	-19.558094	,	0
48,21	,	48819	,	-20516	,	-18415	,	-20.304436	,	0
48,21	,	48835	,	-20534	,	-18412	,	-20.774784	,	0
48,21	,	48867	,	-20528	,	-18412	,	-20.77168	,	0
48,21	,	48883	,	-20527	,	-18400	,	-20.254196	,	0
48,21	,	48915	,	-20493	,	-18389	,	-18.986015	,	0
48,21	,	48931	,	-20455	,	-18378	,	-16.29494	,	1
48,21	,	48947	,	-20434	,	-18374	,	-11.285547	,	3
48,21	,	48979	,	-20420	,	-18354	,	-3.5355263	,	8
48,21	,	48995	,	-20403	,	-18346	,	6.489427	,	15
48,21	,	49011	,	-20405	,	-18363	,	17.636837	,	25
48,21	,	49043	,	-20404	,	-18351	,	28.39263	,	36
48,21	,	49058	,	-20401	,	-18352	,	37.25661	,	46
48,21	,	49091	,	-20410	,	-18354	,	43.133514	,	54
48,21	,	49107	,	-20410	,	-18357	,	45.46268	,	59
48,21	,	49123	,	-20408	,	-18358	,	44.255737	,	60
48,21	,	49155	,	-20429	,	-18364	,	40.004494	,	58
48,21	,	49171	,	-20429	,	-18368	,	33.36351	,	53
48,21	,	49187	,	-20431	,	-18376	,	25.0936	,	46
48,21	,	49218	,	-20423	,	-18349	,	16.20134	,	36
48,21	,	49235	,	-20410	,	-18353	,	7.866167	,	25
48,21	,	49266	,	-20417	,	-18360	,	1.1424599	,	15
48,21	,	49283	,	-20414	,	-18356	,	-3.4246988	,	7
48,21	,	49299	,	-20426	,	-18356	,	-5.9190054	,	2
48,21	,	49330	,	-20416	,	-18363	,	-6.8013988	,	0
48,21	,	49347	,	-20422	,	-18360	,	-6.5781717	,	0
48,21	,	49363	,	-20428	,	-18361	,	-5.704238	,	0
48,21	,	49395	,	-20425	,	-18368	,	-4.618799	,	0
48,21	,	49411	,	-20444	,	-18369	,	-3.7077932	,	1
48,21	,	49427	,	-20428	,	-18377	,	-3.2499404	,	1
48,21	,	49458	,	-20436	,	-18365	,	-3.278206	,	1
48,21	,	49474	,	-20460	,	-18372	,	-3.720656	,	1
48,22	,	49507	,	-20465	,	-18373	,	-4.7516527	,	1
48,22	,	49523	,	-20468	,	-18380	,	-6.579417	,	1
48,22	,	49539	,	-20481	,	-18375	,	-9.108427	,	1
48,22	,	49570	,	-20476	,	-18383	,	-12.023282	,	1
48,22	,	49586	,	-20483	,	-18388	,	-14.895785	,	1
48,22	,	49602	,	-20501	,	-18393	,	-17.362589	,	0
48,22	,	49634	,	-20492	,	-18393	,	-19.298603	,	0
48,22	,	49650	,	-20503	,	-18393	,	-20.643833	,	0
48,22	,	49682	,	-20509	,	-18405	,	-21.344925	,	0
48,22	,	49698	,	-20517	,	-18398	,	-21.503922	,	0
48,22	,	49714	,	-20520	,	-18409	,	-21.31285	,	0
48,22	,	49746	,	-20533	,	-18401	,	-20.951284	,	0
48,22	,	49762	,	-20538	,	-18405	,	-20.604977	,	0
48,22	,	49779	,	-20530	,	-18405	,	-20.356426	,	0
48,22	,	49811	,	-20503	,	-18391	,	-19.8874	,	0
48,22	,	49826	,	-20454	,	-18373	,	-18.266018	,	0
48,22	,	49842	,	-20424	,	-18356	,	-14.185049	,	1
48,22	,	49874	,	-20412	,	-18358	,	-6.781516	,	5
48,22	,	49890	,	-20408	,	-18358	,	3.6125546	,	12
48,22	,	49922	,	-20390	,	-18366	,	15.617506	,	22
48,22	,	49938	,	-20402	,	-18344	,	27.486774	,	34
48,22	,	49954	,	-20391	,	-18352	,	37.565563	,	45
48,22	,	49986	,	-20395	,	-18346	,	44.627377	,	55
48,22	,	50002	,	-20389	,	-18346	,	48.11965	,	62
48,22	,	50018	,	-20405	,	-18351	,	48.055256	,	65
48,22	,	50050	,	-20403	,	-18348	,	44.76867	,	64
48,22	,	50066	,	-20420	,	-18361	,	38.80696	,	60
48,22	,	50098	,	-20413	,	-18351	,	30.905827	,	53
48,22	,	50114	,	-20402	,	-18346	,	22.064823	,	43
48,22	,	50130	,	-20403	,	-18358	,	13.504564	,	31
48,22	,	50162	,	-20403	,	-18364	,	6.248065	,	20
48,22	,	50178	,	-20396	,	-18342	,	0.83491135	,	10
48,22	,	50194	,	-20392	,	-18343	,	-2.5467792	,	3
48,22	,	50226	,	-20402	,	-18356	,	-3.9992769	,	0
48,22	,	50242	,	-20408	,	-18347	,	-4.0106215	,	0
48,22	,	50274	,	-20404	,	-18355	,	-3.2781255	,	0
48,22	,	50290	,	-20413	,	-18359	,	-2.3767157	,	0
48,22	,	50306	,	-20414	,	-18363	,	-1.6976222	,	0
48,22	,	50338	,	-20417	,	-18363	,	-1.4811025	,	0
48,22	,	50354	,	-20428	,	-18365	,	-1.8223411	,	0
48,22	,	50370	,	-20427	,	-18362	,	-2.737938	,	0
48,22	,	50402	,	-20436	,	-18386	,	-4.154774	,	0
48,22	,	50418	,	-20451	,	-18362	,	-5.971345	,	0
48,22	,	50450	,	-20455	,	-18377	,	-8.175054	,	0
48,22	,	50466	,	-20455	,	-18367	,	-10.687497	,	0
48,22	,	50482	,	-20462	,	-18376	,	-13.225951	,	0
48,23	,	50514	,	-20469	,	-18382	,	-15.485269	,	0
48,23	,	50530	,	-20466	,	-18382	,	-17.267399	,	0
48,23	,	50546	,	-20479	,	-18393	,	-18.445858	,	0
48,23	,	50578	,	-20492	,	-18387	,	-19.078115	,	0
48,23	,	50594	,	-20494	,	-18389	,	-19.436584	,	0
48,23	,	50610	,	-20484	,	-18389	,	-19.665253	,	0
48,23	,	50642	,	-20510	,	-18401	,	-19.670948	,	0
48,23	,	50658	,	-20517	,	-18384	,	-19.526001	,	0
48,23	,	50690	,	-20527	,	-18408	,	-19.553839	,	0
48,23	,	50706	,	-20520	,	-18402	,	-19.916927	,	0
48,23	,	50722	,	-20476	,	-18380	,	-20.181744	,	0
48,23	,	50754	,	-20450	,	-18367	,	-19.18481	,	0
48,23	,	50770	,	-20422	,	-18356	,	-15.6064205	,	0
48,23	,	50786	,	-20395	,	-18346	,	-8.751015	,	3
48,23	,	50817	,	-20384	,	-18344	,	1.1804142	,	9
48,23	,	50833	,	-20391	,	-18348	,	13.061546	,	18
48,23	,	50866	,	-20372	,	-18343	,	25.124105	,	29
48,23	,	50882	,	-20378	,	-18350	,	35.661835	,	41
48,23	,	50898	,	-20381	,	-18336	,	43.424732	,	51
48,23	,	50930	,	-20386	,	-18350	,	47.61296	,	58
48,23	,	50945	,	-20383	,	-18348	,	47.97886	,	62
48,23	,	50961	,	-20395	,	-18348	,	44.85652	,	62
48,23	,	50994	,	-20395	,	-18348	,	38.944443	,	59
48,23	,	51010	,	-20393	,	-18353	,	31.16379	,	53
48,23	,	51041	,	-20399	,	-18347	,	22.572937	,	44
48,23	,	51057	,	-20384	,	-18344	,	14.202564	,	33
48,23	,	51074	,	-20387	,	-18343	,	6.961385	,	21
48,23	,	51105	,	-20375	,	-18338	,	1.5231342	,	11
48,23	,	51121	,	-20379	,	-18352	,	-1.8145113	,	4
48,23	,	51137	,	-20383	,	-18334	,	-3.192848	,	0
48,23	,	51169	,	-20392	,	-18346	,	-3.1693354	,	0
48,23	,	51185	,	-20398	,	-18346	,	-2.5163383	,	0
48,23	,	51201	,	-20395	,	-18348	,	-1.9006025	,	0
48,23	,	51233	,	-20403	,	-18353	,	-1.6753485	,	0
48,23	,	51249	,	-20417	,	-18357	,	-2.0018847	,	0
48,23	,	51281	,	-20416	,	-18351	,	-3.0150106	,	0
48,23	,	51297	,	-20413	,	-18363	,	-4.653731	,	0
48,23	,	51313	,	-20418	,	-18346	,	-6.567178	,	0
48,23	,	51345	,	-20423	,	-18353	,	-8.382822	,	0
48,23	,	51361	,	-20442	,	-18368	,	-9.984738	,	0
48,23	,	51377	,	-20434	,	-18354	,	-11.47698	,	0
48,23	,	51409	,	-20456	,	-18362	,	-12.9530325	,	0
48,23	,	51425	,	-20448	,	-18361	,	-14.422501	,	0
48,23	,	51457	,	-20457	,	-18370	,	-15.801531	,	0
48,23	,	51473	,	-20474	,	-18371	,	-16.996649	,	0
48,24	,	51489	,	-20460	,	-18371	,	-18.002903	,	0
48,24	,	51521	,	-20473	,	-18380	,	-18.723774	,	0
48,24	,	51537	,	-20480	,	-18374	,	-19.028896	,	0
48,24	,	51553	,	-20486	,	-18380	,	-18.99604	,	0
48,24	,	51585	,	-20483	,	-18388	,	-18.761982	,	0
48,24	,	51601	,	-20471	,	-18389	,	-18.249619	,	0
48,24	,	51617	,	-20449	,	-18355	,	-17.062767	,	0
48,24	,	51649	,	-20392	,	-18344	,	-14.403634	,	1
48,24	,	51665	,	-20373	,	-18335	,	-9.211168	,	3
48,24	,	51697	,	-20364	,	-18331	,	-0.9461026	,	8
48,24	,	51713	,	-20359	,	-18333	,	9.725147	,	16
48,24	,	51729	,	-20368	,	-18329	,	21.169098	,	26
48,24	,	51761	,	-20369	,	-18333	,	31.445375	,	37
48,24	,	51777	,	-20366	,	-18326	,	38.954716	,	47
48,24	,	51793	,	-20370	,	-18333	,	42.86963	,	54
48,24	,	51825	,	-20379	,	-18334	,	43.07215	,	57
48,24	,	51841	,	-20385	,	-18348	,	39.88212	,	56
48,24	,	51873	,	-20392	,	-18336	,	33.92407	,	54
48,24	,	51889	,	-20394	,	-18342	,	26.062878	,	49
48,24	,	51905	,	-20381	,	-18348	,	17.369442	,	41
48,24	,	51937	,	-20373	,	-18343	,	9.083087	,	31
48,24	,	51953	,	-20378	,	-18332	,	2.31151	,	20
48,24	,	51969	,	-20371	,	-18338	,	-2.3556957	,	10
48,24	,	52000	,	-20375	,	-18334	,	-4.872878	,	3
48,24	,	52016	,	-20380	,	-18343	,	-5.587138	,	0
48,24	,	52049	,	-20390	,	-18341	,	-5.1447678	,	0
48,24	,	52065	,	-20387	,	-18345	,	-4.273861	,	0
48,24	,	52081	,	-20403	,	-18360	,	-3.5455008	,	0
48,24	,	52113	,	-20396	,	-18339	,	-3.310016	,	0
48,24	,	52129	,	-20412	,	-18342	,	-3.6994982	,	0
48,24	,	52145	,	-20407	,	-18353	,	-4.6770864	,	0
48,24	,	52176	,	-20429	,	-18354	,	-6.1540937	,	0
48,24	,	52192	,	-20429	,	-18353	,	-8.086066	,	0
48,24	,	52209	,	-20426	,	-18358	,	-10.358086	,	0
48,24	,	52241	,	-20431	,	-18359	,	-12.621624	,	0
48,24	,	52257	,	-20442	,	-18353	,	-14.509779	,	0
48,24	,	52288	,	-20455	,	-18362	,	-15.951423	,	0
48,24	,	52304	,	-20457	,	-18362	,	-17.115128	,	0
48,24	,	52320	,	-20470	,	-18380	,	-18.167198	,	0
48,24	,	52353	,	-20463	,	-18360	,	-19.14155	,	0
48,24	,	52369	,	-20480	,	-18386	,	-19.950249	,	0
48,24	,	52384	,	-20476	,	-18382	,	-20.49863	,	0
48,24	,	52416	,	-20478	,	-18382	,	-20.701141	,	0
48,24	,	52432	,	-20499	,	-18384	,	-20.520943	,	0
48,24	,	52464	,	-20489	,	-18387	,	-20.096596	,	0
48,24	,	52480	,	-20501	,	-18391	,	-19.572407	,	0
48,25	,	52496	,	-20464	,	-18372	,	-18.79567	,	0
48,25	,	52528	,	-20445	,	-18359	,	-17.149193	,	0
48,25	,	52544	,	-20401	,	-18349	,	-13.67584	,	1
48,25	,	52560	,	-20381	,	-18351	,	-7.543477	,	4
48,25	,	52592	,	-20370	,	-18328	,	1.4069014	,	10
48,25	,	52608	,	-20358	,	-18331	,	12.393234	,	18
48,25	,	52624	,	-20353	,	-18332	,	23.997623	,	28
48,25	,	52656	,	-20359	,	-18324	,	34.635727	,	39
48,25	,	52672	,	-20348	,	-18337	,	42.901672	,	49
48,25	,	52704	,	-20351	,	-18334	,	47.930347	,	57
48,25	,	52720	,	-20357	,	-18328	,	49.464783	,	62
48,25	,	52736	,	-20361	,	-18336	,	47.6366	,	62
48,25	,	52768	,	-20376	,	-18334	,	42.82925	,	59
48,25	,	52784	,	-20363	,	-18336	,	35.68463	,	53
48,25	,	52800	,	-20366	,	-18346	,	27.18621	,	45
48,25	,	52832	,	-20357	,	-18321	,	18.53284	,	35
48,25	,	52848	,	-20356	,	-18328	,	10.800499	,	24
48,25	,	52880	,	-20353	,	-18324	,	4.711423	,	14
48,25	,	52896	,	-20352	,	-18324	,	0.5632067	,	6
48,25	,	52912	,	-20353	,	-18333	,	-1.7208986	,	1
48,25	,	52944	,	-20359	,	-18328	,	-2.5071507	,	0
48,25	,	52960	,	-20370	,	-18326	,	-2.3886032	,	0
48,25	,	52976	,	-20366	,	-18333	,	-2.0153332	,	0
48,25	,	53008	,	-20379	,	-18331	,	-1.862057	,	0
48,25	,	53024	,	-20377	,	-18342	,	-2.1745658	,	0
48,25	,	53040	,	-20386	,	-18344	,	-3.0197535	,	0
48,25	,	53072	,	-20391	,	-18321	,	-4.344141	,	0
48,25	,	53088	,	-20407	,	-18349	,	-6.105306	,	0
48,25	,	53120	,	-20403	,	-18345	,	-8.28055	,	0
48,25	,	53136	,	-20411	,	-18348	,	-10.706865	,	0
48,25	,	53152	,	-20421	,	-18356	,	-13.113773	,	0
48,25	,	53184	,	-20432	,	-18353	,	-15.353143	,	0
48,25	,	53200	,	-20433	,	-18355	,	-17.405397	,	0
48,25	,	53216	,	-20433	,	-18358	,	-19.164606	,	0
48,25	,	53248	,	-20434	,	-18362	,	-20.376514	,	0
48,25	,	53264	,	-20437	,	-18361	,	-20.80753	,	0
48,25	,	53296	,	-20448	,	-18372	,	-20.439293	,	0
48,25	,	53312	,	-20453	,	-18357	,	-19.516428	,	0
48,25	,	53328	,	-20464	,	-18369	,	-18.417408	,	0
48,25	,	53360	,	-20478	,	-18378	,	-17.536476	,	1
48,25	,	53376	,	-20479	,	-18379	,	-17.195131	,	1
48,25	,	53392	,	-20484	,	-18381	,	-17.464567	,	1
48,25	,	53424	,	-20470	,	-18367	,	-18.052422	,	1
48,25	,	53440	,	-20434	,	-18364	,	-18.221064	,	1
48,25	,	53472	,	-20393	,	-18344	,	-16.754099	,	1
48,26	,	53488	,	-20378	,	-18331	,	-12.426067	,	2
48,26	,	53504	,	-20363	,	-18329	,	-4.8225174	,	6
48,26	,	53536	,	-20358	,	-18330	,	5.343453	,	13
48,26	,	53552	,	-20344	,	-18304	,	16.641844	,	22
48,26	,	53568	,	-20342	,	-18322	,	27.525988	,	33
48,26	,	53599	,	-20345	,	-18321	,	36.650524	,	43
48,26	,	53615	,	-20344	,	-18312	,	42.974274	,	52
48,26	,	53631	,	-20358	,	-18325	,	45.86315	,	58
48,26	,	53664	,	-20367	,	-18333	,	45.0949	,	60
48,26	,	53680	,	-20365	,	-18333	,	40.886642	,	59
48,26	,	53711	,	-20372	,	-18328	,	33.976067	,	55
48,26	,	53727	,	-20365	,	-18327	,	25.472586	,	48
48,26	,	53743	,	-20360	,	-18314	,	16.62541	,	38
48,26	,	53775	,	-20352	,	-18346	,	8.636979	,	27
48,26	,	53792	,	-20356	,	-18315	,	2.3909073	,	17
48,26	,	53808	,	-20352	,	-18323	,	-1.7563295	,	8
48,26	,	53840	,	-20352	,	-18327	,	-3.905909	,	2
48,26	,	53855	,	-20360	,	-18328	,	-4.4460073	,	0
48,26	,	53887	,	-20361	,	-18330	,	-3.9565115	,	0
48,26	,	53903	,	-20362	,	-18333	,	-3.037116	,	0
48,26	,	53919	,	-20378	,	-18334	,	-2.186663	,	0
48,26	,	53951	,	-20388	,	-18342	,	-1.8828536	,	0
48,26	,	53968	,	-20386	,	-18349	,	-2.4909358	,	0
48,26	,	53984	,	-20381	,	-18334	,	-3.9565246	,	0
48,26	,	54015	,	-20403	,	-18357	,	-5.897036	,	0
48,26	,	54031	,	-20398	,	-18340	,	-8.025685	,	0
48,26	,	54063	,	-20411	,	-18356	,	-10.202979	,	0
48,26	,	54079	,	-20420	,	-18358	,	-12.3300905	,	0
48,26	,	54095	,	-20424	,	-18361	,	-14.383751	,	0
48,26	,	54128	,	-20435	,	-18369	,	-16.35066	,	0
48,26	,	54143	,	-20428	,	-18365	,	-18.126982	,	0
48,26	,	54159	,	-20442	,	-18360	,	-19.521532	,	0
48,26	,	54191	,	-20446	,	-18376	,	-20.412981	,	0
48,26	,	54207	,	-20447	,	-18372	,	-20.824493	,	0
48,26	,	54223	,	-20454	,	-18372	,	-20.800064	,	0
48,26	,	54255	,	-20451	,	-18382	,	-20.35838	,	0
48,26	,	54271	,	-20463	,	-18363	,	-19.538364	,	0
48,26	,	54303	,	-20460	,	-18378	,	-18.443085	,	0
48,26	,	54319	,	-20460	,	-18372	,	-17.168728	,	1
48,26	,	54335	,	-20429	,	-18358	,	-15.563837	,	2
48,26	,	54367	,	-20399	,	-18342	,	-13.028729	,	3
48,26	,	54383	,	-20379	,	-18334	,	-8.735935	,	5
48,26	,	54399	,	-20349	,	-18328	,	-2.1709132	,	9
48,26	,	54431	,	-20353	,	-18326	,	6.510471	,	15
48,26	,	54447	,	-20346	,	-18324	,	16.376163	,	23
48,26	,	54479	,	-20341	,	-18328	,	26.010775	,	32
48,27	,	54495	,	-20353	,	-18343	,	34.0346	,	41
48,27	,	54511	,	-20352	,	-18311	,	39.34808	,	48
48,27	,	54543	,	-20356	,	-18332	,	41.321987	,	52
48,27	,	54559	,	-20378	,	-18334	,	39.867634	,	52
48,27	,	54575	,	-20377	,	-18337	,	35.254433	,	50
48,27	,	54607	,	-20391	,	-18339	,	28.07607	,	46
48,27	,	54623	,	-20369	,	-18333	,	19.336292	,	40
48,27	,	54639	,	-20374	,	-18331	,	10.380833	,	32
48,27	,	54671	,	-20363	,	-18330	,	2.5384703	,	23
48,27	,	54687	,	-20359	,	-18335	,	-3.260397	,	14
48,27	,	54719	,	-20362	,	-18323	,	-6.6187434	,	6
48,27	,	54735	,	-20362	,	-18335	,	-7.7006063	,	1
48,27	,	54751	,	-20373	,	-18326	,	-7.114316	,	0
48,27	,	54783	,	-20385	,	-18345	,	-5.7208347	,	0
48,27	,	54799	,	-20381	,	-18337	,	-4.378859	,	1
48,27	,	54815	,	-20385	,	-18345	,	-3.594631	,	2
48,27	,	54847	,	-20389	,	-18355	,	-3.4729173	,	2
48,27	,	54863	,	-20401	,	-18350	,	-3.9813206	,	2
48,27	,	54895	,	-20406	,	-18352	,	-5.1053033	,	2
48,27	,	54911	,	-20407	,	-18359	,	-6.7701178	,	2
48,27	,	54927	,	-20413	,	-18361	,	-8.7517395	,	2
48,27	,	54959	,	-20408	,	-18367	,	-10.721966	,	2
48,27	,	54975	,	-20428	,	-18376	,	-12.407085	,	2
48,27	,	54991	,	-20439	,	-18356	,	-13.818962	,	1
48,27	,	55023	,	-20444	,	-18369	,	-15.2109375	,	0
48,27	,	55039	,	-20445	,	-18372	,	-16.709938	,	0
48,27	,	55055	,	-20446	,	-18380	,	-18.151361	,	0
48,27	,	55087	,	-20453	,	-18379	,	-19.251625	,	0
48,27	,	55103	,	-20461	,	-18379	,	-19.854593	,	0
48,27	,	55134	,	-20465	,	-18387	,	-20.00605	,	0
48,27	,	55150	,	-20470	,	-18386	,	-19.831738	,	0
48,27	,	55167	,	-20471	,	-18375	,	-19.42247	,	0
48,27	,	55199	,	-20439	,	-18365	,	-18.64387	,	0
48,27	,	55215	,	-20397	,	-18363	,	-16.803446	,	0
48,27	,	55231	,	-20371	,	-18329	,	-12.77478	,	1
48,27	,	55262	,	-20352	,	-18336	,	-5.785383	,	5
48,27	,	55278	,	-20350	,	-18330	,	3.923379	,	11
48,27	,	55310	,	-20346	,	-18338	,	15.103012	,	20
48,27	,	55326	,	-20352	,	-18334	,	25.99217	,	31
48,27	,	55343	,	-20346	,	-18336	,	34.932068	,	41
48,27	,	55374	,	-20340	,	-18337	,	40.866325	,	49
48,27	,	55391	,	-20352	,	-18330	,	43.448364	,	54
48,27	,	55406	,	-20367	,	-18330	,	42.692436	,	56
48,27	,	55438	,	-20366	,	-18337	,	38.787544	,	55
48,27	,	55454	,	-20379	,	-18359	,	32.260628	,	51
48,27	,	55486	,	-20368	,	-18327	,	24.012262	,	45
48,28	,	55503	,	-20362	,	-18323	,	15.226429	,	36
48,28	,	55519	,	-20347	,	-18332	,	7.222101	,	25
48,28	,	55550	,	-20356	,	-18334	,	1.0710936	,	15
48,28	,	55566	,	-20359	,	-18332	,	-2.8247938	,	7
48,28	,	55582	,	-20361	,	-18334	,	-4.7355266	,	2
48,28	,	55614	,	-20356	,	-18339	,	-5.192147	,	0
48,28	,	55630	,	-20376	,	-18332	,	-4.755521	,	0
48,28	,	55646	,	-20368	,	-18338	,	-4.027557	,	0
48,28	,	55678	,	-20373	,	-18346	,	-3.4655914	,	0
48,28	,	55694	,	-20385	,	-18358	,	-3.2857363	,	0
48,28	,	55726	,	-20389	,	-18331	,	-3.645875	,	0
48,28	,	55742	,	-20397	,	-18356	,	-4.656952	,	0
48,28	,	55758	,	-20411	,	-18352	,	-6.325403	,	0
48,28	,	55790	,	-20408	,	-18355	,	-8.5720825	,	0
48,28	,	55806	,	-20406	,	-18353	,	-11.108255	,	0
48,28	,	55822	,	-20422	,	-18356	,	-13.493565	,	0
48,28	,	55854	,	-20428	,	-18366	,	-15.486534	,	0
48,28	,	55870	,	-20430	,	-18375	,	-17.087849	,	0
48,28	,	55902	,	-20435	,	-18384	,	-18.298454	,	0
48,28	,	55918	,	-20455	,	-18395	,	-19.1484	,	0
48,28	,	55934	,	-20465	,	-18420	,	-19.870247	,	0
48,28	,	55966	,	-20471	,	-18405	,	-20.76386	,	0
48,28	,	55982	,	-20485	,	-18427	,	-21.957853	,	0
48,28	,	55998	,	-20488	,	-18430	,	-23.407955	,	0
48,28	,	56030	,	-20485	,	-18422	,	-24.891582	,	0
48,28	,	56046	,	-20460	,	-18419	,	-25.86478	,	0
48,28	,	56062	,	-20412	,	-18391	,	-25.32051	,	0
48,28	,	56094	,	-20393	,	-18376	,	-21.989305	,	0
48,28	,	56110	,	-20370	,	-18370	,	-15.089265	,	3
48,28	,	56142	,	-20363	,	-18367	,	-4.9058323	,	9
48,28	,	56158	,	-20348	,	-18354	,	7.35338	,	19
48,28	,	56174	,	-20346	,	-18354	,	20.05864	,	31
48,28	,	56206	,	-20336	,	-18338	,	31.616161	,	43
48,28	,	56222	,	-20339	,	-18345	,	40.76071	,	54
48,28	,	56238	,	-20332	,	-18355	,	46.695915	,	63
48,28	,	56270	,	-20338	,	-18348	,	49.1342	,	68
48,28	,	56286	,	-20360	,	-18350	,	48.124397	,	70
48,28	,	56318	,	-20350	,	-18349	,	43.90149	,	67
48,28	,	56334	,	-20350	,	-18354	,	37.114395	,	61
48,28	,	56350	,	-20345	,	-18340	,	28.891178	,	51
48,28	,	56381	,	-20350	,	-18348	,	20.43178	,	39
48,28	,	56398	,	-20341	,	-18350	,	12.686253	,	27
48,28	,	56414	,	-20341	,	-18349	,	6.3176956	,	16
48,28	,	56446	,	-20347	,	-18339	,	1.6587162	,	7
48,28	,	56461	,	-20346	,	-18360	,	-1.3466511	,	2
48,29	,	56493	,	-20354	,	-18364	,	-3.0278914	,	0
48,29	,	56509	,	-20361	,	-18370	,	-3.8526235	,	0
48,29	,	56526	,	-20358	,	-18375	,	-4.291237	,	0
48,29	,	56558	,	-20366	,	-18374	,	-4.6460257	,	0
48,29	,	56574	,	-20369	,	-18374	,	-5.074577	,	0
48,29	,	56590	,	-20377	,	-18363	,	-5.6973114	,	0
48,29	,	56621	,	-20375	,	-18371	,	-6.569167	,	0
48,29	,	56637	,	-20377	,	-18367	,	-7.599649	,	0
48,29	,	56653	,	-20387	,	-18374	,	-8.621835	,	0
48,29	,	56685	,	-20376	,	-18352	,	-9.500408	,	0
48,29	,	56701	,	-20386	,	-18360	,	-10.093292	,	0
48,29	,	56733	,	-20391	,	-18365	,	-10.334604	,	0
48,29	,	56749	,	-20386	,	-18354	,	-10.304077	,	0
48,29	,	56765	,	-20399	,	-18359	,	-10.094692	,	0
48,29	,	56797	,	-20407	,	-18371	,	-9.857079	,	0
48,29	,	56814	,	-20424	,	-18363	,	-9.904793	,	0
48,29	,	56829	,	-20411	,	-18367	,	-10.497946	,	0
48,29	,	56862	,	-20399	,	-18354	,	-11.441719	,	0
48,29	,	56878	,	-20368	,	-18341	,	-11.949434	,	0
48,29	,	56909	,	-20344	,	-18346	,	-10.929074	,	0
48,29	,	56925	,	-20319	,	-18310	,	-7.462781	,	1
48,29	,	56941	,	-20294	,	-18318	,	-1.177196	,	4
48,29	,	56973	,	-20282	,	-18316	,	7.6370344	,	10
48,29	,	56989	,	-20285	,	-18309	,	17.990896	,	18
48,29	,	57005	,	-20285	,	-18314	,	28.316446	,	28
48,29	,	57037	,	-20288	,	-18315	,	36.943344	,	38
48,29	,	57053	,	-20277	,	-18320	,	42.681046	,	46
48,29	,	57069	,	-20282	,	-18317	,	45.097515	,	51
48,29	,	57101	,	-20298	,	-18315	,	44.286392	,	53
48,29	,	57117	,	-20310	,	-18317	,	40.470062	,	52
48,29	,	57149	,	-20304	,	-18325	,	34.04363	,	49
48,29	,	57165	,	-20300	,	-18305	,	25.877663	,	43
48,29	,	57181	,	-20296	,	-18307	,	17.22743	,	35
48,29	,	57213	,	-20288	,	-18310	,	9.316644	,	25
48,29	,	57229	,	-20292	,	-18313	,	3.0239305	,	15
48,29	,	57245	,	-20295	,	-18316	,	-1.2917004	,	7
48,29	,	57277	,	-20305	,	-18317	,	-3.8118024	,	2
48,29	,	57293	,	-20308	,	-18309	,	-5.068687	,	0
48,29	,	57325	,	-20306	,	-18314	,	-5.624906	,	0
48,29	,	57341	,	-20307	,	-18314	,	-5.820727	,	0
48,29	,	57357	,	-20318	,	-18314	,	-5.835198	,	0
48,29	,	57389	,	-20317	,	-18334	,	-5.860197	,	0
48,29	,	57405	,	-20332	,	-18310	,	-6.097533	,	0
48,29	,	57421	,	-20333	,	-18335	,	-6.713731	,	0
48,29	,	57453	,	-20343	,	-18342	,	-7.795189	,	0
48,29	,	57469	,	-20352	,	-18339	,	-9.329432	,	0
48,30	,	57501	,	-20359	,	-18343	,	-11.256323	,	0
48,30	,	57517	,	-20357	,	-18340	,	-13.417924	,	0
48,30	,	57533	,	-20366	,	-18337	,	-15.520737	,	0
48,30	,	57565	,	-20378	,	-18345	,	-17.329601	,	0
48,30	,	57581	,	-20385	,	-18352	,	-18.827927	,	0
48,30	,	57597	,	-20384	,	-18343	,	-20.064064	,	0
48,30	,	57629	,	-20386	,	-18360	,	-20.946629	,	0
48,30	,	57645	,	-20370	,	-18330	,	-21.209705	,	0
48,30	,	57661	,	-20308	,	-18318	,	-20.189402	,	0
48,30	,	57693	,	-20287	,	-18311	,	-16.69595	,	1
48,30	,	57709	,	-20282	,	-18307	,	-9.859092	,	4
48,30	,	57741	,	-20281	,	-18307	,	-0.11777115	,	10
48,30	,	57757	,	-20283	,	-18305	,	10.9423	,	19
48,30	,	57773	,	-20281	,	-18312	,	21.42421	,	30
48,30	,	57805	,	-20285	,	-18306	,	29.768105	,	40
48,30	,	57821	,	-20278	,	-18312	,	35.05401	,	48
48,30	,	57836	,	-20292	,	-18310	,	37.00988	,	53
48,30	,	57869	,	-20302	,	-18327	,	35.756966	,	54
48,30	,	57885	,	-20310	,	-18308	,	31.606085	,	53
48,30	,	57917	,	-20299	,	-18315	,	25.192041	,	50
48,30	,	57933	,	-20299	,	-18315	,	17.596867	,	44
48,30	,	57949	,	-20300	,	-18325	,	10.047834	,	35
48,30	,	57981	,	-20310	,	-18314	,	3.4270277	,	24
48,30	,	57997	,	-20301	,	-18326	,	-1.8630486	,	14
48,30	,	58012	,	-20299	,	-18315	,	-5.644075	,	6
48,30	,	58044	,	-20304	,	-18324	,	-7.842097	,	1
48,30	,	58060	,	-20299	,	-18322	,	-8.590315	,	0
48,30	,	58077	,	-20319	,	-18326	,	-8.2703285	,	0
48,30	,	58109	,	-20315	,	-18330	,	-7.4559917	,	0
48,30	,	58125	,	-20319	,	-18324	,	-6.6694665	,	0
48,30	,	58156	,	-20332	,	-18323	,	-6.219257	,	0
48,30	,	58172	,	-20336	,	-18331	,	-6.325139	,	0
48,30	,	58188	,	-20353	,	-18343	,	-7.1626034	,	0
48,30	,	58220	,	-20341	,	-18343	,	-8.726076	,	0
48,30	,	58237	,	-20350	,	-18343	,	-10.703709	,	0
48,30	,	58253	,	-20357	,	-18346	,	-12.6618805	,	0
48,30	,	58284	,	-20365	,	-18345	,	-14.368925	,	0
48,30	,	58300	,	-20368	,	-18353	,	-15.787437	,	0
48,30	,	58332	,	-20374	,	-18353	,	-16.912392	,	0
48,30	,	58348	,	-20381	,	-18371	,	-17.74218	,	0
48,30	,	58364	,	-20382	,	-18350	,	-18.287909	,	0
48,30	,	58396	,	-20396	,	-18371	,	-18.580828	,	0
48,30	,	58412	,	-20404	,	-18368	,	-18.751099	,	0
48,30	,	58428	,	-20377	,	-18350	,	-18.84541	,	0
48,30	,	58460	,	-20350	,	-18343	,	-18.356625	,	0
48,30	,	58476	,	-20319	,	-18335	,	-16.245499	,	0
48,31	,	58508	,	-20308	,	-18322	,	-11.615223	,	2
48,31	,	58524	,	-20296	,	-18320	,	-4.3461256	,	6
48,31	,	58541	,	-20301	,	-18322	,	4.7612944	,	13
48,31	,	58572	,	-20302	,	-18321	,	14.273014	,	22
48,31	,	58588	,	-20293	,	-18328	,	22.682777	,	31
48,31	,	58604	,	-20289	,	-18313	,	28.977608	,	39
48,31	,	58636	,	-20308	,	-18323	,	32.680935	,	45
48,31	,	58652	,	-20316	,	-18329	,	33.509644	,	48
48,31	,	58668	,	-20321	,	-18333	,	31.369469	,	48
48,31	,	58700	,	-20319	,	-18328	,	26.631775	,	46
48,31	,	58716	,	-20310	,	-18324	,	20.19498	,	42
48,31	,	58748	,	-20301	,	-18331	,	13.288197	,	35
48,31	,	58764	,	-20303	,	-18323	,	7.096367	,	26
48,31	,	58780	,	-20307	,	-18318	,	2.3429565	,	17
48,31	,	58812	,	-20310	,	-18321	,	-0.8403096	,	9
48,31	,	58828	,	-20305	,	-18328	,	-2.668121	,	3
48,31	,	58844	,	-20306	,	-18316	,	-3.4113126	,	0
48,31	,	58876	,	-20316	,	-18336	,	-3.3786235	,	0
48,31	,	58892	,	-20325	,	-18336	,	-3.032092	,	0
48,31	,	58924	,	-20324	,	-18332	,	-2.8674138	,	0
48,31	,	58940	,	-20326	,	-18340	,	-3.1334105	,	0
48,31	,	58956	,	-20338	,	-18335	,	-3.8355901	,	0
48,31	,	58988	,	-20338	,	-18346	,	-4.9423485	,	0
48,31	,	59004	,	-20350	,	-18356	,	-6.4147243	,	0
48,31	,	59020	,	-20355	,	-18351	,	-8.184437	,	0
48,31	,	59052	,	-20357	,	-18357	,	-10.15078	,	0
48,31	,	59068	,	-20362	,	-18361	,	-12.1281395	,	0
48,31	,	59084	,	-20370	,	-18352	,	-13.919168	,	0
48,31	,	59116	,	-20367	,	-18364	,	-15.391766	,	0
48,31	,	59132	,	-20381	,	-18367	,	-16.45729	,	0
48,31	,	59164	,	-20405	,	-18366	,	-17.231697	,	0
48,31	,	59180	,	-20399	,	-18371	,	-18.06792	,	0
48,31	,	59196	,	-20388	,	-18369	,	-19.054722	,	0
48,31	,	59228	,	-20375	,	-18363	,	-19.687737	,	0
48,31	,	59244	,	-20340	,	-18342	,	-19.091969	,	0
48,31	,	59260	,	-20320	,	-18338	,	-16.33822	,	0
48,31	,	59292	,	-20304	,	-18322	,	-10.8599615	,	2
48,31	,	59308	,	-20294	,	-18332	,	-2.8470173	,	7
48,31	,	59339	,	-20298	,	-18315	,	6.7404737	,	15
48,31	,	59355	,	-20293	,	-18321	,	16.466322	,	24
48,31	,	59372	,	-20291	,	-18320	,	24.915142	,	33
48,31	,	59403	,	-20305	,	-18325	,	31.041174	,	41
48,31	,	59419	,	-20308	,	-18328	,	34.16846	,	47
48,31	,	59435	,	-20317	,	-18325	,	34.024998	,	50
48,31	,	59468	,	-20328	,	-18336	,	30.796146	,	50
48,31	,	59484	,	-20328	,	-18332	,	25.042488	,	48
48,32	,	59515	,	-20318	,	-18336	,	17.695553	,	43
48,32	,	59531	,	-20309	,	-18329	,	10.024871	,	35
48,32	,	59547	,	-20317	,	-18332	,	3.2653904	,	26
48,32	,	59579	,	-20304	,	-18314	,	-1.8014002	,	17
48,32	,	59595	,	-20298	,	-18334	,	-4.8263144	,	9
48,32	,	59611	,	-20315	,	-18337	,	-5.828328	,	3
48,32	,	59644	,	-20319	,	-18337	,	-5.347378	,	0
48,32	,	59660	,	-20324	,	-18338	,	-4.2412214	,	0
48,32	,	59675	,	-20325	,	-18335	,	-3.219343	,	1
48,32	,	59707	,	-20327	,	-18341	,	-2.6472387	,	2
48,32	,	59723	,	-20338	,	-18348	,	-2.6466618	,	2
48,32	,	59755	,	-20345	,	-18356	,	-3.2812614	,	2
48,32	,	59772	,	-20344	,	-18354	,	-4.556471	,	2
48,32	,	59787	,	-20357	,	-18356	,	-6.335339	,	2
48,32	,	59819	,	-20374	,	-18349	,	-8.500675	,	2
48,32	,	59835	,	-20364	,	-18353	,	-11.006874	,	2
48,32	,	59851	,	-20380	,	-18353	,	-13.648018	,	2
48,32	,	59883	,	-20394	,	-18360	,	-16.174995	,	1
48,32	,	59899	,	-20381	,	-18367	,	-18.460995	,	0
48,32	,	59931	,	-20399	,	-18367	,	-20.308788	,	0
48,32	,	59947	,	-20397	,	-18372	,	-21.520262	,	0
48,32	,	59963	,	-20410	,	-18369	,	-22.089863	,	0
48,32	,	59995	,	-20423	,	-18375	,	-22.200317	,	0
48,32	,	60011	,	-20409	,	-18368	,	-22.071835	,	0
48,32	,	60027	,	-20390	,	-18367	,	-21.55958	,	0
48,32	,	60059	,	-20357	,	-18337	,	-19.959045	,	0
48,32	,	60075	,	-20322	,	-18341	,	-16.280542	,	1
48,32	,	60091	,	-20292	,	-18327	,	-9.70153	,	4
48,32	,	60123	,	-20288	,	-18319	,	-0.103889465	,	10
48,32	,	60139	,	-20295	,	-18323	,	11.520729	,	19
48,32	,	60171	,	-20286	,	-18324	,	23.329237	,	30
48,32	,	60187	,	-20288	,	-18325	,	33.475155	,	41
48,32	,	60203	,	-20283	,	-18322	,	40.716225	,	51
48,32	,	60235	,	-20285	,	-18320	,	44.504192	,	58
48,32	,	60251	,	-20284	,	-18320	,	44.869514	,	61
48,32	,	60267	,	-20299	,	-18327	,	42.19994	,	60
48,32	,	60299	,	-20311	,	-18329	,	36.967278	,	57
48,32	,	60315	,	-20300	,	-18318	,	29.739094	,	51
48,32	,	60347	,	-20307	,	-18322	,	21.400331	,	42
48,32	,	60363	,	-20298	,	-18322	,	13.030218	,	31
48,32	,	60379	,	-20295	,	-18319	,	5.606267	,	20
48,32	,	60411	,	-20291	,	-18325	,	-0.14023781	,	10
48,32	,	60427	,	-20299	,	-18322	,	-3.883945	,	3
48,32	,	60443	,	-20306	,	-18328	,	-5.8104353	,	0
48,32	,	60475	,	-20310	,	-18334	,	-6.475372	,	0
48,33	,	60491	,	-20311	,	-18325	,	-6.4890366	,	0
48,33	,	60523	,	-20312	,	-18344	,	-6.2732644	,	0
48,33	,	60539	,	-20312	,	-18329	,	-6.017945	,	0
48,33	,	60555	,	-20316	,	-18332	,	-5.7764325	,	0
48,33	,	60587	,	-20339	,	-18328	,	-5.6859016	,	0
48,33	,	60603	,	-20337	,	-18334	,	-6.067625	,	0
48,33	,	60619	,	-20341	,	-18339	,	-7.125048	,	0
48,33	,	60650	,	-20355	,	-18345	,	-8.763901	,	0
48,33	,	60667	,	-20367	,	-18342	,	-10.853786	,	0
48,33	,	60683	,	-20362	,	-18349	,	-13.286849	,	0
48,33	,	60715	,	-20368	,	-18348	,	-15.768082	,	0
48,33	,	60731	,	-20380	,	-18357	,	-17.932766	,	0
48,33	,	60763	,	-20384	,	-18359	,	-19.617687	,	0
48,33	,	60779	,	-20385	,	-18353	,	-20.797338	,	0
48,33	,	60795	,	-20387	,	-18361	,	-21.405998	,	0
48,33	,	60826	,	-20401	,	-18365	,	-21.416649	,	0
48,33	,	60842	,	-20404	,	-18359	,	-20.995197	,	0
48,33	,	60858	,	-20410	,	-18365	,	-20.398918	,	0
48,33	,	60891	,	-20396	,	-18369	,	-19.706858	,	0
48,33	,	60907	,	-20372	,	-18349	,	-18.59349	,	0
48,33	,	60938	,	-20336	,	-18335	,	-16.2705	,	1
48,33	,	60954	,	-20310	,	-18327	,	-11.777866	,	3
48,33	,	60970	,	-20293	,	-18328	,	-4.564399	,	7
48,33	,	61002	,	-20280	,	-18326	,	5.088415	,	14
48,33	,	61018	,	-20290	,	-18321	,	16.051178	,	23
48,33	,	61034	,	-20284	,	-18316	,	26.660753	,	33
48,33	,	61066	,	-20279	,	-18310	,	35.340874	,	43
48,33	,	61082	,	-20285	,	-18318	,	41.098213	,	51
48,33	,	61098	,	-20287	,	-18329	,	43.5083	,	56
48,33	,	61130	,	-20296	,	-18327	,	42.564163	,	57
48,33	,	61146	,	-20311	,	-18330	,	38.563538	,	55
48,33	,	61178	,	-20302	,	-18327	,	32.062958	,	51
48,33	,	61194	,	-20300	,	-18322	,	24.006063	,	44
48,33	,	61210	,	-20304	,	-18320	,	15.597166	,	35
48,33	,	61242	,	-20299	,	-18328	,	7.8744125	,	25
48,33	,	61258	,	-20297	,	-18307	,	1.536891	,	15
48,33	,	61274	,	-20289	,	-18318	,	-2.982307	,	7
48,33	,	61306	,	-20298	,	-18323	,	-5.536396	,	2
48,33	,	61322	,	-20302	,	-18325	,	-6.3804946	,	0
48,33	,	61354	,	-20298	,	-18333	,	-6.067039	,	0
48,33	,	61370	,	-20307	,	-18325	,	-5.1521378	,	0
48,33	,	61386	,	-20310	,	-18328	,	-4.106263	,	0
48,33	,	61418	,	-20314	,	-18325	,	-3.3225815	,	1
48,33	,	61434	,	-20320	,	-18330	,	-3.049146	,	1
48,33	,	61450	,	-20328	,	-18339	,	-3.401764	,	1
48,33	,	61482	,	-20334	,	-18348	,	-4.418154	,	1
48,34	,	61498	,	-20340	,	-18337	,	-6.0436435	,	1
48,34	,	61530	,	-20352	,	-18344	,	-8.148203	,	1
48,34	,	61546	,	-20364	,	-18349	,	-10.6287365	,	1
48,34	,	61562	,	-20366	,	-18354	,	-13.398652	,	1
48,34	,	61594	,	-20374	,	-18359	,	-16.255497	,	1
48,34	,	61610	,	-20379	,	-18357	,	-18.904037	,	0
48,34	,	61626	,	-20388	,	-18364	,	-21.109406	,	0
48,34	,	61658	,	-20385	,	-18364	,	-22.723969	,	0
48,34	,	61674	,	-20398	,	-18361	,	-23.642899	,	0
48,34	,	61690	,	-20401	,	-18373	,	-23.874142	,	0
48,34	,	61722	,	-20400	,	-18368	,	-23.526455	,	0
48,34	,	61738	,	-20411	,	-18363	,	-22.702105	,	0
48,34	,	61770	,	-20430	,	-18371	,	-21.6237	,	0
48,34	,	61786	,	-20429	,	-18387	,	-20.686644	,	1
48,34	,	61802	,	-20418	,	-18376	,	-20.066849	,	1
48,34	,	61834	,	-20371	,	-18358	,	-19.249475	,	1
48,34	,	61850	,	-20350	,	-18349	,	-17.053686	,	1
48,34	,	61866	,	-20313	,	-18330	,	-12.284623	,	3
48,34	,	61898	,	-20304	,	-18325	,	-4.435466	,	7
48,34	,	61914	,	-20308	,	-18330	,	5.93933	,	14
48,34	,	61946	,	-20304	,	-18335	,	17.29745	,	24
48,34	,	61962	,	-20308	,	-18330	,	27.75402	,	35
48,34	,	61978	,	-20309	,	-18321	,	35.756767	,	44
48,34	,	62009	,	-20311	,	-18327	,	40.37793	,	52
48,34	,	62026	,	-20316	,	-18337	,	41.358803	,	56
48,34	,	62042	,	-20323	,	-18341	,	38.97724	,	56
48,34	,	62074	,	-20337	,	-18340	,	33.801777	,	54
48,34	,	62090	,	-20327	,	-18338	,	26.579876	,	50
48,34	,	62122	,	-20321	,	-18341	,	18.357176	,	43
48,34	,	62138	,	-20319	,	-18335	,	10.37796	,	33
48,34	,	62154	,	-20317	,	-18338	,	3.6659613	,	22
48,34	,	62186	,	-20312	,	-18325	,	-1.2009048	,	12
48,34	,	62201	,	-20321	,	-18339	,	-4.0855513	,	4
48,34	,	62217	,	-20326	,	-18327	,	-5.2906604	,	0
48,34	,	62249	,	-20325	,	-18334	,	-5.3957357	,	0
48,34	,	62266	,	-20337	,	-18341	,	-4.9814925	,	0
48,34	,	62282	,	-20344	,	-18339	,	-4.5677023	,	0
48,34	,	62313	,	-20345	,	-18343	,	-4.5752153	,	0
48,34	,	62329	,	-20356	,	-18344	,	-5.197013	,	0
48,34	,	62361	,	-20362	,	-18337	,	-6.4464455	,	0
48,34	,	62378	,	-20351	,	-18346	,	-8.168486	,	0
48,34	,	62394	,	-20365	,	-18343	,	-9.992834	,	0
48,34	,	62425	,	-20371	,	-18350	,	-11.605918	,	0
48,34	,	62441	,	-20372	,	-18365	,	-12.937063	,	0
48,34	,	62457	,	-20382	,	-18350	,	-14.001695	,	0
48,34	,	62489	,	-20397	,	-18364	,	-14.891203	,	0
48,35	,	62505	,	-20402	,	-18366	,	-15.822246	,	0
48,35	,	62537	,	-20405	,	-18365	,	-16.93452	,	0
48,35	,	62554	,	-20407	,	-18361	,	-18.128122	,	0
48,35	,	62570	,	-20411	,	-18376	,	-19.15785	,	0
48,35	,	62601	,	-20422	,	-18373	,	-19.83738	,	0
48,35	,	62617	,	-20431	,	-18374	,	-20.183434	,	0
48,35	,	62633	,	-20434	,	-18374	,	-20.350693	,	0
48,35	,	62665	,	-20443	,	-18381	,	-20.452053	,	0
48,35	,	62681	,	-20446	,	-18398	,	-20.519808	,	0
48,35	,	62713	,	-20430	,	-18366	,	-20.44776	,	0
48,35	,	62729	,	-20353	,	-18344	,	-19.520512	,	0
48,35	,	62745	,	-20342	,	-18335	,	-16.248484	,	0
48,35	,	62777	,	-20321	,	-18336	,	-9.46017	,	3
48,35	,	62793	,	-20330	,	-18342	,	0.5697546	,	9
48,35	,	62809	,	-20321	,	-18342	,	12.274982	,	19
48,35	,	62841	,	-20319	,	-18333	,	23.679321	,	30
48,35	,	62857	,	-20319	,	-18341	,	33.128975	,	41
48,35	,	62873	,	-20324	,	-18338	,	39.53712	,	50
48,35	,	62905	,	-20337	,	-18337	,	42.326763	,	56
48,35	,	62921	,	-20342	,	-18353	,	41.36344	,	58
48,35	,	62953	,	-20346	,	-18341	,	36.986885	,	58
48,35	,	62969	,	-20354	,	-18349	,	29.989166	,	55
48,35	,	62985	,	-20354	,	-18345	,	21.412752	,	49
48,35	,	63017	,	-20347	,	-18348	,	12.4042225	,	39
48,35	,	63033	,	-20340	,	-18348	,	4.1448107	,	28
48,35	,	63049	,	-20346	,	-18342	,	-2.404746	,	17
48,35	,	63081	,	-20347	,	-18341	,	-6.820066	,	8
48,35	,	63097	,	-20344	,	-18342	,	-9.190419	,	2
48,35	,	63129	,	-20354	,	-18340	,	-9.884241	,	0
48,35	,	63145	,	-20351	,	-18343	,	-9.416415	,	0
48,35	,	63161	,	-20366	,	-18360	,	-8.365168	,	0
48,35	,	63193	,	-20375	,	-18345	,	-7.33746	,	1
48,35	,	63209	,	-20386	,	-18356	,	-6.904944	,	2
48,35	,	63225	,	-20390	,	-18356	,	-7.411706	,	2
48,35	,	63257	,	-20393	,	-18367	,	-8.844667	,	2
48,35	,	63273	,	-20406	,	-18359	,	-10.9290495	,	2
48,35	,	63289	,	-20406	,	-18362	,	-13.334482	,	2
48,35	,	63320	,	-20413	,	-18372	,	-15.742594	,	2
48,35	,	63336	,	-20410	,	-18368	,	-17.8169	,	2
48,35	,	63369	,	-20426	,	-18374	,	-19.295551	,	2
48,35	,	63385	,	-20431	,	-18370	,	-20.159472	,	1
48,35	,	63401	,	-20426	,	-18385	,	-20.538975	,	0
48,35	,	63432	,	-20448	,	-18370	,	-20.535656	,	0
48,35	,	63449	,	-20466	,	-18390	,	-20.414207	,	0
48,35	,	63464	,	-20461	,	-18389	,	-20.590483	,	0
48,36	,	63496	,	-20472	,	-18399	,	-21.199677	,	0
48,36	,	63512	,	-20474	,	-18399	,	-22.046741	,	0
48,36	,	63545	,	-20478	,	-18400	,	-22.859787	,	0
48,36	,	63561	,	-20467	,	-18391	,	-23.314718	,	0
48,36	,	63577	,	-20428	,	-18376	,	-22.824108	,	0
48,36	,	63608	,	-20378	,	-18362	,	-20.318588	,	0
48,36	,	63624	,	-20359	,	-18344	,	-14.592172	,	2
48,36	,	63640	,	-20344	,	-18353	,	-5.2288055	,	7
48,36	,	63673	,	-20342	,	-18329	,	6.9034605	,	16
48,36	,	63688	,	-20330	,	-18331	,	20.061337	,	28
48,36	,	63720	,	-20328	,	-18340	,	32.36642	,	41
48,36	,	63736	,	-20340	,	-18339	,	42.22344	,	53
48,36	,	63752	,	-20336	,	-18341	,	48.456093	,	62
48,36	,	63784	,	-20341	,	-18347	,	50.5287	,	68
48,36	,	63801	,	-20342	,	-18345	,	48.631683	,	70
48,36	,	63817	,	-20365	,	-18354	,	43.383526	,	68
48,36	,	63848	,	-20352	,	-18347	,	35.58197	,	63
48,36	,	63864	,	-20354	,	-18340	,	26.299883	,	54
48,36	,	63880	,	-20351	,	-18354	,	16.825397	,	42
48,36	,	63912	,	-20343	,	-18329	,	8.314648	,	29
48,36	,	63928	,	-20335	,	-18340	,	1.6352949	,	17
48,36	,	63960	,	-20346	,	-18342	,	-2.7494369	,	8
48,36	,	63976	,	-20346	,	-18344	,	-4.95499	,	2
48,36	,	63992	,	-20355	,	-18343	,	-5.5494027	,	0
48,36	,	64024	,	-20348	,	-18348	,	-5.2048283	,	0
48,36	,	64040	,	-20352	,	-18349	,	-4.4279346	,	0
48,36	,	64056	,	-20364	,	-18350	,	-3.5736208	,	0
48,36	,	64088	,	-20365	,	-18355	,	-2.997101	,	0
48,36	,	64104	,	-20377	,	-18349	,	-3.003771	,	0
48,36	,	64136	,	-20374	,	-18371	,	-3.7124033	,	0
48,36	,	64152	,	-20385	,	-18349	,	-5.034897	,	0
48,36	,	64168	,	-20406	,	-18362	,	-6.870022	,	0
48,36	,	64200	,	-20408	,	-18363	,	-9.26506	,	0
48,36	,	64216	,	-20418	,	-18373	,	-12.203148	,	0
48,36	,	64232	,	-20411	,	-18367	,	-15.381083	,	0
48,36	,	64264	,	-20432	,	-18378	,	-18.34539	,	0
48,36	,	64280	,	-20426	,	-18384	,	-20.766262	,	0
48,36	,	64296	,	-20445	,	-18377	,	-22.518982	,	0
48,36	,	64328	,	-20444	,	-18383	,	-23.632544	,	0
48,36	,	64344	,	-20448	,	-18382	,	-24.183285	,	0
48,36	,	64376	,	-20446	,	-18403	,	-24.154247	,	0
48,36	,	64392	,	-20462	,	-18373	,	-23.528767	,	0
48,36	,	64408	,	-20467	,	-18400	,	-22.496887	,	0
48,36	,	64440	,	-20447	,	-18385	,	-21.258953	,	1
48,36	,	64456	,	-20428	,	-18369	,	-19.573357	,	2
48,36	,	64472	,	-20385	,	-18352	,	-16.674374	,	3
48,37	,	64504	,	-20357	,	-18335	,	-11.596731	,	5
48,37	,	64520	,	-20358	,	-18332	,	-3.8258371	,	10
48,37	,	64552	,	-20334	,	-18327	,	6.162173	,	17
48,37	,	64568	,	-20326	,	-18326	,	17.203255	,	26
48,37	,	64584	,	-20315	,	-18321	,	28.032463	,	37
48,37	,	64615	,	-20320	,	-18329	,	37.45979	,	47
48,37	,	64632	,	-20321	,	-18311	,	44.42134	,	55
48,37	,	64648	,	-20318	,	-18335	,	48.183784	,	60
48,37	,	64680	,	-20324	,	-18331	,	48.540703	,	62
48,37	,	64695	,	-20341	,	-18332	,	45.684845	,	60
48,37	,	64728	,	-20359	,	-18346	,	39.91674	,	55
48,37	,	64744	,	-20341	,	-18334	,	31.7498	,	48
48,37	,	64760	,	-20341	,	-18339	,	22.261873	,	39
48,37	,	64792	,	-20334	,	-18335	,	12.904001	,	28
48,37	,	64807	,	-20334	,	-18328	,	4.9031706	,	18
48,37	,	64823	,	-20327	,	-18332	,	-1.015728	,	9
48,37	,	64855	,	-20323	,	-18340	,	-4.5726748	,	3
48,37	,	64872	,	-20340	,	-18322	,	-5.932495	,	0
48,37	,	64888	,	-20330	,	-18337	,	-5.7019267	,	0
48,37	,	64920	,	-20348	,	-18337	,	-4.6564536	,	0
48,37	,	64936	,	-20351	,	-18341	,	-3.518009	,	1
48,37	,	64967	,	-20354	,	-18343	,	-2.851088	,	2
48,37	,	64983	,	-20356	,	-18343	,	-2.8943195	,	2
48,37	,	65000	,	-20370	,	-18341	,	-3.6301405	,	2
48,37	,	65032	,	-20369	,	-18344	,	-4.98786	,	2
48,37	,	65047	,	-20378	,	-18342	,	-6.837515	,	2
48,37	,	65063	,	-20377	,	-18353	,	-8.940409	,	2
48,37	,	65095	,	-20382	,	-18362	,	-11.001818	,	2
48,37	,	65112	,	-20405	,	-18344	,	-12.851763	,	2
48,37	,	65143	,	-20404	,	-18367	,	-14.58285	,	1
48,37	,	65159	,	-20409	,	-18374	,	-16.308487	,	0
48,37	,	65175	,	-20413	,	-18370	,	-17.927189	,	0
48,37	,	65207	,	-20423	,	-18365	,	-19.272692	,	0
48,37	,	65223	,	-20420	,	-18366	,	-20.241034	,	0
48,37	,	65239	,	-20433	,	-18375	,	-20.767292	,	0
48,37	,	65271	,	-20446	,	-18373	,	-20.928734	,	0
48,37	,	65287	,	-20448	,	-18383	,	-20.968351	,	0
48,37	,	65303	,	-20443	,	-18387	,	-21.001282	,	0
48,37	,	65335	,	-20442	,	-18394	,	-20.833595	,	0
48,37	,	65351	,	-20409	,	-18347	,	-20.005701	,	0
48,37	,	65383	,	-20336	,	-18344	,	-17.544601	,	0
48,37	,	65399	,	-20313	,	-18332	,	-11.971564	,	2
48,37	,	65415	,	-20308	,	-18327	,	-2.4510489	,	7
48,37	,	65447	,	-20305	,	-18319	,	10.179413	,	16
48,37	,	65463	,	-20301	,	-18320	,	23.852736	,	28
48,37	,	65479	,	-20297	,	-18327	,	36.353794	,	41
48,38	,	65511	,	-20298	,	-18316	,	45.989647	,	53
48,38	,	65527	,	-20304	,	-18334	,	51.74984	,	62
48,38	,	65559	,	-20302	,	-18321	,	53.273376	,	67
48,38	,	65575	,	-20315	,	-18328	,	50.79086	,	68
48,38	,	65591	,	-20324	,	-18323	,	44.9208	,	66
48,38	,	65623	,	-20333	,	-18337	,	36.462036	,	61
48,38	,	65639	,	-20323	,	-18325	,	26.424093	,	52
48,38	,	65655	,	-20322	,	-18326	,	16.079037	,	40
48,38	,	65687	,	-20322	,	-18333	,	6.6997337	,	27
48,38	,	65703	,	-20318	,	-18326	,	-0.80604744	,	15
48,38	,	65735	,	-20307	,	-18327	,	-5.950786	,	6
48,38	,	65751	,	-20319	,	-18331	,	-8.617435	,	1
48,38	,	65767	,	-20313	,	-18335	,	-9.1247015	,	0
48,38	,	65799	,	-20320	,	-18334	,	-8.110779	,	0
48,38	,	65815	,	-20326	,	-18348	,	-6.306984	,	1
48,38	,	65831	,	-20335	,	-18320	,	-4.4430704	,	2
48,38	,	65863	,	-20339	,	-18334	,	-3.1333447	,	3
48,38	,	65879	,	-20347	,	-18351	,	-2.73959	,	4
48,38	,	65895	,	-20346	,	-18341	,	-3.3240342	,	4
48,38	,	65927	,	-20353	,	-18340	,	-4.6888385	,	4
48,38	,	65943	,	-20354	,	-18354	,	-6.505971	,	4
48,38	,	65975	,	-20363	,	-18354	,	-8.4664545	,	4
48,38	,	65991	,	-20372	,	-18350	,	-10.392265	,	4
48,38	,	66007	,	-20379	,	-18355	,	-12.256901	,	3
48,38	,	66039	,	-20378	,	-18357	,	-14.040515	,	2
48,38	,	66055	,	-20384	,	-18370	,	-15.604538	,	1
48,38	,	66071	,	-20387	,	-18342	,	-16.773615	,	0
48,38	,	66103	,	-20402	,	-18357	,	-17.506771	,	0
48,38	,	66119	,	-20406	,	-18365	,	-17.954613	,	0
48,38	,	66151	,	-20409	,	-18366	,	-18.302965	,	0
48,38	,	66166	,	-20410	,	-18365	,	-18.581736	,	0
48,38	,	66182	,	-20417	,	-18369	,	-18.692478	,	0
48,38	,	66215	,	-20406	,	-18361	,	-18.495361	,	0
48,38	,	66231	,	-20365	,	-18338	,	-17.585972	,	0
48,38	,	66247	,	-20333	,	-18331	,	-15.05543	,	0
48,38	,	66279	,	-20320	,	-18321	,	-9.955598	,	2
48,38	,	66295	,	-20312	,	-18331	,	-2.1359434	,	7
48,38	,	66311	,	-20299	,	-18311	,	7.577767	,	14
48,38	,	66343	,	-20295	,	-18316	,	17.873396	,	23
48,38	,	66359	,	-20294	,	-18315	,	27.396675	,	33
48,38	,	66390	,	-20297	,	-18322	,	34.961395	,	42
48,38	,	66406	,	-20303	,	-18320	,	39.690727	,	49
48,38	,	66422	,	-20305	,	-18324	,	41.133068	,	53
48,38	,	66454	,	-20319	,	-18331	,	39.294243	,	54
48,38	,	66470	,	-20326	,	-18331	,	34.527817	,	52
48,39	,	66487	,	-20326	,	-18327	,	27.474546	,	47
48,39	,	66518	,	-20325	,	-18319	,	19.100012	,	40
48,39	,	66534	,	-20313	,	-18335	,	10.603718	,	31
48,39	,	66566	,	-20321	,	-18318	,	3.130395	,	21
48,39	,	66582	,	-20309	,	-18331	,	-2.5502338	,	12
48,39	,	66598	,	-20316	,	-18324	,	-6.137085	,	5
48,39	,	66630	,	-20321	,	-18331	,	-7.7687593	,	1
48,39	,	66646	,	-20320	,	-18331	,	-7.9334836	,	0
48,39	,	66662	,	-20333	,	-18338	,	-7.2473783	,	0
48,39	,	66694	,	-20333	,	-18340	,	-6.311866	,	0
48,39	,	66710	,	-20333	,	-18331	,	-5.5746837	,	0
48,39	,	66742	,	-20335	,	-18335	,	-5.195282	,	0
48,39	,	66758	,	-20346	,	-18341	,	-5.174576	,	0
48,39	,	66774	,	-20359	,	-18356	,	-5.5923433	,	0
48,39	,	66806	,	-20367	,	-18330	,	-6.634157	,	0
48,39	,	66822	,	-20365	,	-18350	,	-8.358778	,	0
48,39	,	66838	,	-20379	,	-18345	,	-10.562847	,	0
48,39	,	66870	,	-20378	,	-18347	,	-12.942581	,	0
48,39	,	66886	,	-20394	,	-18355	,	-15.257532	,	0
48,39	,	66902	,	-20394	,	-18354	,	-17.366503	,	0
48,39	,	66934	,	-20380	,	-18360	,	-19.073648	,	0
48,39	,	66950	,	-20397	,	-18366	,	-20.038292	,	0
48,39	,	66982	,	-20405	,	-18364	,	-20.131134	,	0
48,39	,	66998	,	-20413	,	-18366	,	-19.635296	,	0
48,39	,	67014	,	-20423	,	-18383	,	-18.975786	,	0
48,39	,	67046	,	-20425	,	-18358	,	-18.477589	,	0
48,39	,	67062	,	-20356	,	-18338	,	-17.908558	,	0
48,39	,	67078	,	-20317	,	-18326	,	-15.963967	,	0
48,39	,	67110	,	-20300	,	-18314	,	-10.981785	,	1
48,39	,	67126	,	-20293	,	-18305	,	-2.4083786	,	5
48,39	,	67158	,	-20286	,	-18322	,	8.799889	,	13
48,39	,	67174	,	-20273	,	-18318	,	20.903336	,	24
48,39	,	67190	,	-20272	,	-18313	,	32.179127	,	36
48,39	,	67222	,	-20273	,	-18311	,	41.25442	,	47
48,39	,	67238	,	-20283	,	-18302	,	47.12268	,	56
48,39	,	67254	,	-20277	,	-18315	,	49.228657	,	61
48,39	,	67286	,	-20285	,	-18300	,	47.62357	,	63
48,39	,	67302	,	-20306	,	-18319	,	42.79773	,	62
48,39	,	67318	,	-20307	,	-18319	,	35.35871	,	58
48,39	,	67350	,	-20290	,	-18312	,	26.182917	,	50
48,39	,	67366	,	-20291	,	-18310	,	16.603815	,	39
48,39	,	67398	,	-20288	,	-18306	,	7.9783497	,	27
48,39	,	67414	,	-20279	,	-18305	,	1.2323027	,	16
48,39	,	67430	,	-20279	,	-18317	,	-3.1737022	,	7
48,39	,	67462	,	-20295	,	-18317	,	-5.3025017	,	2
48,39	,	67478	,	-20288	,	-18315	,	-5.73648	,	0
48,40	,	67494	,	-20299	,	-18322	,	-5.218885	,	0
48,40	,	67526	,	-20297	,	-18304	,	-4.360821	,	0
48,40	,	67542	,	-20311	,	-18317	,	-3.6283264	,	0
48,40	,	67574	,	-20310	,	-18325	,	-3.3641546	,	0
48,40	,	67590	,	-20321	,	-18319	,	-3.7546644	,	0
48,40	,	67606	,	-20327	,	-18329	,	-4.840514	,	0
48,40	,	67637	,	-20330	,	-18332	,	-6.545382	,	0
48,40	,	67654	,	-20335	,	-18332	,	-8.652694	,	0
48,40	,	67670	,	-20338	,	-18341	,	-10.855928	,	0
48,40	,	67702	,	-20340	,	-18330	,	-12.857936	,	0
48,40	,	67718	,	-20351	,	-18337	,	-14.456146	,	0
48,40	,	67734	,	-20356	,	-18347	,	-15.624828	,	0
48,40	,	67766	,	-20357	,	-18331	,	-16.441921	,	0
48,40	,	67782	,	-20366	,	-18335	,	-16.95753	,	0
48,40	,	67813	,	-20375	,	-18346	,	-17.244255	,	0
48,40	,	67829	,	-20385	,	-18351	,	-17.476044	,	0
48,40	,	67846	,	-20383	,	-18343	,	-17.80675	,	0
48,40	,	67878	,	-20379	,	-18346	,	-18.158726	,	0
48,40	,	67894	,	-20362	,	-18341	,	-18.144203	,	0
48,40	,	67910	,	-20317	,	-18312	,	-17.017288	,	0
48,40	,	67941	,	-20298	,	-18309	,	-13.761153	,	1
48,40	,	67957	,	-20264	,	-18292	,	-7.6050377	,	4
48,40	,	67989	,	-20254	,	-18300	,	1.4806986	,	10
48,40	,	68005	,	-20248	,	-18279	,	12.665059	,	19
48,40	,	68021	,	-20248	,	-18299	,	24.42211	,	30
48,40	,	68054	,	-20244	,	-18286	,	35.014793	,	41
48,40	,	68070	,	-20252	,	-18293	,	42.997437	,	51
48,40	,	68085	,	-20254	,	-18301	,	47.435123	,	58
48,40	,	68117	,	-20257	,	-18298	,	47.992798	,	62
48,40	,	68133	,	-20262	,	-18305	,	44.942936	,	61
48,40	,	68165	,	-20270	,	-18303	,	38.983315	,	58
48,40	,	68181	,	-20270	,	-18302	,	31.02461	,	52
48,40	,	68197	,	-20260	,	-18300	,	22.141855	,	43
48,40	,	68230	,	-20258	,	-18309	,	13.518745	,	32
48,40	,	68245	,	-20258	,	-18285	,	6.1669006	,	21
48,40	,	68261	,	-20256	,	-18290	,	0.65364933	,	11
48,40	,	68293	,	-20261	,	-18294	,	-2.9106388	,	4
48,40	,	68309	,	-20262	,	-18301	,	-4.7616386	,	0
48,40	,	68325	,	-20261	,	-18299	,	-5.3195124	,	0
48,40	,	68357	,	-20263	,	-18298	,	-5.012144	,	0
48,40	,	68373	,	-20269	,	-18302	,	-4.23631	,	0
48,40	,	68405	,	-20274	,	-18302	,	-3.3966186	,	0
48,40	,	68421	,	-20269	,	-18301	,	-2.8115635	,	0
48,40	,	68437	,	-20285	,	-18308	,	-2.631142	,	0
48,40	,	68469	,	-20295	,	-18320	,	-2.9980385	,	0
48,40	,	68485	,	-20297	,	-18300	,	-4.090104	,	0
48,41	,	68501	,	-20307	,	-18317	,	-5.914452	,	0
48,41	,	68533	,	-20320	,	-18317	,	-8.325931	,	0
48,41	,	68549	,	-20318	,	-18323	,	-11.144426	,	0
48,41	,	68581	,	-20323	,	-18330	,	-14.067145	,	0
48,41	,	68597	,	-20327	,	-18332	,	-16.689144	,	0
48,41	,	68613	,	-20334	,	-18333	,	-18.708342	,	0
48,41	,	68645	,	-20335	,	-18333	,	-20.00067	,	0
48,41	,	68661	,	-20346	,	-18335	,	-20.575804	,	0
48,41	,	68677	,	-20350	,	-18337	,	-20.574253	,	0
48,41	,	68709	,	-20357	,	-18343	,	-20.218094	,	0
48,41	,	68725	,	-20354	,	-18332	,	-19.664858	,	0
48,41	,	68757	,	-20310	,	-18313	,	-18.700058	,	0
48,41	,	68773	,	-20272	,	-18303	,	-16.422777	,	0
48,41	,	68789	,	-20250	,	-18292	,	-11.63266	,	2
48,41	,	68821	,	-20244	,	-18290	,	-3.8198195	,	6
48,41	,	68837	,	-20232	,	-18288	,	6.3660426	,	13
48,41	,	68853	,	-20240	,	-18294	,	17.457388	,	23
48,41	,	68885	,	-20226	,	-18301	,	27.77213	,	34
48,41	,	68901	,	-20225	,	-18294	,	35.97933	,	44
48,41	,	68917	,	-20221	,	-18291	,	41.36071	,	52
48,41	,	68949	,	-20236	,	-18296	,	43.645824	,	57
48,41	,	68965	,	-20245	,	-18275	,	42.76384	,	59
48,41	,	68996	,	-20250	,	-18302	,	38.847103	,	57
48,41	,	69013	,	-20247	,	-18293	,	32.428802	,	53
48,41	,	69029	,	-20254	,	-18292	,	24.443306	,	46
48,41	,	69061	,	-20246	,	-18301	,	15.966734	,	36
48,41	,	69077	,	-20235	,	-18291	,	8.066734	,	25
48,41	,	69093	,	-20237	,	-18295	,	1.6870861	,	15
48,41	,	69124	,	-20231	,	-18286	,	-2.618278	,	7
48,41	,	69141	,	-20242	,	-18295	,	-4.824033	,	2
48,41	,	69172	,	-20245	,	-18285	,	-5.3656507	,	0
48,41	,	69189	,	-20248	,	-18312	,	-4.926459	,	0
48,41	,	69204	,	-20249	,	-18276	,	-4.129891	,	0
48,41	,	69236	,	-20259	,	-18303	,	-3.4153697	,	0
48,41	,	69253	,	-20262	,	-18305	,	-3.1011434	,	0
48,41	,	69269	,	-20267	,	-18303	,	-3.376155	,	0
48,41	,	69301	,	-20270	,	-18313	,	-4.245855	,	0
48,41	,	69317	,	-20287	,	-18305	,	-5.6253853	,	0
48,41	,	69333	,	-20283	,	-18317	,	-7.4448123	,	0
48,41	,	69364	,	-20286	,	-18310	,	-9.532378	,	0
48,41	,	69380	,	-20289	,	-18308	,	-11.556503	,	0
48,41	,	69412	,	-20302	,	-18314	,	-13.258224	,	0
48,41	,	69429	,	-20303	,	-18329	,	-14.604797	,	0
48,41	,	69445	,	-20308	,	-18317	,	-15.650921	,	0
48,41	,	69476	,	-20321	,	-18326	,	-16.446697	,	0
48,42	,	69492	,	-20330	,	-18331	,	-17.130463	,	0
48,42	,	69508	,	-20325	,	-18339	,	-17.8418	,	0
48,42	,	69540	,	-20336	,	-18337	,	-18.528778	,	0
48,42	,	69556	,	-20324	,	-18334	,	-18.982758	,	0
48,42	,	69588	,	-20296	,	-18319	,	-18.776672	,	0
48,42	,	69604	,	-20266	,	-18298	,	-17.1075	,	0
48,42	,	69621	,	-20236	,	-18291	,	-13.05286	,	1
48,42	,	69652	,	-20233	,	-18291	,	-6.1780415	,	5
48,42	,	69668	,	-20226	,	-18295	,	3.008791	,	11
48,42	,	69684	,	-20238	,	-18271	,	13.131837	,	20
48,42	,	69716	,	-20227	,	-18294	,	22.502129	,	30
48,42	,	69732	,	-20219	,	-18294	,	29.822096	,	39
48,42	,	69764	,	-20227	,	-18292	,	34.48829	,	46
48,42	,	69780	,	-20239	,	-18295	,	36.285217	,	50
48,42	,	69796	,	-20250	,	-18303	,	35.11712	,	51
48,42	,	69828	,	-20266	,	-18304	,	31.064142	,	50
48,42	,	69844	,	-20257	,	-18299	,	24.556581	,	46
48,42	,	69860	,	-20251	,	-18301	,	16.566551	,	40
48,42	,	69892	,	-20249	,	-18299	,	8.443853	,	31
48,42	,	69908	,	-20243	,	-18307	,	1.4065704	,	21
48,42	,	69924	,	-20247	,	-18284	,	-3.793344	,	12
48,42	,	69956	,	-20250	,	-18299	,	-6.9563465	,	5
48,42	,	69972	,	-20252	,	-18302	,	-8.340548	,	1
48,42	,	70004	,	-20255	,	-18292	,	-8.420862	,	0
48,42	,	70020	,	-20260	,	-18306	,	-7.718499	,	0
48,42	,	70036	,	-20265	,	-18298	,	-6.735969	,	0
48,42	,	70068	,	-20275	,	-18310	,	-5.920621	,	0
48,42	,	70084	,	-20270	,	-18308	,	-5.5779057	,	0
48,42	,	70100	,	-20278	,	-18308	,	-5.764721	,	0
48,42	,	70132	,	-20287	,	-18318	,	-6.400791	,	0
48,42	,	70148	,	-20297	,	-18333	,	-7.471896	,	0
48,42	,	70180	,	-20299	,	-18304	,	-8.985783	,	0
48,42	,	70196	,	-20308	,	-18322	,	-10.837661	,	0
48,42	,	70212	,	-20311	,	-18331	,	-12.837679	,	0
48,42	,	70244	,	-20325	,	-18329	,	-14.822935	,	0
48,42	,	70260	,	-20331	,	-18332	,	-16.725462	,	0
48,42	,	70276	,	-20334	,	-18334	,	-18.508242	,	0
48,42	,	70308	,	-20338	,	-18345	,	-20.050774	,	0
48,42	,	70324	,	-20334	,	-18334	,	-21.137905	,	0
48,42	,	70340	,	-20317	,	-18331	,	-21.432428	,	0
48,42	,	70372	,	-20296	,	-18314	,	-20.411667	,	0
48,42	,	70388	,	-20256	,	-18317	,	-17.390255	,	1
48,42	,	70420	,	-20239	,	-18291	,	-11.7259655	,	4
48,42	,	70436	,	-20228	,	-18293	,	-3.3134336	,	9
48,42	,	70451	,	-20219	,	-18296	,	7.087372	,	17
48,42	,	70483	,	-20225	,	-18295	,	18.06604	,	27
48,43	,	70500	,	-20218	,	-18287	,	28.021055	,	37
48,43	,	70516	,	-20222	,	-18284	,	35.631393	,	46
48,43	,	70548	,	-20229	,	-18294	,	40.091335	,	53
48,43	,	70564	,	-20235	,	-18295	,	41.064095	,	57
48,43	,	70596	,	-20246	,	-18300	,	38.639473	,	56
48,43	,	70612	,	-20242	,	-18302	,	33.33497	,	53
48,43	,	70628	,	-20244	,	-18305	,	26.06556	,	48
48,43	,	70660	,	-20236	,	-18281	,	17.99014	,	40
48,43	,	70675	,	-20246	,	-18303	,	10.208335	,	30
48,43	,	70692	,	-20226	,	-18286	,	3.5595922	,	20
48,43	,	70723	,	-20236	,	-18295	,	-1.3811979	,	11
48,43	,	70739	,	-20225	,	-18295	,	-4.3599377	,	4
48,43	,	70756	,	-20237	,	-18291	,	-5.512102	,	0
48,43	,	70788	,	-20237	,	-18299	,	-5.301301	,	0
48,43	,	70804	,	-20239	,	-18301	,	-4.3409595	,	0
48,43	,	70835	,	-20247	,	-18301	,	-3.1907048	,	0
48,43	,	70851	,	-20254	,	-18307	,	-2.3145428	,	1
48,43	,	70867	,	-20265	,	-18315	,	-2.09987	,	1
48,43	,	70899	,	-20270	,	-18296	,	-2.7935617	,	1
48,43	,	70915	,	-20277	,	-18318	,	-4.4166813	,	1
48,43	,	70931	,	-20290	,	-18325	,	-6.8028316	,	1
48,43	,	70964	,	-20287	,	-18319	,	-9.697915	,	1
48,43	,	70980	,	-20297	,	-18321	,	-12.752817	,	1
48,43	,	71011	,	-20299	,	-18320	,	-15.587759	,	1
48,43	,	71027	,	-20297	,	-18328	,	-17.879902	,	1
48,43	,	71044	,	-20311	,	-18330	,	-19.393969	,	0
48,43	,	71075	,	-20315	,	-18329	,	-20.116554	,	0
48,43	,	71091	,	-20327	,	-18331	,	-20.280449	,	0
48,43	,	71107	,	-20326	,	-18344	,	-20.17022	,	0
48,43	,	71139	,	-20329	,	-18327	,	-19.924911	,	0
48,43	,	71155	,	-20309	,	-18325	,	-19.409203	,	0
48,43	,	71187	,	-20271	,	-18309	,	-18.059345	,	0
48,43	,	71203	,	-20247	,	-18303	,	-14.921142	,	1
48,43	,	71219	,	-20224	,	-18290	,	-9.192254	,	4
48,43	,	71251	,	-20214	,	-18296	,	-0.8087902	,	9
48,43	,	71267	,	-20205	,	-18280	,	9.452846	,	17
48,43	,	71283	,	-20209	,	-18285	,	20.22857	,	27
48,43	,	71315	,	-20205	,	-18279	,	29.957571	,	37
48,43	,	71331	,	-20199	,	-18275	,	37.360535	,	46
48,43	,	71347	,	-20198	,	-18290	,	41.775192	,	53
48,43	,	71379	,	-20208	,	-18276	,	43.06604	,	57
48,43	,	71395	,	-20214	,	-18280	,	41.354385	,	57
48,43	,	71427	,	-20210	,	-18287	,	37.00753	,	54
48,43	,	71443	,	-20210	,	-18283	,	30.751225	,	49
48,43	,	71459	,	-20214	,	-18287	,	23.525965	,	41
48,44	,	71491	,	-20207	,	-18280	,	16.231247	,	31
48,44	,	71507	,	-20204	,	-18281	,	9.644821	,	21
48,44	,	71523	,	-20199	,	-18279	,	4.3822594	,	12
48,44	,	71555	,	-20201	,	-18284	,	0.77435017	,	5
48,44	,	71571	,	-20205	,	-18281	,	-1.2232656	,	1
48,44	,	71602	,	-20205	,	-18291	,	-1.9599266	,	0
48,44	,	71619	,	-20208	,	-18273	,	-1.894059	,	0
48,44	,	71635	,	-20218	,	-18290	,	-1.4927621	,	0
48,44	,	71667	,	-20229	,	-18285	,	-1.2556726	,	0
48,44	,	71683	,	-20232	,	-18292	,	-1.6249892	,	0
48,44	,	71699	,	-20236	,	-18299	,	-2.7800846	,	0
48,44	,	71731	,	-20243	,	-18297	,	-4.610268	,	0
48,44	,	71747	,	-20247	,	-18308	,	-6.877105	,	0
48,44	,	71779	,	-20252	,	-18312	,	-9.313611	,	0
48,44	,	71795	,	-20256	,	-18308	,	-11.652595	,	0
48,44	,	71811	,	-20261	,	-18311	,	-13.673723	,	0
48,44	,	71843	,	-20258	,	-18321	,	-15.20639	,	0
48,44	,	71859	,	-20272	,	-18306	,	-16.14838	,	0
48,44	,	71875	,	-20282	,	-18315	,	-16.59887	,	0
48,44	,	71907	,	-20283	,	-18328	,	-16.827852	,	0
48,44	,	71923	,	-20287	,	-18326	,	-17.012384	,	0
48,44	,	71939	,	-20293	,	-18322	,	-17.160273	,	0
48,44	,	71971	,	-20304	,	-18322	,	-17.276157	,	0
48,44	,	71987	,	-20308	,	-18335	,	-17.444479	,	0
48,44	,	72018	,	-20313	,	-18332	,	-17.731833	,	0
48,44	,	72034	,	-20318	,	-18330	,	-18.10384	,	0
48,44	,	72050	,	-20277	,	-18318	,	-18.251205	,	0
48,44	,	72083	,	-20255	,	-18309	,	-17.324669	,	0
48,44	,	72099	,	-20217	,	-18277	,	-14.181947	,	0
48,44	,	72115	,	-20205	,	-18282	,	-8.066789	,	3
48,44	,	72146	,	-20200	,	-18282	,	0.8643484	,	9
48,44	,	72162	,	-20194	,	-18281	,	11.477471	,	17
48,44	,	72194	,	-20186	,	-18276	,	22.177238	,	27
48,44	,	72210	,	-20186	,	-18274	,	31.512344	,	37
48,44	,	72226	,	-20172	,	-18281	,	38.48932	,	46
48,44	,	72258	,	-20188	,	-18275	,	42.615833	,	52
48,44	,	72274	,	-20198	,	-18284	,	43.650482	,	56
48,44	,	72290	,	-20202	,	-18287	,	41.50245	,	57
48,44	,	72322	,	-20202	,	-18300	,	36.488045	,	54
48,44	,	72338	,	-20209	,	-18283	,	29.385666	,	48
48,44	,	72354	,	-20194	,	-18276	,	21.235083	,	40
48,44	,	72386	,	-20193	,	-18281	,	13.203026	,	30
48,44	,	72402	,	-20197	,	-18283	,	6.305238	,	20
48,44	,	72434	,	-20190	,	-18282	,	1.0950098	,	11
48,44	,	72450	,	-20200	,	-18279	,	-2.3179603	,	5
48,44	,	72466	,	-20199	,	-18286	,	-4.1528745	,	1
48,45	,	72498	,	-20203	,	-18289	,	-4.8365235	,	0
48,45	,	72514	,	-20211	,	-18283	,	-4.8509526	,	0
48,45	,	72530	,	-20212	,	-18291	,	-4.660949	,	0
48,45	,	72562	,	-20222	,	-18302	,	-4.6334324	,	0
48,45	,	72578	,	-20224	,	-18281	,	-4.9883957	,	0
48,45	,	72610	,	-20248	,	-18298	,	-5.8852506	,	0
48,45	,	72626	,	-20243	,	-18310	,	-7.471621	,	0
48,45	,	72642	,	-20245	,	-18309	,	-9.670006	,	0
48,45	,	72674	,	-20250	,	-18312	,	-12.079386	,	0
48,45	,	72690	,	-20254	,	-18311	,	-14.262688	,	0
48,45	,	72706	,	-20263	,	-18313	,	-15.977804	,	0
48,45	,	72738	,	-20276	,	-18315	,	-17.226149	,	0
48,45	,	72754	,	-20281	,	-18307	,	-18.197454	,	0
48,45	,	72786	,	-20283	,	-18319	,	-19.050789	,	0
48,45	,	72802	,	-20279	,	-18336	,	-19.720673	,	0
48,45	,	72818	,	-20293	,	-18310	,	-20.012747	,	0
48,45	,	72850	,	-20306	,	-18325	,	-19.931175	,	0
48,45	,	72866	,	-20300	,	-18335	,	-19.704838	,	0
48,45	,	72882	,	-20306	,	-18326	,	-19.442709	,	0
48,45	,	72914	,	-20314	,	-18337	,	-19.088634	,	0
48,45	,	72930	,	-20325	,	-18339	,	-18.67944	,	0
48,45	,	72946	,	-20334	,	-18343	,	-18.400946	,	0
48,45	,	72978	,	-20336	,	-18347	,	-18.417706	,	0
48,45	,	72994	,	-20323	,	-18332	,	-18.633339	,	0
48,45	,	73026	,	-20283	,	-18317	,	-18.428278	,	0
48,45	,	73042	,	-20256	,	-18311	,	-16.65628	,	0
48,45	,	73058	,	-20231	,	-18284	,	-12.209361	,	1
48,45	,	73090	,	-20217	,	-18294	,	-4.708454	,	5
48,45	,	73106	,	-20220	,	-18296	,	5.2169924	,	12
48,45	,	73122	,	-20209	,	-18299	,	16.12954	,	21
48,45	,	73154	,	-20214	,	-18296	,	26.362383	,	31
48,45	,	73170	,	-20215	,	-18295	,	34.50059	,	41
48,45	,	73201	,	-20215	,	-18291	,	39.58735	,	49
48,45	,	73217	,	-20225	,	-18301	,	41.22516	,	54
48,45	,	73233	,	-20230	,	-18302	,	39.500736	,	55
48,45	,	73266	,	-20242	,	-18299	,	34.830093	,	54
48,45	,	73282	,	-20242	,	-18314	,	27.887445	,	50
48,45	,	73298	,	-20227	,	-18289	,	19.666958	,	43
48,45	,	73329	,	-20226	,	-18302	,	11.452944	,	34
48,45	,	73345	,	-20239	,	-18302	,	4.348214	,	24
48,45	,	73377	,	-20241	,	-18296	,	-1.188797	,	14
48,45	,	73393	,	-20239	,	-18295	,	-5.1822014	,	6
48,45	,	73409	,	-20238	,	-18298	,	-7.7414994	,	1
48,45	,	73441	,	-20251	,	-18301	,	-9.036643	,	0
48,45	,	73457	,	-20245	,	-18298	,	-9.406303	,	0
48,45	,	73473	,	-20254	,	-18305	,	-9.219207	,	0
48,46	,	73506	,	-20262	,	-18306	,	-8.798966	,	0
48,46	,	73522	,	-20255	,	-18307	,	-8.430611	,	0
48,46	,	73537	,	-20268	,	-18305	,	-8.248167	,	0
48,46	,	73569	,	-20274	,	-18317	,	-8.316632	,	0
48,46	,	73585	,	-20277	,	-18323	,	-8.737329	,	0
48,46	,	73617	,	-20274	,	-18321	,	-9.483147	,	0
48,46	,	73633	,	-20289	,	-18335	,	-10.378664	,	0
48,46	,	73649	,	-20293	,	-18333	,	-11.333024	,	0
48,46	,	73681	,	-20306	,	-18331	,	-12.409309	,	0
48,46	,	73697	,	-20302	,	-18338	,	-13.6552925	,	0
48,46	,	73713	,	-20308	,	-18333	,	-14.953417	,	0
48,46	,	73745	,	-20317	,	-18336	,	-16.104506	,	0
48,46	,	73761	,	-20309	,	-18352	,	-16.96384	,	0
48,46	,	73793	,	-20318	,	-18329	,	-17.393265	,	0
48,46	,	73809	,	-20331	,	-18350	,	-17.356333	,	0
48,46	,	73825	,	-20333	,	-18353	,	-17.05902	,	0
48,46	,	73857	,	-20347	,	-18357	,	-16.79	,	0
48,46	,	73873	,	-20345	,	-18346	,	-16.741985	,	0
48,46	,	73889	,	-20311	,	-18343	,	-16.74652	,	0
48,46	,	73921	,	-20288	,	-18325	,	-15.995076	,	0
48,46	,	73937	,	-20259	,	-18327	,	-13.367208	,	0
48,46	,	73953	,	-20253	,	-18320	,	-8.160397	,	2
48,46	,	73985	,	-20250	,	-18313	,	-0.58413935	,	7
48,46	,	74001	,	-20253	,	-18311	,	8.257984	,	14
48,46	,	74033	,	-20253	,	-18296	,	16.855457	,	22
48,46	,	74049	,	-20249	,	-18316	,	23.87949	,	30
48,46	,	74065	,	-20253	,	-18313	,	28.523527	,	37
48,46	,	74097	,	-20264	,	-18321	,	30.456661	,	41
48,46	,	74113	,	-20273	,	-18321	,	29.619373	,	42
48,46	,	74145	,	-20273	,	-18326	,	26.22393	,	42
48,46	,	74161	,	-20282	,	-18329	,	20.830448	,	40
48,46	,	74177	,	-20275	,	-18323	,	14.256831	,	35
48,46	,	74209	,	-20272	,	-18321	,	7.4584665	,	28
48,46	,	74225	,	-20255	,	-18317	,	1.4488955	,	20
48,46	,	74241	,	-20267	,	-18328	,	-2.9395175	,	12
48,46	,	74273	,	-20265	,	-18307	,	-5.4135485	,	5
48,46	,	74289	,	-20271	,	-18318	,	-6.2485385	,	1
48,46	,	74305	,	-20276	,	-18320	,	-5.9950557	,	0
48,46	,	74337	,	-20281	,	-18332	,	-5.2597065	,	0
48,46	,	74353	,	-20296	,	-18337	,	-4.6135397	,	0
48,46	,	74385	,	-20300	,	-18335	,	-4.5374613	,	0
48,46	,	74401	,	-20295	,	-18333	,	-5.242341	,	0
48,46	,	74417	,	-20303	,	-18333	,	-6.5456142	,	0
48,46	,	74448	,	-20306	,	-18341	,	-8.108932	,	0
48,46	,	74464	,	-20310	,	-18339	,	-9.676778	,	0
48,46	,	74481	,	-20312	,	-18352	,	-11.074001	,	0
48,47	,	74513	,	-20326	,	-18331	,	-12.220331	,	0
48,47	,	74529	,	-20327	,	-18351	,	-13.175024	,	0
48,47	,	74545	,	-20344	,	-18349	,	-14.083586	,	0
48,47	,	74577	,	-20337	,	-18351	,	-15.059243	,	0
48,47	,	74593	,	-20355	,	-18346	,	-16.096655	,	0
48,47	,	74624	,	-20351	,	-18359	,	-17.123672	,	0
48,47	,	74641	,	-20349	,	-18358	,	-17.992352	,	0
48,47	,	74657	,	-20359	,	-18358	,	-18.462835	,	0
48,47	,	74689	,	-20375	,	-18366	,	-18.486174	,	0
48,47	,	74704	,	-20364	,	-18364	,	-18.266033	,	0
48,47	,	74720	,	-20366	,	-18374	,	-17.869228	,	0
48,47	,	74752	,	-20387	,	-18359	,	-17.236763	,	0
48,47	,	74769	,	-20350	,	-18357	,	-16.372011	,	0
48,47	,	74800	,	-20321	,	-18339	,	-14.878571	,	0
48,47	,	74817	,	-20291	,	-18328	,	-11.7780485	,	1
48,47	,	74832	,	-20284	,	-18325	,	-6.2749767	,	4
48,47	,	74864	,	-20276	,	-18321	,	1.5333047	,	9
48,47	,	74880	,	-20268	,	-18318	,	10.703597	,	16
48,47	,	74896	,	-20263	,	-18326	,	19.961393	,	25
48,47	,	74928	,	-20266	,	-18316	,	28.093779	,	34
48,47	,	74944	,	-20260	,	-18320	,	34.135612	,	42
48,47	,	74976	,	-20273	,	-18333	,	37.490448	,	48
48,47	,	74993	,	-20260	,	-18309	,	37.978287	,	51
48,47	,	75009	,	-20289	,	-18332	,	35.778328	,	50
48,47	,	75040	,	-20284	,	-18327	,	31.23233	,	47
48,47	,	75056	,	-20278	,	-18333	,	24.896343	,	42
48,47	,	75072	,	-20291	,	-18317	,	17.649786	,	35
48,47	,	75104	,	-20275	,	-18325	,	10.416449	,	26
48,47	,	75120	,	-20270	,	-18324	,	4.040023	,	17
48,47	,	75136	,	-20274	,	-18323	,	-0.77789974	,	9
48,47	,	75168	,	-20269	,	-18326	,	-3.7533255	,	3
48,47	,	75184	,	-20264	,	-18324	,	-4.986312	,	0
48,47	,	75216	,	-20278	,	-18342	,	-4.801149	,	0
48,47	,	75232	,	-20281	,	-18321	,	-3.7789884	,	0
48,47	,	75248	,	-20294	,	-18335	,	-2.6488526	,	1
48,47	,	75280	,	-20296	,	-18331	,	-2.0342462	,	2
48,47	,	75296	,	-20300	,	-18337	,	-2.2672126	,	2
48,47	,	75312	,	-20312	,	-18339	,	-3.3756623	,	2
48,47	,	75344	,	-20318	,	-18344	,	-5.253683	,	2
48,47	,	75360	,	-20301	,	-18342	,	-7.631335	,	2
48,47	,	75392	,	-20328	,	-18336	,	-10.036121	,	2
48,47	,	75408	,	-20332	,	-18349	,	-12.183699	,	2
48,47	,	75424	,	-20331	,	-18353	,	-14.08105	,	2
48,47	,	75456	,	-20345	,	-18366	,	-15.719935	,	1
48,47	,	75472	,	-20345	,	-18344	,	-17.066097	,	0
48,48	,	75488	,	-20356	,	-18360	,	-18.128887	,	0
48,48	,	75520	,	-20365	,	-18364	,	-18.952362	,	0
48,48	,	75536	,	-20358	,	-18352	,	-19.577784	,	0
48,48	,	75552	,	-20370	,	-18361	,	-19.936794	,	0
48,48	,	75584	,	-20380	,	-18359	,	-19.989054	,	0
48,48	,	75600	,	-20375	,	-18365	,	-19.83006	,	0
48,48	,	75632	,	-20386	,	-18371	,	-19.51584	,	0
48,48	,	75648	,	-20397	,	-18374	,	-19.098545	,	0
48,48	,	75664	,	-20401	,	-18373	,	-18.750929	,	0
48,48	,	75696	,	-20406	,	-18383	,	-18.611948	,	0
48,48	,	75712	,	-20398	,	-18353	,	-18.599659	,	0
48,48	,	75728	,	-20324	,	-18335	,	-18.054924	,	0
48,48	,	75760	,	-20290	,	-18332	,	-15.455314	,	0
48,48	,	75776	,	-20279	,	-18322	,	-9.308054	,	2
48,48	,	75808	,	-20279	,	-18320	,	0.4674387	,	8
48,48	,	75824	,	-20259	,	-18319	,	12.483826	,	17
48,48	,	75840	,	-20268	,	-18317	,	24.819786	,	29
48,48	,	75872	,	-20275	,	-18314	,	35.59041	,	41
48,48	,	75888	,	-20268	,	-18319	,	43.252186	,	51
48,48	,	75904	,	-20268	,	-18314	,	47.03575	,	58
48,48	,	75936	,	-20270	,	-18326	,	47.00649	,	61
48,48	,	75951	,	-20271	,	-18314	,	43.730698	,	61
48,48	,	75984	,	-20294	,	-18339	,	37.93428	,	59
48,48	,	76000	,	-20288	,	-18317	,	30.302965	,	53
48,48	,	76016	,	-20275	,	-18324	,	21.683615	,	44
48,48	,	76048	,	-20271	,	-18324	,	13.258894	,	32
48,48	,	76064	,	-20269	,	-18319	,	6.154113	,	20
48,48	,	76079	,	-20277	,	-18323	,	0.9666834	,	10
48,48	,	76111	,	-20272	,	-18323	,	-2.2862096	,	3
48,48	,	76127	,	-20274	,	-18315	,	-3.9074113	,	0
48,48	,	76143	,	-20272	,	-18325	,	-4.280969	,	0
48,48	,	76176	,	-20279	,	-18338	,	-3.8212633	,	0
48,48	,	76192	,	-20284	,	-18314	,	-2.990271	,	0
48,48	,	76224	,	-20291	,	-18336	,	-2.2602196	,	0
48,48	,	76240	,	-20298	,	-18326	,	-2.024206	,	0
48,48	,	76255	,	-20304	,	-18339	,	-2.5198598	,	0
48,48	,	76287	,	-20309	,	-18330	,	-3.788982	,	0
48,48	,	76304	,	-20317	,	-18337	,	-5.706642	,	0
48,48	,	76319	,	-20324	,	-18339	,	-8.077098	,	0
48,48	,	76351	,	-20325	,	-18340	,	-10.665411	,	0
48,48	,	76367	,	-20332	,	-18342	,	-13.176445	,	0
48,48	,	76399	,	-20334	,	-18343	,	-15.323696	,	0
48,48	,	76415	,	-20336	,	-18361	,	-16.90425	,	0
48,48	,	76431	,	-20347	,	-18340	,	-17.836842	,	0
48,48	,	76463	,	-20366	,	-18359	,	-18.284239	,	0
48,48	,	76479	,	-20371	,	-18355	,	-18.645496	,	0
48,49	,	76496	,	-20374	,	-18355	,	-19.233288	,	0
48,49	,	76527	,	-20370	,	-18358	,	-19.997477	,	0
48,49	,	76543	,	-20378	,	-18362	,	-20.624958	,	0
48,49	,	76559	,	-20380	,	-18367	,	-20.845695	,	0
48,49	,	76591	,	-20398	,	-18363	,	-20.641136	,	0
48,49	,	76607	,	-20401	,	-18366	,	-20.244305	,	0
48,49	,	76639	,	-20400	,	-18377	,	-19.889954	,	0
48,49	,	76655	,	-20401	,	-18385	,	-19.560734	,	0
48,49	,	76671	,	-20405	,	-18355	,	-19.075195	,	0
48,49	,	76703	,	-20328	,	-18343	,	-17.93449	,	0
48,49	,	76719	,	-20300	,	-18332	,	-14.883913	,	1
48,49	,	76735	,	-20284	,	-18325	,	-8.585465	,	4
48,49	,	76767	,	-20275	,	-18315	,	1.0987282	,	10
48,49	,	76783	,	-20277	,	-18326	,	12.930624	,	19
48,49	,	76815	,	-20276	,	-18324	,	24.964115	,	30
48,49	,	76831	,	-20277	,	-18324	,	35.264442	,	42
48,49	,	76847	,	-20270	,	-18324	,	42.474056	,	52
48,49	,	76879	,	-20273	,	-18329	,	46.029804	,	59
48,49	,	76895	,	-20278	,	-18329	,	45.99526	,	62
48,49	,	76911	,	-20283	,	-18311	,	42.78618	,	61
48,49	,	76943	,	-20304	,	-18333	,	36.966164	,	58
48,49	,	76959	,	-20305	,	-18322	,	29.123693	,	52
48,49	,	76991	,	-20288	,	-18324	,	20.07342	,	43
48,49	,	77007	,	-20276	,	-18319	,	11.101297	,	32
48,49	,	77023	,	-20284	,	-18320	,	3.5604	,	20
48,49	,	77055	,	-20281	,	-18316	,	-1.8051796	,	10
48,49	,	77071	,	-20281	,	-18313	,	-4.944383	,	3
48,49	,	77087	,	-20282	,	-18321	,	-6.172903	,	0
48,49	,	77119	,	-20291	,	-18324	,	-6.012699	,	0
48,49	,	77135	,	-20286	,	-18326	,	-5.0882416	,	0
48,49	,	77151	,	-20292	,	-18314	,	-3.9175184	,	0
48,49	,	77183	,	-20300	,	-18324	,	-2.875367	,	1
48,49	,	77199	,	-20300	,	-18323	,	-2.2677577	,	2
48,49	,	77231	,	-20312	,	-18330	,	-2.2881603	,	2
48,49	,	77247	,	-20322	,	-18338	,	-3.0470338	,	2
48,49	,	77263	,	-20322	,	-18333	,	-4.5815964	,	2
48,49	,	77295	,	-20320	,	-18340	,	-6.687485	,	2
48,49	,	77311	,	-20320	,	-18336	,	-8.90492	,	2
48,49	,	77327	,	-20337	,	-18342	,	-10.823921	,	2
48,49	,	77358	,	-20335	,	-18343	,	-12.337751	,	2
48,49	,	77375	,	-20342	,	-18360	,	-13.5120125	,	1
48,49	,	77406	,	-20356	,	-18338	,	-14.437693	,	0
48,49	,	77422	,	-20365	,	-18347	,	-15.305021	,	0
48,49	,	77438	,	-20359	,	-18354	,	-16.27084	,	0
48,49	,	77471	,	-20366	,	-18355	,	-17.22585	,	0
48,50	,	77486	,	-20366	,	-18352	,	-17.91282	,	0
48,50	,	77502	,	-20380	,	-18365	,	-18.199991	,	0
48,50	,	77535	,	-20383	,	-18364	,	-18.172585	,	0
48,50	,	77550	,	-20392	,	-18361	,	-18.023539	,	0
48,50	,	77566	,	-20376	,	-18364	,	-17.817993	,	0
48,50	,	77598	,	-20356	,	-18339	,	-17.236643	,	0
48,50	,	77614	,	-20310	,	-18330	,	-15.455867	,	0
48,50	,	77647	,	-20303	,	-18311	,	-11.4677725	,	1
48,50	,	77663	,	-20279	,	-18317	,	-4.7957687	,	4
48,50	,	77678	,	-20266	,	-18316	,	4.1855555	,	10
48,50	,	77710	,	-20272	,	-18318	,	14.44215	,	18
48,50	,	77726	,	-20273	,	-18314	,	24.479311	,	28
48,50	,	77742	,	-20282	,	-18311	,	32.696796	,	38
48,50	,	77775	,	-20263	,	-18316	,	37.969856	,	46
48,50	,	77790	,	-20285	,	-18319	,	39.948177	,	51
48,50	,	77822	,	-20293	,	-18321	,	38.73285	,	52
48,50	,	77838	,	-20293	,	-18320	,	34.59799	,	51
48,50	,	77854	,	-20300	,	-18338	,	28.15869	,	48
48,50	,	77886	,	-20294	,	-18311	,	20.37255	,	42
48,50	,	77902	,	-20281	,	-18319	,	12.37969	,	34
48,50	,	77918	,	-20279	,	-18322	,	5.3456087	,	24
48,50	,	77950	,	-20277	,	-18322	,	0.120630264	,	14
48,50	,	77966	,	-20282	,	-18314	,	-3.0242872	,	6
48,50	,	77998	,	-20288	,	-18318	,	-4.365575	,	1
48,50	,	78014	,	-20290	,	-18320	,	-4.4974303	,	0
48,50	,	78030	,	-20289	,	-18323	,	-4.0160456	,	0
48,50	,	78062	,	-20292	,	-18323	,	-3.3297157	,	0
48,50	,	78078	,	-20300	,	-18322	,	-2.7214572	,	0
48,50	,	78094	,	-20308	,	-18336	,	-2.471152	,	0
48,50	,	78126	,	-20310	,	-18319	,	-2.8121774	,	0
48,50	,	78142	,	-20326	,	-18331	,	-3.849307	,	0
48,50	,	78158	,	-20323	,	-18345	,	-5.5666575	,	0
48,50	,	78190	,	-20340	,	-18340	,	-7.831255	,	0
48,50	,	78206	,	-20344	,	-18336	,	-10.463159	,	0
48,50	,	78238	,	-20353	,	-18344	,	-13.297402	,	0
48,50	,	78254	,	-20350	,	-18350	,	-16.09357	,	0
48,50	,	78270	,	-20360	,	-18356	,	-18.520582	,	0
48,50	,	78302	,	-20361	,	-18344	,	-20.311787	,	0
48,50	,	78318	,	-20372	,	-18354	,	-21.379118	,	0
48,50	,	78334	,	-20365	,	-18365	,	-21.75192	,	0
48,50	,	78366	,	-20374	,	-18352	,	-21.459625	,	0
48,50	,	78382	,	-20385	,	-18354	,	-20.609268	,	0
48,50	,	78414	,	-20363	,	-18354	,	-19.372952	,	0
48,50	,	78430	,	-20317	,	-18333	,	-17.469898	,	1
48,50	,	78446	,	-20294	,	-18317	,	-13.940986	,	2
48,50	,	78478	,	-20274	,	-18315	,	-7.886034	,	5
48,51	,	78494	,	-20260	,	-18308	,	0.77092934	,	11
48,51	,	78510	,	-20257	,	-18307	,	11.210234	,	19
48,51	,	78542	,	-20251	,	-18301	,	22.039255	,	29
48,51	,	78558	,	-20251	,	-18301	,	31.751799	,	39
48,51	,	78589	,	-20246	,	-18305	,	39.14992	,	48
48,51	,	78606	,	-20248	,	-18287	,	43.545853	,	55
48,51	,	78622	,	-20260	,	-18311	,	44.699867	,	58
48,51	,	78654	,	-20275	,	-18306	,	42.61525	,	58
48,51	,	78670	,	-20277	,	-18319	,	37.51284	,	55
48,51	,	78686	,	-20267	,	-18314	,	30.06686	,	49
48,51	,	78717	,	-20268	,	-18317	,	21.459911	,	41
48,51	,	78733	,	-20262	,	-18316	,	13.006378	,	31
48,51	,	78749	,	-20256	,	-18312	,	5.7684727	,	21
48,51	,	78782	,	-20253	,	-18307	,	0.4283142	,	12
48,51	,	78798	,	-20246	,	-18302	,	-2.7333088	,	5
48,51	,	78830	,	-20257	,	-18318	,	-3.8481333	,	1
48,51	,	78845	,	-20252	,	-18296	,	-3.4233212	,	0
48,51	,	78862	,	-20264	,	-18313	,	-2.1618617	,	0
48,51	,	78893	,	-20270	,	-18316	,	-0.7876642	,	1
48,51	,	78909	,	-20273	,	-18309	,	0.087729335	,	2
48,51	,	78925	,	-20274	,	-18315	,	0.1531533	,	2
48,51	,	78957	,	-20280	,	-18310	,	-0.5795407	,	2
48,51	,	78974	,	-20279	,	-18321	,	-1.9186393	,	2
48,51	,	79005	,	-20289	,	-18324	,	-3.614403	,	2
48,51	,	79021	,	-20298	,	-18324	,	-5.4976687	,	2
48,51	,	79037	,	-20302	,	-18329	,	-7.5218663	,	2
48,51	,	79069	,	-20315	,	-18339	,	-9.668272	,	2
48,51	,	79086	,	-20312	,	-18316	,	-11.876731	,	1
48,51	,	79102	,	-20326	,	-18338	,	-14.019466	,	0
48,51	,	79133	,	-20329	,	-18335	,	-15.971961	,	0
48,51	,	79149	,	-20325	,	-18340	,	-17.62099	,	0
48,51	,	79165	,	-20332	,	-18341	,	-18.772556	,	0
48,51	,	79197	,	-20335	,	-18349	,	-19.267088	,	0
48,51	,	79213	,	-20351	,	-18342	,	-19.167664	,	0
48,51	,	79245	,	-20341	,	-18354	,	-18.695232	,	0
48,51	,	79261	,	-20352	,	-18339	,	-18.000534	,	0
48,51	,	79277	,	-20316	,	-18327	,	-16.971807	,	0
48,51	,	79309	,	-20286	,	-18324	,	-15.020701	,	1
48,51	,	79325	,	-20245	,	-18290	,	-11.124747	,	2
48,51	,	79341	,	-20215	,	-18296	,	-4.3630304	,	5
48,51	,	79373	,	-20212	,	-18291	,	5.418158	,	11
48,51	,	79389	,	-20202	,	-18291	,	17.266005	,	20
48,51	,	79421	,	-20208	,	-18282	,	29.424974	,	31
48,51	,	79437	,	-20209	,	-18287	,	39.977043	,	43
48,51	,	79453	,	-20203	,	-18286	,	47.416584	,	53
48,51	,	79485	,	-20196	,	-18281	,	51.07289	,	60
48,52	,	79501	,	-20203	,	-18284	,	51.07377	,	62
48,52	,	79517	,	-20209	,	-18289	,	47.918243	,	61
48,52	,	79549	,	-20215	,	-18304	,	42.2044	,	58
48,52	,	79565	,	-20211	,	-18277	,	34.666153	,	52
48,52	,	79581	,	-20203	,	-18286	,	26.262411	,	43
48,52	,	79613	,	-20197	,	-18275	,	18.093838	,	32
48,52	,	79629	,	-20195	,	-18286	,	11.120401	,	20
48,52	,	79661	,	-20181	,	-18276	,	5.9562864	,	10
48,52	,	79677	,	-20191	,	-18273	,	2.830411	,	3
48,52	,	79693	,	-20204	,	-18282	,	1.4579701	,	0
48,52	,	79725	,	-20207	,	-18277	,	1.0798736	,	0
48,52	,	79741	,	-20201	,	-18279	,	0.9563261	,	0
48,52	,	79757	,	-20207	,	-18276	,	0.73720676	,	0
48,52	,	79789	,	-20209	,	-18289	,	0.32700247	,	0
48,52	,	79805	,	-20203	,	-18278	,	-0.27799422	,	0
48,52	,	79837	,	-20218	,	-18288	,	-1.022128	,	0
48,52	,	79853	,	-20226	,	-18292	,	-1.9547856	,	0
48,52	,	79869	,	-20235	,	-18291	,	-3.2726817	,	0
48,52	,	79901	,	-20242	,	-18294	,	-5.125338	,	0
48,52	,	79917	,	-20248	,	-18293	,	-7.497112	,	0
48,52	,	79933	,	-20243	,	-18291	,	-10.163404	,	0
48,52	,	79965	,	-20247	,	-18297	,	-12.702644	,	0
48,52	,	79981	,	-20249	,	-18308	,	-14.686412	,	0
48,52	,	80013	,	-20257	,	-18305	,	-15.895692	,	0
48,52	,	80029	,	-20263	,	-18317	,	-16.37883	,	0
48,52	,	80045	,	-20272	,	-18297	,	-16.380657	,	0
48,52	,	80077	,	-20281	,	-18313	,	-16.226694	,	0
48,52	,	80093	,	-20289	,	-18308	,	-16.217804	,	0
48,52	,	80109	,	-20291	,	-18321	,	-16.521477	,	0
48,52	,	80141	,	-20281	,	-18315	,	-17.028683	,	0
48,52	,	80157	,	-20276	,	-18311	,	-17.312914	,	0
48,52	,	80173	,	-20251	,	-18299	,	-16.764318	,	0
48,52	,	80205	,	-20218	,	-18284	,	-14.656722	,	0
48,52	,	80221	,	-20203	,	-18277	,	-10.286377	,	2
48,52	,	80253	,	-20185	,	-18270	,	-3.4152389	,	6
48,52	,	80269	,	-20177	,	-18276	,	5.46662	,	12
48,52	,	80285	,	-20166	,	-18265	,	15.3344555	,	20
48,52	,	80316	,	-20171	,	-18270	,	24.93593	,	29
48,52	,	80332	,	-20172	,	-18265	,	33.000114	,	38
48,52	,	80348	,	-20159	,	-18266	,	38.545113	,	46
48,52	,	80380	,	-20165	,	-18274	,	41.19125	,	51
48,52	,	80397	,	-20180	,	-18268	,	40.98144	,	53
48,52	,	80429	,	-20178	,	-18278	,	38.072693	,	51
48,52	,	80445	,	-20183	,	-18264	,	32.853622	,	47
48,52	,	80461	,	-20179	,	-18267	,	26.068068	,	41
48,53	,	80492	,	-20175	,	-18270	,	18.680998	,	33
48,53	,	80508	,	-20174	,	-18272	,	11.65721	,	24
48,53	,	80524	,	-20169	,	-18254	,	5.745658	,	15
48,53	,	80556	,	-20161	,	-18260	,	1.4216928	,	7
48,53	,	80572	,	-20168	,	-18260	,	-1.123651	,	2
48,53	,	80588	,	-20172	,	-18263	,	-2.0961964	,	0
48,53	,	80621	,	-20176	,	-18263	,	-2.0388918	,	0
48,53	,	80637	,	-20172	,	-18270	,	-1.5226567	,	0
48,53	,	80668	,	-20184	,	-18273	,	-0.96536887	,	0
48,53	,	80684	,	-20189	,	-18278	,	-0.7105952	,	0
48,53	,	80700	,	-20191	,	-18275	,	-1.0266963	,	0
48,53	,	80732	,	-20201	,	-18274	,	-1.996562	,	0
48,53	,	80749	,	-20197	,	-18285	,	-3.5231466	,	0
48,53	,	80765	,	-20198	,	-18275	,	-5.3453727	,	0
48,53	,	80796	,	-20213	,	-18292	,	-7.161858	,	0
48,53	,	80812	,	-20222	,	-18287	,	-8.891974	,	0
48,53	,	80844	,	-20221	,	-18295	,	-10.623882	,	0
48,53	,	80860	,	-20233	,	-18293	,	-12.366732	,	0
48,53	,	80876	,	-20235	,	-18294	,	-14.0470085	,	0
48,53	,	80908	,	-20236	,	-18300	,	-15.553507	,	0
48,53	,	80924	,	-20244	,	-18302	,	-16.732319	,	0
48,53	,	80940	,	-20250	,	-18297	,	-17.506422	,	0
48,53	,	80972	,	-20244	,	-18304	,	-17.87796	,	0
48,53	,	80988	,	-20258	,	-18308	,	-17.825861	,	0
48,53	,	81020	,	-20257	,	-18294	,	-17.394577	,	0
48,53	,	81036	,	-20276	,	-18309	,	-16.789845	,	0
48,53	,	81052	,	-20264	,	-18309	,	-16.252544	,	0
48,53	,	81084	,	-20238	,	-18294	,	-15.673844	,	0
48,53	,	81100	,	-20202	,	-18280	,	-14.288132	,	0
48,53	,	81116	,	-20180	,	-18276	,	-10.990252	,	1
48,53	,	81148	,	-20181	,	-18259	,	-5.160252	,	4
48,53	,	81164	,	-20172	,	-18261	,	2.7866626	,	9
48,53	,	81180	,	-20177	,	-18266	,	11.629102	,	16
48,53	,	81212	,	-20163	,	-18277	,	19.978	,	24
48,53	,	81228	,	-20163	,	-18277	,	26.782537	,	32
48,53	,	81260	,	-20166	,	-18252	,	31.436035	,	38
48,53	,	81276	,	-20174	,	-18269	,	33.598175	,	42
48,53	,	81292	,	-20197	,	-18275	,	33.051064	,	44
48,53	,	81324	,	-20196	,	-18286	,	29.72496	,	43
48,53	,	81340	,	-20197	,	-18277	,	23.971071	,	40
48,53	,	81356	,	-20196	,	-18267	,	16.6904	,	35
48,53	,	81388	,	-20189	,	-18268	,	9.0478735	,	28
48,53	,	81404	,	-20179	,	-18270	,	2.1834545	,	20
48,53	,	81436	,	-20174	,	-18275	,	-2.9669805	,	12
48,53	,	81452	,	-20185	,	-18273	,	-5.945003	,	6
48,53	,	81468	,	-20187	,	-18278	,	-6.947435	,	2
48,54	,	81500	,	-20175	,	-18276	,	-6.536456	,	0
48,54	,	81516	,	-20198	,	-18282	,	-5.2850494	,	0
48,54	,	81532	,	-20199	,	-18285	,	-3.8368416	,	1
48,54	,	81564	,	-20206	,	-18278	,	-2.8408391	,	2
48,54	,	81580	,	-20201	,	-18280	,	-2.615032	,	2
48,54	,	81596	,	-20211	,	-18285	,	-3.1020265	,	2
48,54	,	81628	,	-20213	,	-18293	,	-4.1136928	,	2
48,54	,	81644	,	-20220	,	-18294	,	-5.48594	,	2
48,54	,	81675	,	-20233	,	-18291	,	-7.1207027	,	2
48,54	,	81692	,	-20234	,	-18302	,	-8.99103	,	2
48,54	,	81708	,	-20242	,	-18308	,	-11.032978	,	2
48,54	,	81740	,	-20250	,	-18288	,	-13.113183	,	1
48,54	,	81756	,	-20255	,	-18301	,	-15.116348	,	0
48,54	,	81771	,	-20251	,	-18307	,	-16.892643	,	0
48,54	,	81804	,	-20266	,	-18306	,	-18.240887	,	0
48,54	,	81819	,	-20266	,	-18312	,	-19.078163	,	0
48,54	,	81852	,	-20272	,	-18308	,	-19.454205	,	0
48,54	,	81868	,	-20273	,	-18316	,	-19.413725	,	0
48,54	,	81884	,	-20284	,	-18319	,	-19.011356	,	0
48,54	,	81916	,	-20283	,	-18321	,	-18.36729	,	0
48,54	,	81932	,	-20293	,	-18318	,	-17.620241	,	0
48,54	,	81947	,	-20284	,	-18327	,	-16.843716	,	0
48,54	,	81979	,	-20248	,	-18294	,	-15.786154	,	0
48,54	,	81996	,	-20203	,	-18284	,	-13.552079	,	1
48,54	,	82011	,	-20199	,	-18269	,	-8.999044	,	3
48,54	,	82043	,	-20186	,	-18275	,	-1.748033	,	7
48,54	,	82059	,	-20181	,	-18275	,	7.469834	,	14
48,54	,	82091	,	-20173	,	-18270	,	17.335066	,	23
48,54	,	82107	,	-20172	,	-18271	,	26.48041	,	32
48,54	,	82124	,	-20181	,	-18284	,	33.722786	,	41
48,54	,	82155	,	-20172	,	-18270	,	38.213654	,	48
48,54	,	82172	,	-20176	,	-18274	,	39.646606	,	52
48,54	,	82187	,	-20185	,	-18287	,	38.207047	,	52
48,54	,	82220	,	-20195	,	-18271	,	34.272827	,	50
48,54	,	82235	,	-20202	,	-18283	,	28.300133	,	46
48,54	,	82267	,	-20187	,	-18275	,	20.968494	,	39
48,54	,	82283	,	-20180	,	-18276	,	13.32452	,	30
48,54	,	82299	,	-20187	,	-18274	,	6.5001907	,	21
48,54	,	82331	,	-20173	,	-18275	,	1.2479382	,	12
48,54	,	82347	,	-20189	,	-18280	,	-2.1687765	,	5
48,54	,	82363	,	-20190	,	-18271	,	-3.9517033	,	1
48,54	,	82395	,	-20187	,	-18277	,	-4.5929785	,	0
48,54	,	82411	,	-20192	,	-18282	,	-4.533827	,	0
48,54	,	82443	,	-20204	,	-18291	,	-4.152538	,	0
48,54	,	82459	,	-20205	,	-18287	,	-3.8749037	,	0
48,54	,	82475	,	-20217	,	-18287	,	-4.054694	,	0
48,55	,	82507	,	-20224	,	-18301	,	-4.892619	,	0
48,55	,	82523	,	-20226	,	-18298	,	-6.422534	,	0
48,55	,	82539	,	-20230	,	-18300	,	-8.45386	,	0
48,55	,	82571	,	-20232	,	-18299	,	-10.639206	,	0
48,55	,	82587	,	-20248	,	-18302	,	-12.695789	,	0
48,55	,	82603	,	-20249	,	-18309	,	-14.540834	,	0
48,55	,	82635	,	-20266	,	-18295	,	-16.223087	,	0
48,55	,	82651	,	-20268	,	-18309	,	-17.826284	,	0
48,55	,	82683	,	-20261	,	-18315	,	-19.313663	,	0
48,55	,	82699	,	-20275	,	-18310	,	-20.44246	,	0
48,55	,	82715	,	-20285	,	-18319	,	-21.063404	,	0
48,55	,	82747	,	-20296	,	-18318	,	-21.336216	,	0
48,55	,	82763	,	-20286	,	-18331	,	-21.45456	,	0
48,55	,	82779	,	-20301	,	-18326	,	-21.394766	,	0
48,55	,	82811	,	-20309	,	-18328	,	-21.118322	,	0
48,55	,	82827	,	-20312	,	-18337	,	-20.751337	,	0
48,55	,	82858	,	-20317	,	-18335	,	-20.40733	,	0
48,55	,	82875	,	-20312	,	-18337	,	-20.033691	,	0
48,55	,	82891	,	-20283	,	-18326	,	-19.290525	,	0
48,55	,	82923	,	-20241	,	-18317	,	-17.354387	,	0
48,55	,	82939	,	-20217	,	-18290	,	-13.117106	,	1
48,55	,	82955	,	-20197	,	-18291	,	-5.9003077	,	5
48,55	,	82987	,	-20197	,	-18294	,	3.9746437	,	12
48,55	,	83003	,	-20184	,	-18290	,	15.260104	,	21
48,55	,	83034	,	-20189	,	-18285	,	26.31638	,	32
48,55	,	83051	,	-20191	,	-18290	,	35.58106	,	43
48,55	,	83066	,	-20192	,	-18277	,	41.849754	,	52
48,55	,	83099	,	-20181	,	-18284	,	44.57852	,	58
48,55	,	83115	,	-20191	,	-18293	,	43.950638	,	60
48,55	,	83131	,	-20201	,	-18291	,	40.49425	,	59
48,55	,	83163	,	-20204	,	-18293	,	34.773834	,	55
48,55	,	83179	,	-20215	,	-18288	,	27.416084	,	48
48,55	,	83195	,	-20200	,	-18292	,	19.198921	,	39
48,55	,	83226	,	-20197	,	-18287	,	11.115868	,	28
48,55	,	83242	,	-20199	,	-18292	,	4.1673794	,	17
48,55	,	83275	,	-20188	,	-18284	,	-0.9982357	,	8
48,55	,	83291	,	-20200	,	-18292	,	-4.1646543	,	2
48,55	,	83307	,	-20197	,	-18292	,	-5.5325027	,	0
48,55	,	83339	,	-20208	,	-18295	,	-5.6346593	,	0
48,55	,	83355	,	-20204	,	-18287	,	-5.0833654	,	0
48,55	,	83371	,	-20220	,	-18299	,	-4.4045353	,	0
48,55	,	83402	,	-20215	,	-18307	,	-4.0028324	,	0
48,55	,	83419	,	-20219	,	-18301	,	-4.066287	,	0
48,55	,	83451	,	-20233	,	-18303	,	-4.592821	,	0
48,55	,	83467	,	-20242	,	-18305	,	-5.6255074	,	0
48,55	,	83483	,	-20246	,	-18305	,	-7.249465	,	0
48,56	,	83514	,	-20253	,	-18311	,	-9.393899	,	0
48,56	,	83530	,	-20262	,	-18312	,	-11.845776	,	0
48,56	,	83546	,	-20263	,	-18319	,	-14.356459	,	0
48,56	,	83578	,	-20265	,	-18331	,	-16.636711	,	0
48,56	,	83594	,	-20275	,	-18321	,	-18.415655	,	0
48,56	,	83610	,	-20265	,	-18323	,	-19.526478	,	0
48,56	,	83642	,	-20286	,	-18336	,	-19.903044	,	0
48,56	,	83658	,	-20286	,	-18314	,	-19.67048	,	0
48,56	,	83690	,	-20297	,	-18331	,	-19.12959	,	0
48,56	,	83706	,	-20294	,	-18332	,	-18.526249	,	0
48,56	,	83722	,	-20299	,	-18340	,	-17.928585	,	0
48,56	,	83754	,	-20313	,	-18341	,	-17.347786	,	0
48,56	,	83770	,	-20324	,	-18339	,	-16.936628	,	0
48,56	,	83786	,	-20327	,	-18344	,	-16.92321	,	0
48,56	,	83818	,	-20323	,	-18350	,	-17.319288	,	0
48,56	,	83834	,	-20327	,	-18343	,	-17.836723	,	0
48,56	,	83866	,	-20291	,	-18325	,	-17.944855	,	0
48,56	,	83882	,	-20252	,	-18317	,	-16.719818	,	0
48,56	,	83898	,	-20246	,	-18291	,	-13.077156	,	1
48,56	,	83930	,	-20233	,	-18302	,	-6.628996	,	4
48,56	,	83946	,	-20221	,	-18298	,	2.0138235	,	10
48,56	,	83962	,	-20225	,	-18289	,	11.668739	,	18
48,56	,	83994	,	-20217	,	-18294	,	20.956192	,	27
48,56	,	84010	,	-20215	,	-18295	,	28.652426	,	36
48,56	,	84042	,	-20213	,	-18297	,	33.98723	,	43
48,56	,	84058	,	-20220	,	-18302	,	36.622128	,	48
48,56	,	84074	,	-20232	,	-18305	,	36.469803	,	50
48,56	,	84106	,	-20237	,	-18310	,	33.620613	,	49
48,56	,	84122	,	-20240	,	-18308	,	28.443813	,	46
48,56	,	84138	,	-20227	,	-18298	,	21.714285	,	40
48,56	,	84170	,	-20228	,	-18307	,	14.53043	,	32
48,56	,	84186	,	-20223	,	-18302	,	7.9570866	,	23
48,56	,	84202	,	-20223	,	-18303	,	2.7093945	,	14
48,56	,	84234	,	-20223	,	-18310	,	-0.9078183	,	7
48,56	,	84250	,	-20226	,	-18297	,	-2.9462588	,	2
48,56	,	84282	,	-20236	,	-18305	,	-3.751975	,	0
48,56	,	84298	,	-20238	,	-18306	,	-3.864441	,	0
48,56	,	84314	,	-20243	,	-18307	,	-3.8096423	,	0
48,56	,	84346	,	-20241	,	-18312	,	-3.9044213	,	0
48,56	,	84362	,	-20253	,	-18320	,	-4.2669005	,	0
48,56	,	84378	,	-20251	,	-18300	,	-4.937882	,	0
48,56	,	84410	,	-20254	,	-18315	,	-5.8742833	,	0
48,56	,	84426	,	-20263	,	-18312	,	-6.9492183	,	0
48,56	,	84458	,	-20270	,	-18322	,	-8.099255	,	0
48,56	,	84474	,	-20284	,	-18323	,	-9.395054	,	0
48,57	,	84490	,	-20289	,	-18322	,	-10.965899	,	0
48,57	,	84522	,	-20293	,	-18328	,	-12.844078	,	0
48,57	,	84538	,	-20293	,	-18327	,	-14.846558	,	0
48,57	,	84554	,	-20305	,	-18329	,	-16.684431	,	0
48,57	,	84586	,	-20309	,	-18332	,	-18.182026	,	0
48,57	,	84602	,	-20316	,	-18341	,	-19.30898	,	0
48,57	,	84618	,	-20316	,	-18328	,	-20.056046	,	0
48,57	,	84650	,	-20319	,	-18347	,	-20.368254	,	0
48,57	,	84666	,	-20331	,	-18340	,	-20.229465	,	0
48,57	,	84697	,	-20328	,	-18354	,	-19.741966	,	0
48,57	,	84714	,	-20337	,	-18348	,	-19.030415	,	0
48,57	,	84729	,	-20322	,	-18339	,	-18.110605	,	0
48,57	,	84762	,	-20295	,	-18323	,	-16.698917	,	0
48,57	,	84778	,	-20265	,	-18307	,	-14.07501	,	1
48,57	,	84794	,	-20236	,	-18306	,	-9.374896	,	3
48,57	,	84825	,	-20228	,	-18305	,	-2.1742063	,	7
48,57	,	84841	,	-20234	,	-18309	,	7.030159	,	14
48,57	,	84873	,	-20239	,	-18291	,	16.81797	,	23
48,57	,	84889	,	-20231	,	-18306	,	25.489063	,	32
48,57	,	84905	,	-20225	,	-18305	,	31.84658	,	40
48,57	,	84938	,	-20234	,	-18302	,	35.40425	,	46
48,57	,	84954	,	-20231	,	-18305	,	36.113197	,	49
48,57	,	84969	,	-20250	,	-18305	,	34.15503	,	48
48,57	,	85002	,	-20254	,	-18306	,	29.84042	,	46
48,57	,	85017	,	-20247	,	-18309	,	23.68464	,	42
48,57	,	85049	,	-20257	,	-18295	,	16.522297	,	35
48,57	,	85065	,	-20252	,	-18300	,	9.269584	,	26
48,57	,	85082	,	-20245	,	-18307	,	2.7243433	,	17
48,57	,	85113	,	-20239	,	-18291	,	-2.4137616	,	9
48,57	,	85129	,	-20241	,	-18298	,	-5.684595	,	3
48,57	,	85145	,	-20242	,	-18305	,	-7.0608654	,	0
48,57	,	85177	,	-20255	,	-18309	,	-6.9573946	,	0
48,57	,	85193	,	-20250	,	-18298	,	-6.0391254	,	0
48,57	,	85209	,	-20263	,	-18303	,	-4.937871	,	0
48,57	,	85241	,	-20270	,	-18307	,	-4.153531	,	1
48,57	,	85257	,	-20267	,	-18310	,	-4.0163054	,	1
48,57	,	85289	,	-20276	,	-18313	,	-4.570032	,	1
48,57	,	85305	,	-20275	,	-18320	,	-5.6418886	,	1
48,57	,	85321	,	-20277	,	-18322	,	-6.9736447	,	1
48,57	,	85353	,	-20301	,	-18312	,	-8.38123	,	1
48,57	,	85369	,	-20296	,	-18323	,	-9.915594	,	1
48,57	,	85385	,	-20302	,	-18326	,	-11.633842	,	1
48,57	,	85417	,	-20314	,	-18332	,	-13.417589	,	1
48,57	,	85433	,	-20316	,	-18331	,	-15.1502075	,	0
48,57	,	85465	,	-20339	,	-18333	,	-16.825954	,	0
48,57	,	85481	,	-20325	,	-18327	,	-18.47391	,	0
48,58	,	85497	,	-20331	,	-18340	,	-19.930779	,	0
48,58	,	85529	,	-20340	,	-18349	,	-20.880663	,	0
48,58	,	85545	,	-20341	,	-18339	,	-21.191792	,	0
48,58	,	85561	,	-20343	,	-18351	,	-20.915234	,	0
48,58	,	85593	,	-20358	,	-18342	,	-20.172813	,	0
48,58	,	85609	,	-20366	,	-18347	,	-19.248045	,	0
48,58	,	85640	,	-20365	,	-18349	,	-18.4748	,	0
48,58	,	85657	,	-20354	,	-18343	,	-17.892208	,	0
48,58	,	85673	,	-20293	,	-18331	,	-16.879974	,	0
48,58	,	85705	,	-20274	,	-18317	,	-14.133502	,	1
48,58	,	85721	,	-20263	,	-18312	,	-8.543226	,	3
48,58	,	85737	,	-20259	,	-18310	,	-0.17462015	,	8
48,58	,	85769	,	-20236	,	-18309	,	9.89459	,	16
48,58	,	85785	,	-20244	,	-18312	,	20.293226	,	26
48,58	,	85801	,	-20250	,	-18316	,	29.609154	,	36
48,58	,	85833	,	-20244	,	-18309	,	36.53637	,	45
48,58	,	85849	,	-20246	,	-18309	,	40.300583	,	51
48,58	,	85880	,	-20256	,	-18308	,	40.76983	,	54
48,58	,	85897	,	-20256	,	-18316	,	38.21043	,	53
48,58	,	85913	,	-20270	,	-18319	,	33.141624	,	51
48,58	,	85945	,	-20265	,	-18307	,	26.265379	,	46
48,58	,	85961	,	-20262	,	-18312	,	18.469023	,	38
48,58	,	85977	,	-20248	,	-18302	,	10.835161	,	28
48,58	,	86009	,	-20256	,	-18313	,	4.3888817	,	18
48,58	,	86024	,	-20255	,	-18303	,	-0.30620956	,	9
48,58	,	86056	,	-20254	,	-18315	,	-3.222927	,	3
48,58	,	86072	,	-20255	,	-18293	,	-4.611068	,	0
48,58	,	86089	,	-20258	,	-18307	,	-4.8342123	,	0
48,58	,	86120	,	-20271	,	-18309	,	-4.3740773	,	0
48,58	,	86136	,	-20274	,	-18315	,	-3.801863	,	0
48,58	,	86152	,	-20281	,	-18314	,	-3.608303	,	0
48,58	,	86185	,	-20277	,	-18320	,	-4.0053306	,	0
48,58	,	86200	,	-20289	,	-18319	,	-4.9280834	,	0
48,58	,	86232	,	-20291	,	-18309	,	-6.2306857	,	0
48,58	,	86249	,	-20290	,	-18317	,	-7.7549763	,	0
48,58	,	86265	,	-20298	,	-18325	,	-9.277116	,	0
48,58	,	86296	,	-20314	,	-18331	,	-10.673228	,	0
48,58	,	86312	,	-20304	,	-18319	,	-11.9876585	,	0
48,58	,	86328	,	-20320	,	-18324	,	-13.211344	,	0
48,58	,	86360	,	-20321	,	-18336	,	-14.281493	,	0
48,58	,	86376	,	-20326	,	-18333	,	-15.188499	,	0
48,58	,	86392	,	-20350	,	-18343	,	-16.004896	,	0
48,58	,	86424	,	-20345	,	-18338	,	-16.92086	,	0
48,58	,	86440	,	-20340	,	-18336	,	-17.962803	,	0
48,58	,	86472	,	-20348	,	-18349	,	-18.814697	,	0
48,58	,	86488	,	-20354	,	-18351	,	-19.18692	,	0
48,59	,	86504	,	-20367	,	-18358	,	-19.106628	,	0
48,59	,	86536	,	-20365	,	-18367	,	-18.794939	,	0
48,59	,	86552	,	-20356	,	-18329	,	-18.337042	,	0
48,59	,	86568	,	-20300	,	-18316	,	-17.266884	,	0
48,59	,	86600	,	-20258	,	-18302	,	-14.372005	,	1
48,59	,	86616	,	-20246	,	-18303	,	-8.36033	,	3
48,59	,	86648	,	-20240	,	-18299	,	0.9753332	,	9
48,59	,	86664	,	-20239	,	-18291	,	12.44497	,	18
48,59	,	86680	,	-20232	,	-18298	,	24.165108	,	29
48,59	,	86712	,	-20231	,	-18296	,	34.37151	,	40
48,59	,	86728	,	-20233	,	-18293	,	41.807518	,	50
48,59	,	86744	,	-20239	,	-18292	,	45.75759	,	57
48,59	,	86776	,	-20244	,	-18289	,	46.006706	,	60
48,59	,	86792	,	-20253	,	-18288	,	42.796417	,	59
48,59	,	86808	,	-20258	,	-18299	,	36.722614	,	57
48,59	,	86840	,	-20261	,	-18304	,	28.634663	,	51
48,59	,	86856	,	-20254	,	-18297	,	19.591124	,	42
48,59	,	86888	,	-20248	,	-18286	,	10.780064	,	31
48,59	,	86904	,	-20251	,	-18291	,	3.2603817	,	20
48,59	,	86920	,	-20247	,	-18297	,	-2.3374949	,	10
48,59	,	86952	,	-20245	,	-18298	,	-5.832628	,	3
48,59	,	86968	,	-20251	,	-18294	,	-7.372482	,	0
48,59	,	86984	,	-20254	,	-18291	,	-7.3961425	,	0
48,59	,	87016	,	-20261	,	-18311	,	-6.534252	,	0
48,59	,	87032	,	-20265	,	-18288	,	-5.4272685	,	0
48,59	,	87064	,	-20274	,	-18301	,	-4.595049	,	1
48,59	,	87080	,	-20274	,	-18306	,	-4.3537555	,	1
48,59	,	87096	,	-20290	,	-18309	,	-4.821331	,	1
48,59	,	87128	,	-20301	,	-18307	,	-6.060302	,	1
48,59	,	87144	,	-20289	,	-18310	,	-8.022663	,	1
48,59	,	87160	,	-20304	,	-18319	,	-10.362709	,	1
48,59	,	87192	,	-20302	,	-18307	,	-12.637465	,	1
48,59	,	87207	,	-20310	,	-18322	,	-14.559511	,	1
48,59	,	87240	,	-20312	,	-18319	,	-15.975568	,	1
48,59	,	87256	,	-20319	,	-18332	,	-16.841524	,	0
48,59	,	87272	,	-20323	,	-18318	,	-17.217342	,	0
48,59	,	87304	,	-20335	,	-18330	,	-17.252949	,	0
48,59	,	87320	,	-20338	,	-18328	,	-17.164307	,	0
48,59	,	87336	,	-20350	,	-18326	,	-17.159506	,	0
48,59	,	87367	,	-20348	,	-18332	,	-17.349571	,	0
48,59	,	87384	,	-20353	,	-18329	,	-17.67736	,	0
48,59	,	87399	,	-20349	,	-18323	,	-17.935738	,	0
48,59	,	87432	,	-20318	,	-18313	,	-17.71439	,	0
48,59	,	87448	,	-20295	,	-18303	,	-16.257725	,	0
48,59	,	87480	,	-20264	,	-18294	,	-12.673856	,	1
49,0	,	87495	,	-20251	,	-18300	,	-6.448822	,	4
49,0	,	87511	,	-20249	,	-18277	,	2.1410732	,	10
49,0	,	87544	,	-20246	,	-18290	,	11.985373	,	18
49,0	,	87560	,	-20247	,	-18289	,	21.558222	,	27
49,0	,	87576	,	-20255	,	-18291	,	29.40981	,	36
49,0	,	87607	,	-20252	,	-18289	,	34.4771	,	43
49,0	,	87623	,	-20257	,	-18298	,	36.299145	,	48
49,0	,	87655	,	-20272	,	-18300	,	34.955437	,	49
49,0	,	87671	,	-20280	,	-18306	,	30.790031	,	48
49,0	,	87687	,	-20281	,	-18311	,	24.363811	,	45
49,0	,	87720	,	-20265	,	-18302	,	16.629328	,	39
49,0	,	87735	,	-20275	,	-18301	,	8.833523	,	31
49,0	,	87752	,	-20265	,	-18286	,	2.0588312	,	22
49,0	,	87783	,	-20269	,	-18298	,	-3.052009	,	13
49,0	,	87799	,	-20279	,	-18298	,	-6.3281174	,	6
49,0	,	87815	,	-20284	,	-18304	,	-8.066897	,	1
49,0	,	87847	,	-20280	,	-18306	,	-8.771076	,	0
49,0	,	87863	,	-20287	,	-18306	,	-8.836257	,	0
49,0	,	87895	,	-20286	,	-18308	,	-8.53647	,	0
49,0	,	87911	,	-20297	,	-18305	,	-8.115404	,	0
49,0	,	87927	,	-20295	,	-18306	,	-7.7917314	,	0
49,0	,	87959	,	-20307	,	-18303	,	-7.720006	,	0
49,0	,	87975	,	-20311	,	-18312	,	-8.006431	,	0
49,0	,	87991	,	-20309	,	-18301	,	-8.672518	,	0
49,0	,	88023	,	-20328	,	-18309	,	-9.630715	,	0
49,0	,	88039	,	-20328	,	-18305	,	-10.836474	,	0
49,0	,	88071	,	-20327	,	-18316	,	-12.240002	,	0
49,0	,	88087	,	-20337	,	-18315	,	-13.639207	,	0
49,0	,	88103	,	-20345	,	-18319	,	-14.863059	,	0
49,0	,	88135	,	-20352	,	-18323	,	-15.916456	,	0
49,0	,	88151	,	-20370	,	-18330	,	-16.926483	,	0
49,0	,	88167	,	-20332	,	-18327	,	-17.891983	,	0
49,0	,	88199	,	-20315	,	-18307	,	-18.225653	,	0
49,0	,	88215	,	-20285	,	-18302	,	-16.847633	,	0
49,0	,	88247	,	-20273	,	-18269	,	-12.901338	,	1
49,0	,	88263	,	-20258	,	-18286	,	-6.25949	,	4
49,0	,	88279	,	-20262	,	-18285	,	2.3899856	,	10
49,0	,	88311	,	-20261	,	-18291	,	11.738577	,	18
49,0	,	88327	,	-20265	,	-18286	,	20.277283	,	27
49,0	,	88343	,	-20257	,	-18279	,	26.796307	,	35
49,0	,	88375	,	-20272	,	-18286	,	30.62992	,	41
49,0	,	88391	,	-20281	,	-18290	,	31.508501	,	44
49,0	,	88407	,	-20287	,	-18299	,	29.437897	,	44
49,0	,	88439	,	-20296	,	-18292	,	24.777569	,	43
49,0	,	88455	,	-20282	,	-18300	,	18.292316	,	40
49,0	,	88487	,	-20283	,	-18278	,	11.101384	,	34
49,1	,	88503	,	-20276	,	-18298	,	4.3963346	,	26
49,1	,	88519	,	-20292	,	-18287	,	-1.0069866	,	17
49,1	,	88551	,	-20290	,	-18297	,	-4.884264	,	9
49,1	,	88567	,	-20286	,	-18287	,	-7.362607	,	3
49,1	,	88583	,	-20285	,	-18293	,	-8.583752	,	0
49,1	,	88615	,	-20300	,	-18288	,	-8.761117	,	0
49,1	,	88631	,	-20316	,	-18311	,	-8.409798	,	0
49,1	,	88662	,	-20308	,	-18303	,	-8.174629	,	0
49,1	,	88679	,	-20318	,	-18306	,	-8.389196	,	0
49,1	,	88694	,	-20319	,	-18314	,	-9.030219	,	0
49,1	,	88727	,	-20320	,	-18296	,	-9.93729	,	0
49,1	,	88743	,	-20330	,	-18314	,	-10.919979	,	0
49,1	,	88758	,	-20335	,	-18320	,	-11.87134	,	0
49,1	,	88791	,	-20352	,	-18315	,	-12.839783	,	0
49,1	,	88807	,	-20347	,	-18326	,	-13.9366	,	0
49,1	,	88823	,	-20361	,	-18325	,	-15.173197	,	0
49,1	,	88855	,	-20357	,	-18315	,	-16.430338	,	0
49,1	,	88871	,	-20336	,	-18298	,	-17.394512	,	0
49,1	,	88902	,	-20295	,	-18288	,	-17.295351	,	0
49,1	,	88919	,	-20269	,	-18274	,	-14.975274	,	0
49,1	,	88935	,	-20245	,	-18281	,	-9.535857	,	2
49,1	,	88967	,	-20235	,	-18264	,	-0.9476738	,	7
49,1	,	88983	,	-20235	,	-18278	,	9.8232975	,	15
49,1	,	88999	,	-20234	,	-18271	,	21.111954	,	25
49,1	,	89030	,	-20240	,	-18271	,	31.100672	,	36
49,1	,	89046	,	-20237	,	-18263	,	38.344234	,	45
49,1	,	89079	,	-20242	,	-18264	,	42.060463	,	52
49,1	,	89094	,	-20252	,	-18267	,	42.104973	,	55
49,1	,	89110	,	-20254	,	-18281	,	38.788795	,	55
49,1	,	89143	,	-20265	,	-18278	,	32.76461	,	53
49,1	,	89159	,	-20272	,	-18279	,	24.878168	,	48
49,1	,	89175	,	-20268	,	-18282	,	16.051497	,	40
49,1	,	89206	,	-20265	,	-18266	,	7.306924	,	30
49,1	,	89222	,	-20250	,	-18266	,	-0.28719234	,	19
49,1	,	89254	,	-20259	,	-18271	,	-5.872876	,	10
49,1	,	89270	,	-20253	,	-18273	,	-9.1071	,	3
49,1	,	89286	,	-20258	,	-18276	,	-10.182156	,	0
49,1	,	89318	,	-20262	,	-18269	,	-9.613127	,	0
49,1	,	89334	,	-20257	,	-18270	,	-8.039812	,	0
49,1	,	89350	,	-20267	,	-18274	,	-6.055489	,	1
49,1	,	89382	,	-20275	,	-18279	,	-4.1926556	,	2
49,1	,	89398	,	-20282	,	-18281	,	-2.9496765	,	3
49,1	,	89414	,	-20285	,	-18293	,	-2.6434724	,	4
49,1	,	89446	,	-20299	,	-18272	,	-3.342086	,	4
49,1	,	89462	,	-20309	,	-18293	,	-5.0081663	,	4
49,2	,	89494	,	-20314	,	-18292	,	-7.5436726	,	4
49,2	,	89510	,	-20319	,	-18297	,	-10.673772	,	4
49,2	,	89526	,	-20327	,	-18299	,	-13.981872	,	4
49,2	,	89558	,	-20331	,	-18302	,	-17.081495	,	3
49,2	,	89574	,	-20318	,	-18285	,	-19.59634	,	2
49,2	,	89590	,	-20281	,	-18278	,	-20.877396	,	1
49,2	,	89622	,	-20241	,	-18266	,	-19.839981	,	0
49,2	,	89638	,	-20216	,	-18252	,	-15.374351	,	1
49,2	,	89670	,	-20209	,	-18254	,	-7.1516676	,	5
49,2	,	89686	,	-20200	,	-18238	,	3.9646797	,	13
49,2	,	89702	,	-20196	,	-18248	,	16.283106	,	24
49,2	,	89734	,	-20190	,	-18240	,	27.963825	,	36
49,2	,	89750	,	-20195	,	-18243	,	37.47711	,	47
49,2	,	89766	,	-20186	,	-18236	,	43.816067	,	56
49,2	,	89798	,	-20199	,	-18246	,	46.567787	,	62
49,2	,	89814	,	-20208	,	-18242	,	45.75106	,	64
49,2	,	89830	,	-20220	,	-18245	,	41.61956	,	63
49,2	,	89862	,	-20224	,	-18254	,	34.6883	,	59
49,2	,	89878	,	-20231	,	-18253	,	25.784864	,	51
49,2	,	89910	,	-20212	,	-18253	,	16.043427	,	40
49,2	,	89926	,	-20219	,	-18232	,	6.797308	,	28
49,2	,	89942	,	-20204	,	-18253	,	-0.77579975	,	17
49,2	,	89974	,	-20220	,	-18248	,	-6.013982	,	8
49,2	,	89990	,	-20228	,	-18251	,	-8.953365	,	2
49,2	,	90006	,	-20229	,	-18254	,	-10.184514	,	0
49,2	,	90038	,	-20226	,	-18249	,	-10.350331	,	0
49,2	,	90054	,	-20240	,	-18254	,	-9.900061	,	0
49,2	,	90085	,	-20237	,	-18249	,	-9.219512	,	0
49,2	,	90101	,	-20249	,	-18253	,	-8.647418	,	0
49,2	,	90118	,	-20253	,	-18260	,	-8.426001	,	0
49,2	,	90150	,	-20258	,	-18268	,	-8.689917	,	0
49,2	,	90165	,	-20269	,	-18254	,	-9.45294	,	0
49,2	,	90182	,	-20288	,	-18276	,	-10.736386	,	0
49,2	,	90214	,	-20285	,	-18267	,	-12.602686	,	0
49,2	,	90230	,	-20301	,	-18274	,	-14.962825	,	0
49,2	,	90261	,	-20298	,	-18271	,	-17.539244	,	0
49,2	,	90277	,	-20311	,	-18281	,	-19.998182	,	0
49,2	,	90293	,	-20300	,	-18275	,	-22.005875	,	0
49,2	,	90325	,	-20291	,	-18270	,	-23.148136	,	0
49,2	,	90341	,	-20255	,	-18259	,	-22.799248	,	0
49,2	,	90357	,	-20218	,	-18240	,	-20.08865	,	0
49,2	,	90389	,	-20195	,	-18249	,	-14.202543	,	2
49,2	,	90405	,	-20189	,	-18225	,	-5.040227	,	7
49,2	,	90421	,	-20177	,	-18228	,	6.4552183	,	16
49,2	,	90454	,	-20175	,	-18225	,	18.67949	,	27
49,2	,	90470	,	-20177	,	-18230	,	29.912733	,	39
49,3	,	90501	,	-20181	,	-18225	,	38.657463	,	50
49,3	,	90519	,	-20180	,	-18227	,	43.908535	,	58
49,3	,	90533	,	-20183	,	-18230	,	45.333862	,	63
49,3	,	90566	,	-20195	,	-18235	,	43.17406	,	64
49,3	,	90581	,	-20206	,	-18234	,	37.959724	,	62
49,3	,	90597	,	-20198	,	-18240	,	30.4355	,	57
49,3	,	90629	,	-20195	,	-18231	,	21.685362	,	48
49,3	,	90645	,	-20189	,	-18223	,	13.00386	,	37
49,3	,	90677	,	-20197	,	-18232	,	5.476961	,	25
49,3	,	90693	,	-20189	,	-18229	,	-0.29411602	,	14
49,3	,	90709	,	-20204	,	-18234	,	-4.187217	,	6
49,3	,	90741	,	-20199	,	-18234	,	-6.4500103	,	1
49,3	,	90757	,	-20204	,	-18236	,	-7.491974	,	0
49,3	,	90773	,	-20211	,	-18240	,	-7.724065	,	0
49,3	,	90805	,	-20218	,	-18233	,	-7.580555	,	0
49,3	,	90821	,	-20222	,	-18237	,	-7.471552	,	0
49,3	,	90837	,	-20231	,	-18239	,	-7.673133	,	0
49,3	,	90869	,	-20226	,	-18242	,	-8.274557	,	0
49,3	,	90885	,	-20234	,	-18234	,	-9.1561165	,	0
49,3	,	90917	,	-20242	,	-18240	,	-10.135174	,	0
49,3	,	90933	,	-20253	,	-18248	,	-11.1761265	,	0
49,3	,	90949	,	-20258	,	-18251	,	-12.368994	,	0
49,3	,	90981	,	-20260	,	-18258	,	-13.735624	,	0
49,3	,	90997	,	-20271	,	-18259	,	-15.160505	,	0
49,3	,	91013	,	-20280	,	-18264	,	-16.544	,	0
49,3	,	91045	,	-20277	,	-18265	,	-17.846237	,	0
49,3	,	91061	,	-20279	,	-18255	,	-18.918499	,	0
49,3	,	91093	,	-20249	,	-18241	,	-19.361935	,	0
49,3	,	91109	,	-20212	,	-18231	,	-18.38413	,	0
49,3	,	91125	,	-20185	,	-18217	,	-14.929663	,	0
49,3	,	91157	,	-20168	,	-18214	,	-8.332439	,	3
49,3	,	91173	,	-20166	,	-18223	,	1.0983496	,	9
49,3	,	91189	,	-20167	,	-18216	,	12.062832	,	18
49,3	,	91221	,	-20163	,	-18211	,	22.782352	,	28
49,3	,	91237	,	-20161	,	-18214	,	31.678669	,	38
49,3	,	91253	,	-20160	,	-18219	,	37.75467	,	46
49,3	,	91285	,	-20174	,	-18217	,	40.557835	,	52
49,3	,	91301	,	-20180	,	-18221	,	39.992096	,	54
49,3	,	91333	,	-20199	,	-18234	,	36.225647	,	54
49,3	,	91349	,	-20187	,	-18227	,	29.766436	,	51
49,3	,	91365	,	-20199	,	-18216	,	21.553928	,	45
49,3	,	91397	,	-20183	,	-18222	,	12.799196	,	36
49,3	,	91413	,	-20178	,	-18225	,	4.7388735	,	26
49,3	,	91429	,	-20188	,	-18226	,	-1.6434641	,	16
49,3	,	91461	,	-20189	,	-18221	,	-5.9654527	,	8
49,3	,	91477	,	-20191	,	-18228	,	-8.39797	,	2
49,4	,	91508	,	-20204	,	-18228	,	-9.384286	,	0
49,4	,	91524	,	-20204	,	-18228	,	-9.512209	,	0
49,4	,	91541	,	-20211	,	-18229	,	-9.32613	,	0
49,4	,	91573	,	-20200	,	-18238	,	-9.1064415	,	0
49,4	,	91589	,	-20214	,	-18243	,	-8.879953	,	0
49,4	,	91604	,	-20212	,	-18225	,	-8.640354	,	0
49,4	,	91636	,	-20224	,	-18242	,	-8.4770565	,	0
49,4	,	91653	,	-20238	,	-18245	,	-8.587189	,	0
49,4	,	91684	,	-20238	,	-18250	,	-9.214108	,	0
49,4	,	91700	,	-20256	,	-18253	,	-10.4747305	,	0
49,4	,	91716	,	-20260	,	-18246	,	-12.338109	,	0
49,4	,	91749	,	-20270	,	-18260	,	-14.68163	,	0
49,4	,	91765	,	-20269	,	-18256	,	-17.243793	,	0
49,4	,	91781	,	-20244	,	-18241	,	-19.497278	,	0
49,4	,	91812	,	-20206	,	-18236	,	-20.45383	,	0
49,4	,	91829	,	-20187	,	-18229	,	-18.865612	,	0
49,4	,	91845	,	-20162	,	-18206	,	-13.9174795	,	1
49,4	,	91876	,	-20159	,	-18214	,	-5.720289	,	5
49,4	,	91892	,	-20160	,	-18214	,	4.6480713	,	13
49,4	,	91924	,	-20158	,	-18205	,	15.478186	,	23
49,4	,	91941	,	-20163	,	-18214	,	25.025782	,	33
49,4	,	91957	,	-20163	,	-18209	,	31.974716	,	42
49,4	,	91988	,	-20172	,	-18215	,	35.607155	,	48
49,4	,	92004	,	-20174	,	-18221	,	35.783936	,	51
49,4	,	92020	,	-20194	,	-18221	,	32.77869	,	51
49,4	,	92052	,	-20186	,	-18228	,	27.14035	,	50
49,4	,	92068	,	-20196	,	-18231	,	19.719128	,	46
49,4	,	92100	,	-20195	,	-18209	,	11.568458	,	38
49,4	,	92116	,	-20181	,	-18223	,	3.7573385	,	28
49,4	,	92133	,	-20180	,	-18217	,	-2.706584	,	18
49,4	,	92164	,	-20183	,	-18223	,	-7.1387653	,	9
49,4	,	92180	,	-20199	,	-18228	,	-9.50213	,	3
49,4	,	92196	,	-20201	,	-18231	,	-10.343508	,	0
49,4	,	92228	,	-20203	,	-18229	,	-10.35677	,	0
49,4	,	92245	,	-20210	,	-18230	,	-10.040076	,	0
49,4	,	92260	,	-20216	,	-18235	,	-9.72201	,	0
49,4	,	92292	,	-20216	,	-18239	,	-9.620977	,	0
49,4	,	92308	,	-20221	,	-18244	,	-9.785092	,	0
49,4	,	92340	,	-20222	,	-18231	,	-10.125667	,	0
49,4	,	92356	,	-20228	,	-18237	,	-10.532529	,	0
49,4	,	92372	,	-20254	,	-18250	,	-11.05138	,	0
49,4	,	92404	,	-20252	,	-18247	,	-11.949224	,	0
49,4	,	92420	,	-20258	,	-18254	,	-13.386989	,	0
49,4	,	92436	,	-20266	,	-18252	,	-15.203106	,	0
49,4	,	92468	,	-20272	,	-18255	,	-17.131823	,	0
49,4	,	92484	,	-20273	,	-18255	,	-18.935802	,	0
49,5	,	92516	,	-20250	,	-18251	,	-20.237732	,	0
49,5	,	92532	,	-20225	,	-18240	,	-20.324408	,	0
49,5	,	92548	,	-20189	,	-18227	,	-18.232735	,	0
49,5	,	92580	,	-20174	,	-18214	,	-13.182115	,	2
49,5	,	92596	,	-20168	,	-18207	,	-5.1409216	,	7
49,5	,	92612	,	-20156	,	-18206	,	4.9809895	,	15
49,5	,	92644	,	-20148	,	-18214	,	15.773654	,	25
49,5	,	92660	,	-20147	,	-18212	,	25.844896	,	35
49,5	,	92692	,	-20148	,	-18204	,	34.01795	,	45
49,5	,	92708	,	-20157	,	-18212	,	39.39601	,	53
49,5	,	92724	,	-20155	,	-18211	,	41.4672	,	58
49,5	,	92756	,	-20179	,	-18215	,	40.145596	,	60
49,5	,	92772	,	-20175	,	-18211	,	35.690163	,	58
49,5	,	92788	,	-20172	,	-18226	,	28.784798	,	53
49,5	,	92820	,	-20169	,	-18206	,	20.586445	,	45
49,5	,	92836	,	-20175	,	-18214	,	12.343643	,	35
49,5	,	92852	,	-20174	,	-18215	,	4.976919	,	25
49,5	,	92884	,	-20176	,	-18213	,	-0.98907566	,	15
49,5	,	92900	,	-20177	,	-18206	,	-5.329752	,	7
49,5	,	92931	,	-20185	,	-18217	,	-8.087071	,	2
49,5	,	92948	,	-20185	,	-18216	,	-9.537427	,	0
49,5	,	92964	,	-20182	,	-18217	,	-10.019053	,	0
49,5	,	92996	,	-20201	,	-18226	,	-9.852209	,	0
49,5	,	93012	,	-20205	,	-18221	,	-9.471968	,	0
49,5	,	93028	,	-20208	,	-18230	,	-9.3253765	,	0
49,5	,	93060	,	-20203	,	-18224	,	-9.556954	,	0
49,5	,	93076	,	-20223	,	-18223	,	-10.0626335	,	0
49,5	,	93108	,	-20223	,	-18231	,	-10.80577	,	0
49,5	,	93124	,	-20241	,	-18241	,	-11.869874	,	0
49,5	,	93140	,	-20244	,	-18240	,	-13.324881	,	0
49,5	,	93172	,	-20251	,	-18246	,	-15.130011	,	0
49,5	,	93188	,	-20250	,	-18248	,	-17.067879	,	0
49,5	,	93203	,	-20264	,	-18247	,	-18.839123	,	0
49,5	,	93235	,	-20262	,	-18248	,	-20.237371	,	0
49,5	,	93251	,	-20272	,	-18248	,	-21.165659	,	0
49,5	,	93267	,	-20288	,	-18266	,	-21.661991	,	0
49,5	,	93299	,	-20273	,	-18257	,	-21.859245	,	0
49,5	,	93315	,	-20284	,	-18256	,	-21.733046	,	0
49,5	,	93348	,	-20220	,	-18227	,	-20.842155	,	0
49,5	,	93364	,	-20181	,	-18213	,	-18.082296	,	0
49,5	,	93380	,	-20179	,	-18210	,	-12.2206955	,	2
49,5	,	93412	,	-20164	,	-18199	,	-3.1163235	,	7
49,5	,	93427	,	-20160	,	-18208	,	8.090452	,	16
49,5	,	93443	,	-20156	,	-18206	,	19.721483	,	27
49,5	,	93475	,	-20148	,	-18203	,	30.167263	,	38
49,6	,	93491	,	-20159	,	-18197	,	38.189304	,	48
49,6	,	93523	,	-20158	,	-18204	,	42.96264	,	56
49,6	,	93539	,	-20163	,	-18200	,	44.13287	,	60
49,6	,	93555	,	-20164	,	-18209	,	41.904537	,	61
49,6	,	93587	,	-20186	,	-18214	,	36.84093	,	59
49,6	,	93603	,	-20175	,	-18208	,	29.633068	,	54
49,6	,	93619	,	-20177	,	-18202	,	21.198046	,	45
49,6	,	93651	,	-20173	,	-18206	,	12.66851	,	34
49,6	,	93667	,	-20164	,	-18202	,	5.1028337	,	23
49,6	,	93699	,	-20168	,	-18207	,	-0.7277403	,	13
49,6	,	93715	,	-20166	,	-18208	,	-4.4957423	,	5
49,6	,	93731	,	-20175	,	-18208	,	-6.362109	,	1
49,6	,	93763	,	-20184	,	-18216	,	-6.8555603	,	0
49,6	,	93779	,	-20187	,	-18211	,	-6.671543	,	0
49,6	,	93795	,	-20183	,	-18203	,	-6.3554087	,	0
49,6	,	93827	,	-20196	,	-18216	,	-6.160865	,	0
49,6	,	93843	,	-20206	,	-18222	,	-6.268605	,	0
49,6	,	93859	,	-20197	,	-18220	,	-6.8325834	,	0
49,6	,	93891	,	-20209	,	-18225	,	-7.774349	,	0
49,6	,	93907	,	-20212	,	-18224	,	-8.896201	,	0
49,6	,	93939	,	-20221	,	-18227	,	-10.106375	,	0
49,6	,	93955	,	-20222	,	-18234	,	-11.371693	,	0
49,6	,	93971	,	-20234	,	-18237	,	-12.647397	,	0
49,6	,	94003	,	-20240	,	-18232	,	-13.92428	,	0
49,6	,	94019	,	-20240	,	-18235	,	-15.191797	,	0
49,6	,	94035	,	-20255	,	-18240	,	-16.375332	,	0
49,6	,	94067	,	-20275	,	-18249	,	-17.520103	,	0
49,6	,	94083	,	-20274	,	-18247	,	-18.848467	,	0
49,6	,	94114	,	-20286	,	-18245	,	-20.452993	,	0
49,6	,	94131	,	-20282	,	-18259	,	-22.147097	,	0
49,6	,	94147	,	-20287	,	-18255	,	-23.57658	,	0
49,6	,	94179	,	-20290	,	-18257	,	-24.39264	,	0
49,6	,	94195	,	-20267	,	-18242	,	-24.295658	,	0
49,6	,	94211	,	-20226	,	-18229	,	-22.735538	,	0
49,6	,	94243	,	-20195	,	-18217	,	-18.790314	,	1
49,6	,	94259	,	-20184	,	-18198	,	-11.763639	,	4
49,6	,	94275	,	-20168	,	-18209	,	-1.8693104	,	11
49,6	,	94307	,	-20173	,	-18200	,	9.732816	,	20
49,6	,	94323	,	-20169	,	-18209	,	21.35005	,	31
49,6	,	94355	,	-20163	,	-18203	,	31.325926	,	42
49,6	,	94371	,	-20177	,	-18211	,	38.466316	,	51
49,6	,	94387	,	-20186	,	-18205	,	42.031628	,	58
49,6	,	94419	,	-20186	,	-18210	,	41.74095	,	61
49,6	,	94434	,	-20201	,	-18218	,	37.895744	,	60
49,6	,	94451	,	-20198	,	-18219	,	31.252222	,	57
49,6	,	94483	,	-20199	,	-18217	,	22.868929	,	50
49,7	,	94499	,	-20182	,	-18214	,	14.050148	,	41
49,7	,	94531	,	-20184	,	-18221	,	6.1254654	,	30
49,7	,	94547	,	-20189	,	-18216	,	0.02425003	,	19
49,7	,	94563	,	-20182	,	-18217	,	-3.9571176	,	10
49,7	,	94594	,	-20178	,	-18211	,	-5.9249473	,	3
49,7	,	94610	,	-20189	,	-18220	,	-6.193886	,	0
49,7	,	94626	,	-20201	,	-18216	,	-5.383703	,	0
49,7	,	94659	,	-20207	,	-18220	,	-4.333982	,	0
49,7	,	94675	,	-20213	,	-18225	,	-3.7454522	,	1
49,7	,	94706	,	-20212	,	-18216	,	-3.9333239	,	1
49,7	,	94723	,	-20218	,	-18232	,	-4.8458633	,	1
49,7	,	94738	,	-20232	,	-18227	,	-6.2986817	,	1
49,7	,	94770	,	-20228	,	-18233	,	-8.142863	,	1
49,7	,	94786	,	-20244	,	-18241	,	-10.211469	,	1
49,7	,	94802	,	-20246	,	-18243	,	-12.340772	,	1
49,7	,	94835	,	-20254	,	-18241	,	-14.419149	,	1
49,7	,	94851	,	-20263	,	-18241	,	-16.353626	,	1
49,7	,	94866	,	-20270	,	-18241	,	-18.095783	,	0
49,7	,	94898	,	-20267	,	-18242	,	-19.581598	,	0
49,7	,	94914	,	-20267	,	-18250	,	-20.608719	,	0
49,7	,	94946	,	-20278	,	-18257	,	-20.959412	,	0
49,7	,	94962	,	-20286	,	-18260	,	-20.66388	,	0
49,7	,	94978	,	-20286	,	-18249	,	-19.973244	,	0
49,7	,	95010	,	-20302	,	-18255	,	-19.155651	,	0
49,7	,	95026	,	-20234	,	-18239	,	-18.130817	,	0
49,7	,	95042	,	-20202	,	-18213	,	-15.926136	,	1
49,7	,	95074	,	-20188	,	-18222	,	-11.153319	,	3
49,7	,	95090	,	-20174	,	-18218	,	-3.308279	,	7
49,7	,	95122	,	-20183	,	-18213	,	6.8071218	,	14
49,7	,	95138	,	-20180	,	-18208	,	17.537266	,	24
49,7	,	95154	,	-20177	,	-18211	,	27.092308	,	34
49,7	,	95186	,	-20176	,	-18209	,	34.19092	,	43
49,7	,	95202	,	-20184	,	-18222	,	38.186058	,	50
49,7	,	95218	,	-20196	,	-18209	,	38.84794	,	53
49,7	,	95250	,	-20215	,	-18219	,	36.186165	,	52
49,7	,	95266	,	-20227	,	-18235	,	30.423296	,	50
49,7	,	95282	,	-20224	,	-18223	,	22.155357	,	46
49,7	,	95314	,	-20217	,	-18220	,	12.527071	,	39
49,7	,	95330	,	-20220	,	-18223	,	3.0142202	,	29
49,7	,	95362	,	-20209	,	-18220	,	-5.0740976	,	19
49,7	,	95378	,	-20206	,	-18217	,	-10.849675	,	10
49,7	,	95394	,	-20204	,	-18221	,	-13.90325	,	3
49,7	,	95426	,	-20211	,	-18218	,	-14.3841305	,	0
49,7	,	95442	,	-20230	,	-18219	,	-13.017863	,	0
49,7	,	95458	,	-20235	,	-18220	,	-10.910298	,	1
49,8	,	95490	,	-20237	,	-18229	,	-9.060075	,	3
49,8	,	95506	,	-20238	,	-18230	,	-7.9544926	,	4
49,8	,	95538	,	-20243	,	-18233	,	-7.619981	,	5
49,8	,	95554	,	-20246	,	-18235	,	-7.8900795	,	5
49,8	,	95570	,	-20258	,	-18227	,	-8.601123	,	5
49,8	,	95602	,	-20258	,	-18241	,	-9.650888	,	5
49,8	,	95618	,	-20266	,	-18245	,	-10.933576	,	5
49,8	,	95634	,	-20274	,	-18242	,	-12.328321	,	5
49,8	,	95666	,	-20279	,	-18245	,	-13.757533	,	4
49,8	,	95682	,	-20286	,	-18253	,	-15.162655	,	2
49,8	,	95714	,	-20291	,	-18253	,	-16.472012	,	1
49,8	,	95730	,	-20297	,	-18259	,	-17.614738	,	0
49,8	,	95746	,	-20307	,	-18259	,	-18.553955	,	0
49,8	,	95778	,	-20280	,	-18252	,	-19.16737	,	0
49,8	,	95793	,	-20239	,	-18235	,	-18.836014	,	0
49,8	,	95810	,	-20224	,	-18221	,	-16.456757	,	0
49,8	,	95842	,	-20199	,	-18214	,	-11.217852	,	2
49,8	,	95858	,	-20187	,	-18213	,	-3.142645	,	7
49,8	,	95874	,	-20183	,	-18211	,	6.953871	,	15
49,8	,	95906	,	-20195	,	-18210	,	17.617525	,	25
49,8	,	95922	,	-20184	,	-18213	,	27.130808	,	35
49,8	,	95953	,	-20199	,	-18212	,	34.105103	,	44
49,8	,	95969	,	-20184	,	-18211	,	37.815327	,	50
49,8	,	95985	,	-20216	,	-18216	,	38.125015	,	53
49,8	,	96018	,	-20213	,	-18221	,	35.20388	,	53
49,8	,	96034	,	-20221	,	-18221	,	29.495989	,	51
49,8	,	96050	,	-20229	,	-18216	,	21.812666	,	46
49,8	,	96081	,	-20211	,	-18218	,	13.2258	,	38
49,8	,	96097	,	-20206	,	-18221	,	5.007676	,	28
49,8	,	96129	,	-20209	,	-18215	,	-1.6571503	,	18
49,8	,	96145	,	-20207	,	-18217	,	-6.153994	,	9
49,8	,	96161	,	-20207	,	-18216	,	-8.471888	,	3
49,8	,	96194	,	-20213	,	-18219	,	-8.967863	,	0
49,8	,	96210	,	-20221	,	-18221	,	-8.24268	,	0
49,8	,	96226	,	-20232	,	-18223	,	-7.040083	,	0
49,8	,	96257	,	-20232	,	-18229	,	-6.045097	,	1
49,8	,	96274	,	-20230	,	-18231	,	-5.621817	,	1
49,8	,	96290	,	-20248	,	-18226	,	-5.8069134	,	1
49,8	,	96321	,	-20245	,	-18232	,	-6.562395	,	1
49,8	,	96337	,	-20254	,	-18234	,	-7.8199787	,	1
49,8	,	96369	,	-20263	,	-18239	,	-9.438621	,	1
49,8	,	96385	,	-20263	,	-18237	,	-11.268099	,	1
49,8	,	96401	,	-20262	,	-18244	,	-13.0828495	,	1
49,8	,	96433	,	-20274	,	-18248	,	-14.596934	,	1
49,8	,	96449	,	-20286	,	-18243	,	-15.720792	,	0
49,8	,	96465	,	-20292	,	-18251	,	-16.630497	,	0
49,9	,	96497	,	-20296	,	-18250	,	-17.512827	,	0
49,9	,	96513	,	-20304	,	-18251	,	-18.398352	,	0
49,9	,	96545	,	-20294	,	-18252	,	-19.161663	,	0
49,9	,	96561	,	-20256	,	-18241	,	-19.32095	,	0
49,9	,	96577	,	-20230	,	-18226	,	-17.890171	,	0
49,9	,	96609	,	-20194	,	-18215	,	-13.793864	,	1
49,9	,	96625	,	-20182	,	-18208	,	-6.505578	,	5
49,9	,	96641	,	-20169	,	-18202	,	3.5886745	,	12
49,9	,	96673	,	-20165	,	-18204	,	15.257107	,	22
49,9	,	96689	,	-20165	,	-18184	,	26.832804	,	33
49,9	,	96705	,	-20160	,	-18197	,	36.69698	,	44
49,9	,	96737	,	-20160	,	-18200	,	43.681236	,	53
49,9	,	96753	,	-20174	,	-18200	,	47.16678	,	59
49,9	,	96785	,	-20181	,	-18198	,	46.927734	,	62
49,9	,	96801	,	-20197	,	-18202	,	43.075485	,	61
49,9	,	96817	,	-20199	,	-18204	,	36.101677	,	57
49,9	,	96849	,	-20193	,	-18204	,	26.949854	,	50
49,9	,	96865	,	-20183	,	-18194	,	17.011728	,	40
49,9	,	96881	,	-20178	,	-18198	,	7.8113804	,	29
49,9	,	96913	,	-20176	,	-18198	,	0.53220177	,	18
49,9	,	96929	,	-20177	,	-18193	,	-4.2695084	,	9
49,9	,	96961	,	-20180	,	-18200	,	-6.6687098	,	3
49,9	,	96977	,	-20184	,	-18194	,	-7.1758695	,	0
49,9	,	96993	,	-20179	,	-18202	,	-6.447011	,	0
49,9	,	97025	,	-20196	,	-18204	,	-5.1119795	,	0
49,9	,	97041	,	-20198	,	-18198	,	-3.7972941	,	1
49,9	,	97057	,	-20203	,	-18202	,	-3.023646	,	2
49,9	,	97089	,	-20201	,	-18205	,	-2.9909782	,	2
49,9	,	97105	,	-20208	,	-18216	,	-3.5987408	,	2
49,9	,	97137	,	-20206	,	-18211	,	-4.623046	,	2
49,9	,	97153	,	-20214	,	-18219	,	-5.8307624	,	2
49,9	,	97169	,	-20234	,	-18214	,	-7.13457	,	2
49,9	,	97201	,	-20238	,	-18222	,	-8.693316	,	2
49,9	,	97217	,	-20238	,	-18222	,	-10.638219	,	2
49,9	,	97233	,	-20252	,	-18227	,	-12.835634	,	1
49,9	,	97264	,	-20252	,	-18222	,	-15.055474	,	0
49,9	,	97280	,	-20256	,	-18236	,	-17.082191	,	0
49,9	,	97297	,	-20259	,	-18237	,	-18.67753	,	0
49,9	,	97329	,	-20252	,	-18226	,	-19.603428	,	0
49,9	,	97345	,	-20206	,	-18204	,	-19.417547	,	0
49,9	,	97377	,	-20162	,	-18196	,	-17.146648	,	0
49,9	,	97393	,	-20153	,	-18192	,	-11.705478	,	2
49,9	,	97409	,	-20134	,	-18180	,	-2.8856592	,	7
49,9	,	97440	,	-20130	,	-18178	,	8.362104	,	15
49,9	,	97456	,	-20132	,	-18178	,	20.388268	,	26
49,9	,	97472	,	-20129	,	-18180	,	31.360483	,	38
49,10	,	97505	,	-20139	,	-18182	,	39.71594	,	48
49,10	,	97521	,	-20142	,	-18182	,	44.432804	,	56
49,10	,	97552	,	-20151	,	-18181	,	45.117588	,	60
49,10	,	97569	,	-20145	,	-18187	,	42.038376	,	60
49,10	,	97585	,	-20160	,	-18185	,	35.9962	,	58
49,10	,	97616	,	-20156	,	-18186	,	28.024807	,	53
49,10	,	97632	,	-20144	,	-18182	,	19.26906	,	45
49,10	,	97648	,	-20139	,	-18174	,	10.98666	,	34
49,10	,	97680	,	-20137	,	-18178	,	4.258423	,	22
49,10	,	97697	,	-20144	,	-18179	,	-0.38609314	,	12
49,10	,	97712	,	-20142	,	-18182	,	-3.0216885	,	4
49,10	,	97744	,	-20155	,	-18179	,	-4.1220474	,	0
49,10	,	97760	,	-20155	,	-18184	,	-4.329933	,	0
49,10	,	97792	,	-20155	,	-18185	,	-4.2087755	,	0
49,10	,	97809	,	-20159	,	-18187	,	-4.072525	,	0
49,10	,	97824	,	-20167	,	-18186	,	-4.085703	,	0
49,10	,	97856	,	-20169	,	-18184	,	-4.388326	,	0
49,10	,	97872	,	-20183	,	-18201	,	-5.092407	,	0
49,10	,	97888	,	-20185	,	-18190	,	-6.2800035	,	0
49,10	,	97920	,	-20191	,	-18199	,	-7.9382844	,	0
49,10	,	97936	,	-20190	,	-18199	,	-9.875408	,	0
49,10	,	97968	,	-20202	,	-18210	,	-11.811079	,	0
49,10	,	97984	,	-20210	,	-18208	,	-13.583738	,	0
49,10	,	98000	,	-20219	,	-18208	,	-15.213042	,	0
49,10	,	98032	,	-20225	,	-18208	,	-16.767715	,	0
49,10	,	98048	,	-20236	,	-18210	,	-18.27741	,	0
49,10	,	98064	,	-20221	,	-18213	,	-19.648851	,	0
49,10	,	98096	,	-20222	,	-18215	,	-20.529858	,	0
49,10	,	98112	,	-20182	,	-18208	,	-20.2944	,	0
49,10	,	98144	,	-20146	,	-18176	,	-18.04274	,	0
49,10	,	98160	,	-20117	,	-18176	,	-12.820115	,	2
49,10	,	98176	,	-20117	,	-18159	,	-4.3263407	,	7
49,10	,	98208	,	-20113	,	-18158	,	6.5625362	,	15
49,10	,	98224	,	-20114	,	-18166	,	18.104588	,	25
49,10	,	98240	,	-20113	,	-18167	,	28.445364	,	36
49,10	,	98272	,	-20117	,	-18162	,	36.153152	,	46
49,10	,	98288	,	-20128	,	-18167	,	40.371143	,	53
49,10	,	98320	,	-20133	,	-18173	,	40.78977	,	57
49,10	,	98336	,	-20150	,	-18172	,	37.583992	,	57
49,10	,	98352	,	-20157	,	-18191	,	31.290894	,	55
49,10	,	98384	,	-20152	,	-18162	,	22.786167	,	50
49,10	,	98400	,	-20136	,	-18172	,	13.387613	,	42
49,10	,	98416	,	-20133	,	-18164	,	4.659567	,	32
49,10	,	98448	,	-20137	,	-18171	,	-2.1683502	,	21
49,10	,	98464	,	-20140	,	-18170	,	-6.6170473	,	11
49,10	,	98480	,	-20144	,	-18176	,	-8.869751	,	4
49,11	,	98512	,	-20141	,	-18177	,	-9.427283	,	0
49,11	,	98528	,	-20145	,	-18174	,	-8.827764	,	0
49,11	,	98560	,	-20147	,	-18188	,	-7.5641737	,	0
49,11	,	98576	,	-20152	,	-18185	,	-6.096961	,	1
49,11	,	98592	,	-20156	,	-18164	,	-4.815398	,	2
49,11	,	98624	,	-20165	,	-18183	,	-4.0078273	,	3
49,11	,	98640	,	-20172	,	-18189	,	-3.8834538	,	3
49,11	,	98656	,	-20182	,	-18187	,	-4.5745625	,	3
49,11	,	98688	,	-20184	,	-18190	,	-6.07479	,	3
49,11	,	98703	,	-20190	,	-18190	,	-8.183245	,	3
49,11	,	98735	,	-20189	,	-18191	,	-10.544525	,	3
49,11	,	98751	,	-20193	,	-18195	,	-12.751907	,	3
49,11	,	98767	,	-20208	,	-18198	,	-14.530576	,	2
49,11	,	98800	,	-20206	,	-18202	,	-15.856298	,	1
49,11	,	98816	,	-20211	,	-18214	,	-16.78717	,	0
49,11	,	98832	,	-20195	,	-18179	,	-17.228577	,	0
49,11	,	98863	,	-20133	,	-18169	,	-16.604738	,	0
49,11	,	98879	,	-20113	,	-18162	,	-13.717681	,	0
49,11	,	98911	,	-20106	,	-18155	,	-7.6180334	,	2
49,11	,	98927	,	-20095	,	-18159	,	1.4204998	,	8
49,11	,	98944	,	-20090	,	-18162	,	12.09609	,	17
49,11	,	98975	,	-20104	,	-18155	,	22.701519	,	27
49,11	,	98992	,	-20102	,	-18163	,	31.512833	,	37
49,11	,	99007	,	-20112	,	-18163	,	37.214672	,	45
49,11	,	99039	,	-20114	,	-18155	,	39.19541	,	50
49,11	,	99055	,	-20132	,	-18174	,	37.472496	,	51
49,11	,	99071	,	-20137	,	-18164	,	32.471966	,	51
49,11	,	99103	,	-20123	,	-18173	,	25.031595	,	49
49,11	,	99119	,	-20131	,	-18161	,	16.436901	,	43
49,11	,	99151	,	-20129	,	-18163	,	8.020099	,	34
49,11	,	99167	,	-20117	,	-18159	,	0.79874706	,	24
49,11	,	99183	,	-20123	,	-18160	,	-4.5396395	,	14
49,11	,	99215	,	-20120	,	-18165	,	-7.7330484	,	6
49,11	,	99231	,	-20133	,	-18168	,	-9.014556	,	1
49,11	,	99247	,	-20131	,	-18169	,	-8.951338	,	0
49,11	,	99279	,	-20133	,	-18167	,	-8.153726	,	0
49,11	,	99295	,	-20131	,	-18181	,	-7.0466833	,	0
49,11	,	99327	,	-20140	,	-18169	,	-5.89855	,	1
49,11	,	99343	,	-20159	,	-18178	,	-5.034322	,	2
49,11	,	99359	,	-20162	,	-18184	,	-4.8926764	,	2
49,11	,	99391	,	-20170	,	-18180	,	-5.754719	,	2
49,11	,	99407	,	-20170	,	-18181	,	-7.5292687	,	2
49,11	,	99423	,	-20171	,	-18192	,	-9.827059	,	2
49,11	,	99455	,	-20186	,	-18190	,	-12.1987915	,	2
49,11	,	99471	,	-20197	,	-18195	,	-14.42111	,	2
49,11	,	99487	,	-20192	,	-18198	,	-16.464798	,	2
49,12	,	99519	,	-20201	,	-18201	,	-18.213997	,	1
49,12	,	99535	,	-20204	,	-18207	,	-19.481947	,	0
49,12	,	99567	,	-20204	,	-18183	,	-20.161928	,	0
49,12	,	99583	,	-20131	,	-18165	,	-19.838377	,	0
49,12	,	99599	,	-20095	,	-18156	,	-17.265112	,	0
49,12	,	99631	,	-20091	,	-18144	,	-11.118135	,	2
49,12	,	99647	,	-20082	,	-18139	,	-1.3953857	,	8
49,12	,	99663	,	-20087	,	-18141	,	10.442084	,	17
49,12	,	99695	,	-20073	,	-18151	,	22.373365	,	28
49,12	,	99711	,	-20086	,	-18151	,	32.594574	,	39
49,12	,	99743	,	-20086	,	-18151	,	39.7938	,	49
49,12	,	99759	,	-20089	,	-18150	,	43.23196	,	56
49,12	,	99775	,	-20081	,	-18159	,	42.895035	,	59
49,12	,	99807	,	-20099	,	-18138	,	39.382935	,	59
49,12	,	99823	,	-20110	,	-18148	,	33.443436	,	57
49,12	,	99839	,	-20099	,	-18152	,	25.804626	,	51
49,12	,	99871	,	-20092	,	-18142	,	17.455965	,	42
49,12	,	99887	,	-20090	,	-18150	,	9.596478	,	31
49,12	,	99918	,	-20093	,	-18149	,	3.1558857	,	20
49,12	,	99934	,	-20084	,	-18147	,	-1.426569	,	10
49,12	,	99951	,	-20092	,	-18155	,	-4.09669	,	3
49,12	,	99982	,	-20102	,	-18146	,	-5.1632347	,	0
49,12	,	99998	,	-20097	,	-18155	,	-5.21413	,	0
49,12	,	100014	,	-20114	,	-18161	,	-4.8448877	,	0
49,12	,	100046	,	-20107	,	-18146	,	-4.524127	,	0
49,12	,	100063	,	-20108	,	-18167	,	-4.4887543	,	0
49,12	,	100079	,	-20130	,	-18164	,	-4.7865295	,	0
49,12	,	100111	,	-20128	,	-18163	,	-5.5393705	,	0
49,12	,	100127	,	-20125	,	-18168	,	-6.80786	,	0
49,12	,	100158	,	-20144	,	-18166	,	-8.408947	,	0
49,12	,	100175	,	-20140	,	-18172	,	-10.154533	,	0
49,12	,	100190	,	-20141	,	-18181	,	-11.882861	,	0
49,12	,	100223	,	-20151	,	-18178	,	-13.365812	,	0
49,12	,	100239	,	-20166	,	-18184	,	-14.536824	,	0
49,12	,	100255	,	-20159	,	-18189	,	-15.528337	,	0
49,12	,	100286	,	-20171	,	-18169	,	-16.38804	,	0
49,12	,	100302	,	-20182	,	-18176	,	-17.101255	,	0
49,12	,	100334	,	-20168	,	-18185	,	-17.6782	,	0
49,12	,	100351	,	-20137	,	-18156	,	-17.777588	,	0
49,12	,	100366	,	-20119	,	-18152	,	-16.544779	,	0
49,12	,	100398	,	-20094	,	-18146	,	-13.12165	,	1
49,12	,	100414	,	-20062	,	-18142	,	-7.0718174	,	4
49,12	,	100430	,	-20069	,	-18140	,	1.4579496	,	10
49,12	,	100462	,	-20056	,	-18143	,	11.542604	,	18
49,12	,	100478	,	-20059	,	-18128	,	21.709038	,	28
49,13	,	100494	,	-20055	,	-18138	,	30.512531	,	38
49,13	,	100526	,	-20058	,	-18129	,	36.872696	,	46
49,13	,	100542	,	-20065	,	-18134	,	40.15718	,	52
49,13	,	100574	,	-20089	,	-18145	,	40.069374	,	55
49,13	,	100590	,	-20086	,	-18146	,	36.595207	,	54
49,13	,	100606	,	-20082	,	-18140	,	30.265234	,	51
49,13	,	100638	,	-20064	,	-18135	,	22.306969	,	45
49,13	,	100654	,	-20082	,	-18144	,	14.210089	,	37
49,13	,	100670	,	-20081	,	-18140	,	7.024268	,	27
49,13	,	100702	,	-20082	,	-18132	,	1.1837606	,	17
49,13	,	100718	,	-20070	,	-18136	,	-3.1240597	,	9
49,13	,	100750	,	-20070	,	-18149	,	-5.738038	,	3
49,13	,	100766	,	-20073	,	-18129	,	-6.6696053	,	0
49,13	,	100782	,	-20090	,	-18147	,	-6.3206863	,	0
49,13	,	100814	,	-20090	,	-18145	,	-5.4190044	,	0
49,13	,	100830	,	-20100	,	-18148	,	-4.663624	,	0
49,13	,	100846	,	-20092	,	-18152	,	-4.4272575	,	0
49,13	,	100878	,	-20108	,	-18159	,	-4.7526026	,	0
49,13	,	100894	,	-20114	,	-18155	,	-5.603471	,	0
49,13	,	100926	,	-20117	,	-18157	,	-6.973583	,	0
49,13	,	100942	,	-20126	,	-18166	,	-8.762666	,	0
49,13	,	100958	,	-20129	,	-18161	,	-10.780176	,	0
49,13	,	100990	,	-20129	,	-18173	,	-12.794956	,	0
49,13	,	101006	,	-20141	,	-18165	,	-14.5658865	,	0
49,13	,	101022	,	-20151	,	-18174	,	-16.004396	,	0
49,13	,	101054	,	-20163	,	-18175	,	-17.245846	,	0
49,13	,	101070	,	-20160	,	-18174	,	-18.451458	,	0
49,13	,	101086	,	-20169	,	-18181	,	-19.595678	,	0
49,13	,	101118	,	-20171	,	-18182	,	-20.519722	,	0
49,13	,	101134	,	-20166	,	-18178	,	-21.033892	,	0
49,13	,	101166	,	-20141	,	-18173	,	-20.783575	,	0
49,13	,	101182	,	-20109	,	-18152	,	-19.08638	,	0
49,13	,	101198	,	-20090	,	-18151	,	-15.13236	,	1
49,13	,	101230	,	-20080	,	-18145	,	-8.559853	,	4
49,13	,	101246	,	-20066	,	-18128	,	0.19420242	,	10
49,13	,	101262	,	-20058	,	-18139	,	10.123116	,	18
49,13	,	101294	,	-20068	,	-18139	,	19.960545	,	27
49,13	,	101310	,	-20066	,	-18143	,	28.341326	,	36
49,13	,	101342	,	-20078	,	-18141	,	34.097565	,	44
49,13	,	101358	,	-20073	,	-18143	,	36.578438	,	49
49,13	,	101374	,	-20093	,	-18154	,	35.702618	,	51
49,13	,	101406	,	-20102	,	-18151	,	31.750177	,	50
49,13	,	101422	,	-20092	,	-18154	,	25.314474	,	47
49,13	,	101438	,	-20085	,	-18147	,	17.488918	,	41
49,13	,	101470	,	-20077	,	-18155	,	9.690981	,	33
49,13	,	101486	,	-20083	,	-18138	,	3.1144085	,	24
49,14	,	101502	,	-20089	,	-18150	,	-1.6757479	,	15
49,14	,	101533	,	-20087	,	-18152	,	-4.7164607	,	7
49,14	,	101549	,	-20094	,	-18156	,	-6.330147	,	2
49,14	,	101581	,	-20099	,	-18155	,	-6.9449234	,	0
49,14	,	101597	,	-20097	,	-18156	,	-7.003419	,	0
49,14	,	101613	,	-20100	,	-18159	,	-6.8064365	,	0
49,14	,	101646	,	-20109	,	-18154	,	-6.5343647	,	0
49,14	,	101662	,	-20113	,	-18161	,	-6.385949	,	0
49,14	,	101678	,	-20115	,	-18160	,	-6.532919	,	0
49,14	,	101709	,	-20119	,	-18166	,	-7.0066824	,	0
49,14	,	101725	,	-20127	,	-18158	,	-7.7499566	,	0
49,14	,	101757	,	-20141	,	-18163	,	-8.764207	,	0
49,14	,	101773	,	-20144	,	-18177	,	-10.129448	,	0
49,14	,	101789	,	-20146	,	-18174	,	-11.825223	,	0
49,14	,	101821	,	-20155	,	-18171	,	-13.651649	,	0
49,14	,	101837	,	-20152	,	-18185	,	-15.354975	,	0
49,14	,	101853	,	-20169	,	-18180	,	-16.750322	,	0
49,14	,	101885	,	-20175	,	-18176	,	-17.83469	,	0
49,14	,	101901	,	-20183	,	-18181	,	-18.754704	,	0
49,14	,	101933	,	-20184	,	-18184	,	-19.597778	,	0
49,14	,	101949	,	-20170	,	-18186	,	-20.214382	,	0
49,14	,	101965	,	-20135	,	-18170	,	-20.035969	,	0
49,14	,	101997	,	-20113	,	-18153	,	-18.102032	,	0
49,14	,	102013	,	-20091	,	-18146	,	-13.565204	,	1
49,14	,	102029	,	-20078	,	-18150	,	-6.240101	,	5
49,14	,	102061	,	-20092	,	-18150	,	3.154892	,	12
49,14	,	102077	,	-20084	,	-18152	,	13.124651	,	21
49,14	,	102093	,	-20092	,	-18149	,	21.994986	,	30
49,14	,	102125	,	-20090	,	-18156	,	28.498713	,	38
49,14	,	102141	,	-20107	,	-18160	,	31.911331	,	44
49,14	,	102173	,	-20107	,	-18159	,	31.991596	,	47
49,14	,	102189	,	-20115	,	-18169	,	28.980679	,	47
49,14	,	102205	,	-20122	,	-18153	,	23.533554	,	46
49,14	,	102237	,	-20110	,	-18159	,	16.579748	,	42
49,14	,	102253	,	-20106	,	-18161	,	9.271409	,	35
49,14	,	102269	,	-20106	,	-18155	,	2.7564907	,	26
49,14	,	102301	,	-20107	,	-18155	,	-2.2127275	,	17
49,14	,	102317	,	-20112	,	-18154	,	-5.4213576	,	9
49,14	,	102349	,	-20127	,	-18160	,	-7.131397	,	3
49,14	,	102365	,	-20129	,	-18164	,	-7.9232016	,	0
49,14	,	102381	,	-20124	,	-18160	,	-8.327732	,	0
49,14	,	102413	,	-20128	,	-18166	,	-8.548451	,	0
49,14	,	102429	,	-20137	,	-18176	,	-8.6244755	,	0
49,14	,	102445	,	-20143	,	-18166	,	-8.6924095	,	0
49,14	,	102477	,	-20146	,	-18169	,	-8.943802	,	0
49,15	,	102493	,	-20158	,	-18172	,	-9.492941	,	0
49,15	,	102509	,	-20160	,	-18180	,	-10.380726	,	0
49,15	,	102541	,	-20164	,	-18178	,	-11.560053	,	0
