Data recorded on Wed Jul 26 14-39-40 CAT 2017
Time: 14:39:47
Time		Millis		IR PPG		Red PPG		Filtered		SSF
39,56	,	85308	,	-16308	,	-14208	,	1.5882554	,	10
39,56	,	85340	,	-16308	,	-14211	,	9.539799	,	17
39,56	,	85356	,	-16302	,	-14199	,	17.342148	,	24
39,56	,	85388	,	-16287	,	-14201	,	24.094042	,	31
39,56	,	85404	,	-16289	,	-14202	,	29.26244	,	37
39,56	,	85420	,	-16280	,	-14201	,	32.619965	,	42
39,56	,	85452	,	-16283	,	-14195	,	34.115772	,	44
39,56	,	85468	,	-16283	,	-14193	,	33.82779	,	44
39,56	,	85484	,	-16296	,	-14203	,	31.867096	,	41
39,56	,	85516	,	-16289	,	-14202	,	28.380333	,	36
39,56	,	85532	,	-16291	,	-14204	,	23.714773	,	29
39,56	,	85564	,	-16286	,	-14201	,	18.455753	,	22
39,56	,	85580	,	-16302	,	-14208	,	13.174376	,	15
39,56	,	85596	,	-16297	,	-14202	,	8.204807	,	9
39,56	,	85628	,	-16306	,	-14204	,	3.7168922	,	4
39,56	,	85644	,	-16305	,	-14205	,	-0.169384	,	1
39,56	,	85660	,	-16307	,	-14207	,	-3.372569	,	0
39,56	,	85692	,	-16315	,	-14211	,	-5.8610907	,	0
39,56	,	85708	,	-16326	,	-14203	,	-7.7450824	,	0
39,56	,	85724	,	-16346	,	-14220	,	-9.366565	,	0
39,56	,	85756	,	-16325	,	-14213	,	-11.056393	,	0
39,56	,	85772	,	-16347	,	-14224	,	-12.774776	,	0
39,56	,	85804	,	-16348	,	-14228	,	-14.313738	,	0
39,56	,	85820	,	-16356	,	-14224	,	-15.625033	,	0
39,56	,	85836	,	-16368	,	-14227	,	-16.763966	,	0
39,56	,	85868	,	-16360	,	-14225	,	-17.767311	,	0
39,56	,	85884	,	-16370	,	-14237	,	-18.543602	,	0
39,56	,	85900	,	-16369	,	-14233	,	-18.932718	,	0
39,56	,	85932	,	-16375	,	-14240	,	-18.861755	,	0
39,56	,	85948	,	-16383	,	-14233	,	-18.377779	,	0
39,56	,	85980	,	-16398	,	-14237	,	-17.700642	,	0
39,56	,	85996	,	-16392	,	-14242	,	-17.136442	,	0
39,56	,	86012	,	-16395	,	-14237	,	-16.786816	,	0
39,56	,	86044	,	-16373	,	-14238	,	-16.387474	,	0
39,56	,	86059	,	-16366	,	-14226	,	-15.3853855	,	0
39,56	,	86075	,	-16351	,	-14226	,	-13.215064	,	1
39,56	,	86108	,	-16351	,	-14219	,	-9.637179	,	3
39,56	,	86124	,	-16329	,	-14215	,	-4.809455	,	6
39,56	,	86156	,	-16331	,	-14212	,	0.89037323	,	10
39,56	,	86172	,	-16317	,	-14215	,	6.9640646	,	15
39,56	,	86188	,	-16308	,	-14199	,	12.885421	,	21
39,56	,	86219	,	-16319	,	-14211	,	18.156963	,	26
39,56	,	86236	,	-16327	,	-14209	,	22.162098	,	31
39,56	,	86252	,	-16324	,	-14205	,	24.273487	,	35
39,56	,	86284	,	-16326	,	-14211	,	24.252666	,	36
39,56	,	86299	,	-16327	,	-14212	,	22.33448	,	34
39,57	,	86315	,	-16329	,	-14215	,	19.010403	,	31
39,57	,	86348	,	-16315	,	-14211	,	14.914451	,	27
39,57	,	86364	,	-16329	,	-14210	,	10.728272	,	22
39,57	,	86396	,	-16319	,	-14216	,	6.9515142	,	16
39,57	,	86412	,	-16325	,	-14219	,	3.845201	,	11
39,57	,	86428	,	-16328	,	-14208	,	1.4947972	,	6
39,57	,	86459	,	-16327	,	-14217	,	-0.18237376	,	2
39,57	,	86475	,	-16341	,	-14216	,	-1.3834134	,	0
39,57	,	86492	,	-16343	,	-14215	,	-2.3980834	,	0
39,57	,	86524	,	-16342	,	-14219	,	-3.4760056	,	0
39,57	,	86539	,	-16353	,	-14227	,	-4.677718	,	0
39,57	,	86571	,	-16359	,	-14226	,	-6.0111995	,	0
39,57	,	86587	,	-16365	,	-14224	,	-7.5295687	,	0
39,57	,	86604	,	-16373	,	-14229	,	-9.248086	,	0
39,57	,	86636	,	-16370	,	-14228	,	-11.077026	,	0
39,57	,	86652	,	-16376	,	-14243	,	-12.804076	,	0
39,57	,	86668	,	-16390	,	-14224	,	-14.24954	,	0
39,57	,	86700	,	-16393	,	-14234	,	-15.434282	,	0
39,57	,	86715	,	-16399	,	-14229	,	-16.45593	,	0
39,57	,	86731	,	-16394	,	-14242	,	-17.283974	,	0
39,57	,	86763	,	-16412	,	-14236	,	-17.807844	,	0
39,57	,	86779	,	-16409	,	-14239	,	-18.029367	,	0
39,57	,	86812	,	-16414	,	-14244	,	-18.018967	,	0
39,57	,	86828	,	-16407	,	-14230	,	-17.732811	,	0
39,57	,	86843	,	-16395	,	-14233	,	-16.957535	,	0
39,57	,	86875	,	-16372	,	-14223	,	-15.290722	,	0
39,57	,	86891	,	-16358	,	-14227	,	-12.233513	,	1
39,57	,	86907	,	-16338	,	-14212	,	-7.4559155	,	4
39,57	,	86939	,	-16338	,	-14208	,	-1.0468569	,	8
39,57	,	86955	,	-16334	,	-14212	,	6.366783	,	14
39,57	,	86988	,	-16337	,	-14205	,	13.756992	,	21
39,57	,	87004	,	-16324	,	-14203	,	20.112944	,	28
39,57	,	87020	,	-16324	,	-14202	,	24.815117	,	34
39,57	,	87051	,	-16327	,	-14202	,	27.620615	,	38
39,57	,	87067	,	-16324	,	-14200	,	28.474766	,	40
39,57	,	87083	,	-16326	,	-14203	,	27.503937	,	39
39,57	,	87115	,	-16326	,	-14207	,	25.027863	,	36
39,57	,	87131	,	-16325	,	-14211	,	21.480606	,	32
39,57	,	87147	,	-16333	,	-14199	,	17.321365	,	26
39,57	,	87179	,	-16339	,	-14206	,	12.8998165	,	19
39,57	,	87195	,	-16329	,	-14198	,	8.471497	,	12
39,57	,	87227	,	-16341	,	-14204	,	4.3344717	,	6
39,57	,	87243	,	-16342	,	-14209	,	0.7329426	,	2
39,57	,	87259	,	-16342	,	-14205	,	-2.2398703	,	0
39,57	,	87291	,	-16351	,	-14209	,	-4.5698385	,	0
39,58	,	87307	,	-16357	,	-14213	,	-6.353947	,	0
39,58	,	87323	,	-16359	,	-14214	,	-7.787183	,	0
39,58	,	87355	,	-16366	,	-14212	,	-9.017621	,	0
39,58	,	87371	,	-16370	,	-14225	,	-10.1187935	,	0
39,58	,	87403	,	-16376	,	-14221	,	-11.139884	,	0
39,58	,	87419	,	-16387	,	-14228	,	-12.137054	,	0
39,58	,	87435	,	-16398	,	-14230	,	-13.222325	,	0
39,58	,	87467	,	-16386	,	-14224	,	-14.442839	,	0
39,58	,	87483	,	-16390	,	-14228	,	-15.559521	,	0
39,58	,	87499	,	-16395	,	-14235	,	-16.212889	,	0
39,58	,	87531	,	-16410	,	-14234	,	-16.32156	,	0
39,58	,	87547	,	-16423	,	-14237	,	-16.180044	,	0
39,58	,	87563	,	-16410	,	-14244	,	-16.133423	,	0
39,58	,	87595	,	-16429	,	-14239	,	-16.247868	,	0
39,58	,	87611	,	-16419	,	-14247	,	-16.406197	,	0
39,58	,	87643	,	-16406	,	-14232	,	-16.357307	,	0
39,58	,	87659	,	-16385	,	-14225	,	-15.56041	,	0
39,58	,	87675	,	-16360	,	-14213	,	-13.301722	,	0
39,58	,	87707	,	-16343	,	-14212	,	-9.009327	,	2
39,58	,	87723	,	-16330	,	-14211	,	-2.5630803	,	6
39,58	,	87740	,	-16331	,	-14206	,	5.512698	,	12
39,58	,	87772	,	-16320	,	-14200	,	14.1719475	,	20
39,58	,	87787	,	-16311	,	-14198	,	22.295105	,	28
39,58	,	87819	,	-16315	,	-14195	,	29.0209	,	36
39,58	,	87835	,	-16303	,	-14197	,	33.76613	,	42
39,58	,	87851	,	-16303	,	-14195	,	36.281456	,	46
39,58	,	87883	,	-16304	,	-14201	,	36.646065	,	48
39,58	,	87899	,	-16311	,	-14194	,	35.060837	,	46
39,58	,	87915	,	-16296	,	-14191	,	31.826742	,	42
39,58	,	87947	,	-16309	,	-14190	,	27.451548	,	36
39,58	,	87963	,	-16292	,	-14188	,	22.545128	,	28
39,58	,	87979	,	-16303	,	-14190	,	17.675259	,	20
39,58	,	88011	,	-16298	,	-14190	,	13.252495	,	12
39,58	,	88027	,	-16307	,	-14189	,	9.4376955	,	6
39,58	,	88059	,	-16309	,	-14190	,	6.1981	,	2
39,58	,	88075	,	-16323	,	-14199	,	3.365919	,	0
39,58	,	88091	,	-16316	,	-14201	,	0.73008394	,	0
39,58	,	88123	,	-16327	,	-14204	,	-1.7866683	,	0
39,58	,	88139	,	-16330	,	-14196	,	-4.1467414	,	0
39,58	,	88155	,	-16350	,	-14202	,	-6.39988	,	0
39,58	,	88187	,	-16341	,	-14203	,	-8.67433	,	0
39,58	,	88203	,	-16351	,	-14210	,	-10.940079	,	0
39,58	,	88235	,	-16368	,	-14214	,	-13.070841	,	0
39,58	,	88251	,	-16362	,	-14215	,	-15.049833	,	0
39,58	,	88267	,	-16367	,	-14213	,	-16.802544	,	0
39,58	,	88299	,	-16363	,	-14222	,	-18.07765	,	0
39,59	,	88315	,	-16367	,	-14224	,	-18.618267	,	0
39,59	,	88331	,	-16374	,	-14216	,	-18.344604	,	0
39,59	,	88363	,	-16390	,	-14239	,	-17.490932	,	0
39,59	,	88379	,	-16398	,	-14223	,	-16.55662	,	0
39,59	,	88411	,	-16396	,	-14231	,	-15.973152	,	0
39,59	,	88427	,	-16399	,	-14232	,	-15.811348	,	0
39,59	,	88442	,	-16386	,	-14220	,	-15.795637	,	0
39,59	,	88475	,	-16356	,	-14224	,	-15.326638	,	0
39,59	,	88491	,	-16347	,	-14215	,	-13.565363	,	0
39,59	,	88507	,	-16328	,	-14205	,	-9.888712	,	1
39,59	,	88539	,	-16321	,	-14197	,	-4.250652	,	4
39,59	,	88555	,	-16311	,	-14196	,	2.855083	,	9
39,59	,	88571	,	-16302	,	-14186	,	10.615383	,	16
39,59	,	88603	,	-16301	,	-14201	,	18.136024	,	23
39,59	,	88619	,	-16290	,	-14180	,	24.617542	,	30
39,59	,	88650	,	-16286	,	-14181	,	29.521402	,	36
39,59	,	88667	,	-16287	,	-14176	,	32.597446	,	40
39,59	,	88682	,	-16279	,	-14186	,	33.788715	,	43
39,59	,	88715	,	-16282	,	-14177	,	33.229004	,	43
39,59	,	88731	,	-16281	,	-14180	,	31.198265	,	40
39,59	,	88747	,	-16283	,	-14183	,	28.017244	,	35
39,59	,	88779	,	-16290	,	-14184	,	23.99221	,	28
39,59	,	88795	,	-16288	,	-14190	,	19.40483	,	21
39,59	,	88826	,	-16289	,	-14183	,	14.581463	,	14
39,59	,	88843	,	-16288	,	-14193	,	9.914859	,	8
39,59	,	88858	,	-16298	,	-14172	,	5.7187233	,	4
39,59	,	88891	,	-16311	,	-14189	,	2.0379405	,	1
39,59	,	88907	,	-16315	,	-14191	,	-1.3310676	,	0
39,59	,	88923	,	-16309	,	-14189	,	-4.5165954	,	0
39,59	,	88955	,	-16318	,	-14194	,	-7.372136	,	0
39,59	,	88971	,	-16323	,	-14190	,	-9.703734	,	0
39,59	,	88986	,	-16329	,	-14197	,	-11.492773	,	0
39,59	,	89018	,	-16325	,	-14203	,	-12.793621	,	0
39,59	,	89034	,	-16328	,	-14200	,	-13.579778	,	0
39,59	,	89066	,	-16336	,	-14196	,	-13.820907	,	0
39,59	,	89083	,	-16350	,	-14212	,	-13.682453	,	0
39,59	,	89099	,	-16361	,	-14204	,	-13.554057	,	0
39,59	,	89130	,	-16375	,	-14215	,	-13.874252	,	0
39,59	,	89146	,	-16374	,	-14213	,	-14.893602	,	0
39,59	,	89162	,	-16379	,	-14211	,	-16.502823	,	0
39,59	,	89194	,	-16373	,	-14217	,	-18.26859	,	0
39,59	,	89210	,	-16384	,	-14221	,	-19.678074	,	0
39,59	,	89243	,	-16383	,	-14215	,	-20.406155	,	0
39,59	,	89259	,	-16386	,	-14226	,	-20.366697	,	0
39,59	,	89275	,	-16394	,	-14223	,	-19.635775	,	0
40,0	,	89306	,	-16398	,	-14222	,	-18.439285	,	0
40,0	,	89322	,	-16386	,	-14226	,	-16.997585	,	1
40,0	,	89338	,	-16371	,	-14210	,	-15.236037	,	2
40,0	,	89370	,	-16349	,	-14209	,	-12.728862	,	3
40,0	,	89386	,	-16317	,	-14196	,	-8.871104	,	5
40,0	,	89402	,	-16321	,	-14193	,	-3.2405338	,	8
40,0	,	89435	,	-16316	,	-14187	,	3.8990564	,	13
40,0	,	89451	,	-16303	,	-14191	,	11.633902	,	20
40,0	,	89483	,	-16297	,	-14185	,	19.000595	,	27
40,0	,	89499	,	-16283	,	-14182	,	25.334381	,	34
40,0	,	89514	,	-16277	,	-14179	,	30.283697	,	39
40,0	,	89546	,	-16276	,	-14178	,	33.70202	,	42
40,0	,	89562	,	-16277	,	-14175	,	35.480713	,	44
40,0	,	89578	,	-16283	,	-14172	,	35.500786	,	43
40,0	,	89610	,	-16284	,	-14183	,	33.71245	,	40
40,0	,	89627	,	-16288	,	-14177	,	30.24751	,	35
40,0	,	89658	,	-16281	,	-14171	,	25.501297	,	28
40,0	,	89674	,	-16289	,	-14174	,	20.069778	,	21
40,0	,	89690	,	-16293	,	-14171	,	14.5045395	,	14
40,0	,	89722	,	-16302	,	-14175	,	9.132661	,	8
40,0	,	89738	,	-16297	,	-14177	,	4.1479034	,	4
40,0	,	89754	,	-16299	,	-14173	,	-0.21563292	,	1
40,0	,	89786	,	-16304	,	-14182	,	-3.723248	,	0
40,0	,	89802	,	-16304	,	-14188	,	-6.290379	,	0
40,0	,	89834	,	-16319	,	-14178	,	-8.030849	,	0
40,0	,	89851	,	-16317	,	-14186	,	-9.214088	,	0
40,0	,	89866	,	-16322	,	-14192	,	-10.093222	,	0
40,0	,	89898	,	-16327	,	-14196	,	-10.789579	,	0
40,0	,	89914	,	-16327	,	-14192	,	-11.346955	,	0
40,0	,	89930	,	-16349	,	-14196	,	-11.833321	,	0
40,0	,	89962	,	-16353	,	-14200	,	-12.460622	,	0
40,0	,	89978	,	-16347	,	-14203	,	-13.40218	,	0
40,0	,	89994	,	-16361	,	-14209	,	-14.53335	,	0
40,0	,	90026	,	-16360	,	-14207	,	-15.622908	,	0
40,0	,	90042	,	-16377	,	-14201	,	-16.576271	,	0
40,0	,	90074	,	-16366	,	-14212	,	-17.370562	,	0
40,0	,	90090	,	-16378	,	-14210	,	-17.907845	,	0
40,0	,	90106	,	-16387	,	-14220	,	-18.116253	,	0
40,0	,	90138	,	-16384	,	-14206	,	-18.074472	,	0
40,0	,	90154	,	-16366	,	-14208	,	-17.732225	,	0
40,0	,	90170	,	-16352	,	-14194	,	-16.670517	,	0
40,0	,	90202	,	-16335	,	-14184	,	-14.319025	,	1
40,0	,	90218	,	-16326	,	-14189	,	-10.321843	,	3
40,0	,	90250	,	-16324	,	-14183	,	-4.789046	,	6
40,0	,	90266	,	-16309	,	-14181	,	1.7176552	,	11
40,0	,	90282	,	-16313	,	-14173	,	8.450056	,	17
40,1	,	90314	,	-16304	,	-14182	,	14.66577	,	23
40,1	,	90330	,	-16294	,	-14170	,	19.788647	,	29
40,1	,	90346	,	-16297	,	-14168	,	23.536037	,	34
40,1	,	90378	,	-16300	,	-14176	,	25.761738	,	37
40,1	,	90394	,	-16303	,	-14176	,	26.324713	,	38
40,1	,	90410	,	-16312	,	-14177	,	25.169544	,	36
40,1	,	90442	,	-16311	,	-14175	,	22.404387	,	33
40,1	,	90458	,	-16305	,	-14179	,	18.398886	,	28
40,1	,	90490	,	-16313	,	-14184	,	13.763266	,	22
40,1	,	90506	,	-16312	,	-14179	,	9.082694	,	16
40,1	,	90522	,	-16305	,	-14181	,	4.7985697	,	10
40,1	,	90554	,	-16320	,	-14192	,	1.2272549	,	5
40,1	,	90570	,	-16317	,	-14177	,	-1.551836	,	2
40,1	,	90586	,	-16326	,	-14191	,	-3.6673663	,	0
40,1	,	90618	,	-16331	,	-14190	,	-5.3098726	,	0
40,1	,	90634	,	-16335	,	-14188	,	-6.6770062	,	0
40,1	,	90666	,	-16345	,	-14202	,	-7.935699	,	0
40,1	,	90682	,	-16344	,	-14202	,	-9.192836	,	0
40,1	,	90698	,	-16350	,	-14200	,	-10.44628	,	0
40,1	,	90730	,	-16358	,	-14205	,	-11.624563	,	0
40,1	,	90746	,	-16353	,	-14202	,	-12.662389	,	0
40,1	,	90762	,	-16361	,	-14210	,	-13.45335	,	0
40,1	,	90794	,	-16359	,	-14217	,	-13.880945	,	0
40,1	,	90810	,	-16379	,	-14201	,	-13.973446	,	0
40,1	,	90826	,	-16377	,	-14216	,	-13.9533615	,	0
40,1	,	90858	,	-16383	,	-14217	,	-14.036343	,	0
40,1	,	90874	,	-16395	,	-14212	,	-14.292954	,	0
40,1	,	90906	,	-16394	,	-14228	,	-14.7432	,	0
40,1	,	90922	,	-16397	,	-14214	,	-15.330147	,	0
40,1	,	90938	,	-16378	,	-14220	,	-15.774695	,	0
40,1	,	90970	,	-16379	,	-14211	,	-15.592512	,	0
40,1	,	90986	,	-16351	,	-14201	,	-14.275343	,	0
40,1	,	91002	,	-16334	,	-14198	,	-11.376351	,	1
40,1	,	91034	,	-16332	,	-14200	,	-6.6624894	,	3
40,1	,	91050	,	-16320	,	-14184	,	-0.42018604	,	7
40,1	,	91082	,	-16309	,	-14174	,	6.64689	,	13
40,1	,	91098	,	-16298	,	-14180	,	13.806037	,	20
40,1	,	91114	,	-16293	,	-14176	,	20.444489	,	27
40,1	,	91146	,	-16299	,	-14176	,	25.992456	,	33
40,1	,	91162	,	-16297	,	-14175	,	29.87799	,	38
40,1	,	91178	,	-16293	,	-14176	,	31.718071	,	41
40,1	,	91210	,	-16290	,	-14181	,	31.526596	,	41
40,1	,	91226	,	-16295	,	-14177	,	29.621132	,	39
40,1	,	91242	,	-16298	,	-14185	,	26.388561	,	35
40,1	,	91274	,	-16293	,	-14184	,	22.229149	,	29
40,1	,	91289	,	-16297	,	-14168	,	17.612116	,	22
40,2	,	91322	,	-16297	,	-14180	,	13.000708	,	15
40,2	,	91338	,	-16300	,	-14184	,	8.733684	,	9
40,2	,	91354	,	-16300	,	-14174	,	5.012473	,	4
40,2	,	91386	,	-16316	,	-14187	,	1.8738551	,	1
40,2	,	91402	,	-16319	,	-14188	,	-0.85566235	,	0
40,2	,	91418	,	-16321	,	-14194	,	-3.3940232	,	0
40,2	,	91449	,	-16327	,	-14187	,	-5.7913795	,	0
40,2	,	91466	,	-16329	,	-14190	,	-7.972027	,	0
40,2	,	91497	,	-16342	,	-14191	,	-9.885498	,	0
40,2	,	91514	,	-16341	,	-14196	,	-11.559694	,	0
40,2	,	91530	,	-16353	,	-14194	,	-13.039779	,	0
40,2	,	91562	,	-16358	,	-14197	,	-14.364037	,	0
40,2	,	91578	,	-16362	,	-14203	,	-15.570755	,	0
40,2	,	91594	,	-16359	,	-14205	,	-16.60069	,	0
40,2	,	91626	,	-16363	,	-14203	,	-17.26152	,	0
40,2	,	91641	,	-16383	,	-14204	,	-17.462177	,	0
40,2	,	91657	,	-16373	,	-14207	,	-17.363115	,	0
40,2	,	91689	,	-16387	,	-14209	,	-17.140545	,	0
40,2	,	91706	,	-16392	,	-14205	,	-16.884403	,	0
40,2	,	91738	,	-16399	,	-14210	,	-16.713985	,	0
40,2	,	91754	,	-16385	,	-14212	,	-16.632988	,	0
40,2	,	91770	,	-16370	,	-14204	,	-16.286407	,	0
40,2	,	91801	,	-16356	,	-14191	,	-15.039627	,	0
40,2	,	91817	,	-16321	,	-14185	,	-12.231447	,	1
40,2	,	91833	,	-16315	,	-14176	,	-7.3777013	,	3
40,2	,	91865	,	-16309	,	-14171	,	-0.5329075	,	7
40,2	,	91882	,	-16299	,	-14168	,	7.545013	,	13
40,2	,	91914	,	-16292	,	-14168	,	15.795155	,	21
40,2	,	91930	,	-16288	,	-14162	,	23.261356	,	29
40,2	,	91945	,	-16275	,	-14159	,	29.258196	,	36
40,2	,	91977	,	-16284	,	-14159	,	33.395985	,	41
40,2	,	91993	,	-16275	,	-14162	,	35.4746	,	45
40,2	,	92009	,	-16273	,	-14163	,	35.5113	,	46
40,2	,	92041	,	-16278	,	-14158	,	33.774918	,	44
40,2	,	92057	,	-16294	,	-14160	,	30.538153	,	40
40,2	,	92089	,	-16268	,	-14165	,	26.070272	,	34
40,2	,	92106	,	-16287	,	-14159	,	20.907001	,	26
40,2	,	92121	,	-16295	,	-14160	,	15.596134	,	18
40,2	,	92153	,	-16288	,	-14163	,	10.399913	,	11
40,2	,	92169	,	-16284	,	-14160	,	5.593444	,	6
40,2	,	92185	,	-16296	,	-14166	,	1.5317707	,	2
40,2	,	92217	,	-16284	,	-14170	,	-1.607408	,	0
40,2	,	92233	,	-16298	,	-14170	,	-3.812021	,	0
40,2	,	92249	,	-16309	,	-14175	,	-5.2570477	,	0
40,2	,	92282	,	-16317	,	-14168	,	-6.3633976	,	0
40,2	,	92298	,	-16314	,	-14181	,	-7.5141716	,	0
40,3	,	92329	,	-16332	,	-14176	,	-8.847342	,	0
40,3	,	92345	,	-16328	,	-14178	,	-10.381791	,	0
40,3	,	92361	,	-16332	,	-14185	,	-12.031483	,	0
40,3	,	92393	,	-16343	,	-14180	,	-13.6018715	,	0
40,3	,	92409	,	-16352	,	-14181	,	-14.999067	,	0
40,3	,	92425	,	-16358	,	-14189	,	-16.281118	,	0
40,3	,	92458	,	-16360	,	-14193	,	-17.480637	,	0
40,3	,	92474	,	-16363	,	-14192	,	-18.501186	,	0
40,3	,	92505	,	-16368	,	-14206	,	-19.186176	,	0
40,3	,	92521	,	-16375	,	-14193	,	-19.458513	,	0
40,3	,	92537	,	-16372	,	-14198	,	-19.336205	,	0
40,3	,	92569	,	-16382	,	-14207	,	-18.851246	,	0
40,3	,	92586	,	-16392	,	-14206	,	-18.112202	,	0
40,3	,	92601	,	-16402	,	-14204	,	-17.39138	,	0
40,3	,	92633	,	-16371	,	-14201	,	-16.82031	,	0
40,3	,	92649	,	-16367	,	-14191	,	-15.9931	,	0
40,3	,	92665	,	-16344	,	-14187	,	-14.181863	,	0
40,3	,	92697	,	-16330	,	-14184	,	-10.818579	,	1
40,3	,	92713	,	-16308	,	-14176	,	-5.6630273	,	4
40,3	,	92745	,	-16304	,	-14181	,	1.136107	,	9
40,3	,	92761	,	-16303	,	-14159	,	8.940155	,	15
40,3	,	92777	,	-16286	,	-14158	,	16.782387	,	22
40,3	,	92809	,	-16279	,	-14160	,	23.8237	,	29
40,3	,	92825	,	-16275	,	-14157	,	29.542595	,	36
40,3	,	92841	,	-16266	,	-14153	,	33.62084	,	41
40,3	,	92873	,	-16278	,	-14154	,	35.86337	,	45
40,3	,	92889	,	-16283	,	-14158	,	36.090317	,	46
40,3	,	92921	,	-16270	,	-14155	,	34.253136	,	43
40,3	,	92937	,	-16281	,	-14157	,	30.69346	,	38
40,3	,	92953	,	-16278	,	-14159	,	25.978642	,	32
40,3	,	92985	,	-16274	,	-14162	,	20.671692	,	25
40,3	,	93001	,	-16277	,	-14151	,	15.339232	,	18
40,3	,	93017	,	-16294	,	-14152	,	10.372345	,	11
40,3	,	93049	,	-16293	,	-14163	,	5.8247375	,	6
40,3	,	93065	,	-16285	,	-14163	,	1.6998167	,	2
40,3	,	93081	,	-16289	,	-14165	,	-1.7826424	,	0
40,3	,	93113	,	-16291	,	-14162	,	-4.379056	,	0
40,3	,	93129	,	-16301	,	-14169	,	-6.0887566	,	0
40,3	,	93161	,	-16312	,	-14172	,	-7.1972485	,	0
40,3	,	93177	,	-16308	,	-14169	,	-8.090049	,	0
40,3	,	93193	,	-16318	,	-14171	,	-8.986537	,	0
40,3	,	93225	,	-16317	,	-14183	,	-9.911816	,	0
40,3	,	93241	,	-16333	,	-14166	,	-10.851692	,	0
40,3	,	93257	,	-16347	,	-14184	,	-11.914173	,	0
40,3	,	93289	,	-16345	,	-14175	,	-13.286973	,	0
40,4	,	93305	,	-16355	,	-14184	,	-14.97431	,	0
40,4	,	93337	,	-16348	,	-14189	,	-16.723663	,	0
40,4	,	93353	,	-16361	,	-14185	,	-18.191324	,	0
40,4	,	93369	,	-16373	,	-14185	,	-19.202124	,	0
40,4	,	93401	,	-16365	,	-14191	,	-19.807547	,	0
40,4	,	93417	,	-16370	,	-14190	,	-20.010647	,	0
40,4	,	93433	,	-16387	,	-14194	,	-19.782936	,	0
40,4	,	93465	,	-16383	,	-14208	,	-19.28226	,	0
40,4	,	93481	,	-16369	,	-14191	,	-18.593048	,	0
40,4	,	93497	,	-16366	,	-14192	,	-17.4531	,	0
40,4	,	93529	,	-16338	,	-14173	,	-15.410071	,	1
40,4	,	93545	,	-16328	,	-14176	,	-12.010496	,	3
40,4	,	93577	,	-16311	,	-14173	,	-7.0006533	,	6
40,4	,	93593	,	-16312	,	-14167	,	-0.5797701	,	11
40,4	,	93609	,	-16296	,	-14160	,	6.6131907	,	17
40,4	,	93641	,	-16298	,	-14166	,	13.771042	,	24
40,4	,	93657	,	-16298	,	-14162	,	20.096905	,	31
40,4	,	93673	,	-16282	,	-14162	,	24.946644	,	37
40,4	,	93705	,	-16283	,	-14155	,	28.056717	,	41
40,4	,	93721	,	-16295	,	-14152	,	29.412415	,	43
40,4	,	93753	,	-16289	,	-14157	,	28.981266	,	42
40,4	,	93769	,	-16291	,	-14164	,	26.866745	,	39
40,4	,	93785	,	-16299	,	-14160	,	23.409603	,	34
40,4	,	93817	,	-16298	,	-14154	,	19.01432	,	28
40,4	,	93833	,	-16292	,	-14161	,	14.144491	,	21
40,4	,	93849	,	-16288	,	-14157	,	9.392485	,	14
40,4	,	93881	,	-16294	,	-14161	,	5.304553	,	8
40,4	,	93897	,	-16302	,	-14161	,	2.1053796	,	4
40,4	,	93929	,	-16302	,	-14160	,	-0.32410145	,	1
40,4	,	93945	,	-16305	,	-14160	,	-2.1959271	,	0
40,4	,	93961	,	-16312	,	-14160	,	-3.6725543	,	0
40,4	,	93993	,	-16324	,	-14159	,	-4.9549637	,	0
40,4	,	94009	,	-16329	,	-14163	,	-6.309442	,	0
40,4	,	94025	,	-16327	,	-14170	,	-7.881934	,	0
40,4	,	94057	,	-16329	,	-14177	,	-9.546645	,	0
40,4	,	94073	,	-16342	,	-14181	,	-11.079288	,	0
40,4	,	94089	,	-16350	,	-14180	,	-12.440288	,	0
40,4	,	94121	,	-16346	,	-14181	,	-13.704325	,	0
40,4	,	94137	,	-16371	,	-14182	,	-14.900709	,	0
40,4	,	94168	,	-16375	,	-14191	,	-16.147993	,	0
40,4	,	94185	,	-16365	,	-14188	,	-17.529928	,	0
40,4	,	94201	,	-16364	,	-14198	,	-18.742655	,	0
40,4	,	94233	,	-16379	,	-14199	,	-19.347284	,	0
40,4	,	94249	,	-16388	,	-14205	,	-19.29589	,	0
40,4	,	94265	,	-16384	,	-14195	,	-18.862097	,	0
40,4	,	94297	,	-16368	,	-14192	,	-18.13533	,	0
40,5	,	94313	,	-16366	,	-14184	,	-16.842384	,	0
40,5	,	94344	,	-16343	,	-14180	,	-14.595476	,	1
40,5	,	94360	,	-16311	,	-14176	,	-10.973188	,	3
40,5	,	94377	,	-16321	,	-14171	,	-5.6544647	,	6
40,5	,	94409	,	-16313	,	-14169	,	1.0754361	,	11
40,5	,	94425	,	-16299	,	-14172	,	8.354595	,	17
40,5	,	94441	,	-16303	,	-14175	,	15.302393	,	24
40,5	,	94473	,	-16298	,	-14152	,	21.187727	,	30
40,5	,	94489	,	-16291	,	-14160	,	25.469439	,	35
40,5	,	94505	,	-16299	,	-14165	,	27.900269	,	39
40,5	,	94536	,	-16292	,	-14156	,	28.448484	,	40
40,5	,	94553	,	-16284	,	-14158	,	27.327236	,	38
40,5	,	94585	,	-16295	,	-14159	,	24.98359	,	35
40,5	,	94601	,	-16284	,	-14157	,	21.860538	,	30
40,5	,	94616	,	-16286	,	-14160	,	18.357864	,	24
40,5	,	94649	,	-16295	,	-14162	,	14.815793	,	17
40,5	,	94664	,	-16299	,	-14158	,	11.349751	,	11
40,5	,	94680	,	-16296	,	-14170	,	7.9554033	,	6
40,5	,	94712	,	-16299	,	-14152	,	4.7320843	,	2
40,5	,	94728	,	-16308	,	-14163	,	1.812881	,	0
40,5	,	94760	,	-16302	,	-14167	,	-0.7547538	,	0
40,5	,	94777	,	-16313	,	-14170	,	-2.9433806	,	0
40,5	,	94793	,	-16314	,	-14168	,	-4.7492785	,	0
40,5	,	94825	,	-16329	,	-14172	,	-6.2807484	,	0
40,5	,	94840	,	-16336	,	-14170	,	-7.7612634	,	0
40,5	,	94856	,	-16332	,	-14167	,	-9.367098	,	0
40,5	,	94888	,	-16340	,	-14172	,	-11.035798	,	0
40,5	,	94904	,	-16333	,	-14177	,	-12.524778	,	0
40,5	,	94920	,	-16355	,	-14187	,	-13.644138	,	0
40,5	,	94952	,	-16348	,	-14178	,	-14.409718	,	0
40,5	,	94969	,	-16367	,	-14191	,	-14.9685955	,	0
40,5	,	95000	,	-16369	,	-14194	,	-15.49196	,	0
40,5	,	95016	,	-16364	,	-14193	,	-16.064686	,	0
40,5	,	95033	,	-16380	,	-14192	,	-16.591965	,	0
40,5	,	95064	,	-16382	,	-14195	,	-16.99335	,	0
40,5	,	95080	,	-16380	,	-14192	,	-17.266598	,	0
40,5	,	95096	,	-16378	,	-14194	,	-17.29017	,	0
40,5	,	95128	,	-16369	,	-14198	,	-16.807642	,	0
40,5	,	95145	,	-16365	,	-14187	,	-15.550767	,	0
40,5	,	95176	,	-16338	,	-14188	,	-13.265623	,	1
40,5	,	95192	,	-16336	,	-14167	,	-9.70973	,	3
40,5	,	95208	,	-16321	,	-14170	,	-4.842546	,	6
40,5	,	95240	,	-16302	,	-14160	,	1.0968666	,	10
40,5	,	95256	,	-16299	,	-14153	,	7.7391405	,	15
40,5	,	95272	,	-16279	,	-14160	,	14.618638	,	21
40,6	,	95304	,	-16271	,	-14153	,	21.246634	,	27
40,6	,	95320	,	-16269	,	-14150	,	27.172813	,	33
40,6	,	95336	,	-16277	,	-14146	,	31.853764	,	38
40,6	,	95368	,	-16257	,	-14150	,	34.767315	,	41
40,6	,	95384	,	-16269	,	-14148	,	35.732716	,	41
40,6	,	95416	,	-16265	,	-14160	,	34.850487	,	38
40,6	,	95432	,	-16271	,	-14138	,	32.300865	,	34
40,6	,	95448	,	-16273	,	-14144	,	28.359913	,	29
40,6	,	95480	,	-16253	,	-14145	,	23.515182	,	23
40,6	,	95496	,	-16271	,	-14144	,	18.450554	,	17
40,6	,	95512	,	-16273	,	-14147	,	13.66587	,	11
40,6	,	95544	,	-16274	,	-14145	,	9.293681	,	6
40,6	,	95560	,	-16275	,	-14149	,	5.382271	,	2
40,6	,	95592	,	-16291	,	-14148	,	1.9573526	,	0
40,6	,	95608	,	-16286	,	-14156	,	-1.0834503	,	0
40,6	,	95624	,	-16295	,	-14149	,	-3.827748	,	0
40,6	,	95656	,	-16297	,	-14160	,	-6.256615	,	0
40,6	,	95672	,	-16310	,	-14157	,	-8.373332	,	0
40,6	,	95688	,	-16306	,	-14156	,	-10.23615	,	0
40,6	,	95720	,	-16321	,	-14168	,	-11.876212	,	0
40,6	,	95736	,	-16325	,	-14163	,	-13.329022	,	0
40,6	,	95768	,	-16325	,	-14175	,	-14.627342	,	0
40,6	,	95784	,	-16328	,	-14170	,	-15.684319	,	0
40,6	,	95800	,	-16343	,	-14175	,	-16.400902	,	0
40,6	,	95832	,	-16341	,	-14171	,	-16.835815	,	0
40,6	,	95848	,	-16342	,	-14173	,	-17.06019	,	0
40,6	,	95864	,	-16344	,	-14179	,	-17.008347	,	0
40,6	,	95896	,	-16364	,	-14184	,	-16.668173	,	0
40,6	,	95913	,	-16361	,	-14181	,	-16.246185	,	0
40,6	,	95928	,	-16376	,	-14186	,	-15.998868	,	0
40,6	,	95960	,	-16361	,	-14188	,	-15.995455	,	0
40,6	,	95976	,	-16355	,	-14179	,	-15.97135	,	0
40,6	,	96008	,	-16339	,	-14174	,	-15.373386	,	0
40,6	,	96024	,	-16314	,	-14170	,	-13.561949	,	0
40,6	,	96040	,	-16298	,	-14163	,	-9.976507	,	1
40,6	,	96072	,	-16290	,	-14154	,	-4.4192877	,	4
40,6	,	96088	,	-16292	,	-14152	,	2.655138	,	9
40,6	,	96104	,	-16282	,	-14151	,	10.267864	,	16
40,6	,	96136	,	-16270	,	-14149	,	17.421581	,	23
40,6	,	96152	,	-16271	,	-14154	,	23.43552	,	30
40,6	,	96184	,	-16258	,	-14134	,	27.915638	,	36
40,6	,	96200	,	-16252	,	-14139	,	30.745453	,	40
40,6	,	96216	,	-16257	,	-14138	,	32.021374	,	42
40,6	,	96248	,	-16265	,	-14141	,	31.781574	,	42
40,6	,	96264	,	-16253	,	-14140	,	30.016672	,	39
40,6	,	96280	,	-16258	,	-14135	,	26.958565	,	34
40,7	,	96312	,	-16258	,	-14136	,	23.04559	,	27
40,7	,	96328	,	-16256	,	-14135	,	18.705166	,	20
40,7	,	96344	,	-16265	,	-14141	,	14.293016	,	13
40,7	,	96376	,	-16255	,	-14134	,	10.0899105	,	7
40,7	,	96392	,	-16266	,	-14142	,	6.325181	,	3
40,7	,	96424	,	-16271	,	-14129	,	3.103191	,	1
40,7	,	96440	,	-16276	,	-14138	,	0.34044743	,	0
40,7	,	96456	,	-16283	,	-14145	,	-2.1139216	,	0
40,7	,	96488	,	-16285	,	-14144	,	-4.3738728	,	0
40,7	,	96504	,	-16290	,	-14151	,	-6.4706273	,	0
40,7	,	96520	,	-16295	,	-14149	,	-8.363937	,	0
40,7	,	96552	,	-16301	,	-14150	,	-10.02347	,	0
40,7	,	96568	,	-16297	,	-14142	,	-11.418583	,	0
40,7	,	96600	,	-16313	,	-14155	,	-12.501463	,	0
40,7	,	96616	,	-16314	,	-14154	,	-13.317133	,	0
40,7	,	96632	,	-16314	,	-14164	,	-13.955833	,	0
40,7	,	96664	,	-16321	,	-14146	,	-14.406042	,	0
40,7	,	96680	,	-16330	,	-14156	,	-14.660122	,	0
40,7	,	96696	,	-16339	,	-14168	,	-14.849783	,	0
40,7	,	96728	,	-16333	,	-14165	,	-15.107506	,	0
40,7	,	96744	,	-16345	,	-14166	,	-15.397472	,	0
40,7	,	96760	,	-16347	,	-14165	,	-15.628883	,	0
40,7	,	96792	,	-16346	,	-14172	,	-15.755574	,	0
40,7	,	96808	,	-16343	,	-14165	,	-15.65568	,	0
40,7	,	96840	,	-16324	,	-14156	,	-15.039562	,	0
40,7	,	96856	,	-16307	,	-14148	,	-13.44412	,	0
40,7	,	96872	,	-16297	,	-14160	,	-10.412682	,	1
40,7	,	96904	,	-16292	,	-14141	,	-5.847448	,	4
40,7	,	96919	,	-16261	,	-14137	,	-0.02259016	,	8
40,7	,	96935	,	-16270	,	-14136	,	6.6607685	,	13
40,7	,	96968	,	-16267	,	-14130	,	13.562912	,	19
40,7	,	96984	,	-16264	,	-14133	,	19.768654	,	25
40,7	,	97016	,	-16262	,	-14136	,	24.495085	,	31
40,7	,	97032	,	-16266	,	-14131	,	27.314335	,	35
40,7	,	97048	,	-16275	,	-14133	,	28.042877	,	37
40,7	,	97080	,	-16270	,	-14133	,	26.696024	,	36
40,7	,	97095	,	-16267	,	-14133	,	23.610617	,	33
40,7	,	97111	,	-16271	,	-14138	,	19.417332	,	29
40,7	,	97144	,	-16267	,	-14122	,	14.785096	,	24
40,7	,	97160	,	-16274	,	-14130	,	10.248793	,	18
40,7	,	97176	,	-16269	,	-14137	,	6.1711035	,	12
40,7	,	97208	,	-16283	,	-14137	,	2.7223816	,	6
40,7	,	97224	,	-16288	,	-14138	,	-0.1526866	,	2
40,7	,	97255	,	-16289	,	-14142	,	-2.6359234	,	0
40,7	,	97272	,	-16282	,	-14135	,	-4.7745204	,	0
40,7	,	97287	,	-16288	,	-14137	,	-6.4191155	,	0
40,8	,	97320	,	-16291	,	-14139	,	-7.4594874	,	0
40,8	,	97336	,	-16305	,	-14144	,	-8.023066	,	0
40,8	,	97352	,	-16306	,	-14149	,	-8.4247265	,	0
40,8	,	97384	,	-16322	,	-14146	,	-8.988342	,	0
40,8	,	97400	,	-16316	,	-14154	,	-9.905481	,	0
40,8	,	97431	,	-16322	,	-14154	,	-11.124296	,	0
40,8	,	97447	,	-16325	,	-14159	,	-12.401031	,	0
40,8	,	97463	,	-16328	,	-14152	,	-13.504881	,	0
40,8	,	97496	,	-16325	,	-14157	,	-14.264369	,	0
40,8	,	97512	,	-16344	,	-14164	,	-14.594785	,	0
40,8	,	97528	,	-16337	,	-14162	,	-14.597024	,	0
40,8	,	97560	,	-16341	,	-14166	,	-14.4057865	,	0
40,8	,	97576	,	-16340	,	-14159	,	-14.017086	,	0
40,8	,	97607	,	-16321	,	-14156	,	-13.278109	,	0
40,8	,	97623	,	-16302	,	-14145	,	-11.798091	,	0
40,8	,	97639	,	-16296	,	-14150	,	-9.078514	,	1
40,8	,	97671	,	-16267	,	-14141	,	-4.844235	,	3
40,8	,	97688	,	-16274	,	-14132	,	0.82834244	,	7
40,8	,	97704	,	-16265	,	-14131	,	7.4190993	,	12
40,8	,	97736	,	-16259	,	-14129	,	14.073758	,	18
40,8	,	97751	,	-16256	,	-14127	,	19.98877	,	24
40,8	,	97767	,	-16252	,	-14128	,	24.591442	,	29
40,8	,	97799	,	-16253	,	-14127	,	27.531868	,	33
40,8	,	97815	,	-16256	,	-14128	,	28.652481	,	35
40,8	,	97847	,	-16256	,	-14134	,	27.959745	,	35
40,8	,	97863	,	-16254	,	-14129	,	25.666576	,	33
40,8	,	97879	,	-16260	,	-14128	,	22.17632	,	29
40,8	,	97911	,	-16253	,	-14122	,	17.978706	,	24
40,8	,	97927	,	-16249	,	-14122	,	13.618756	,	18
40,8	,	97943	,	-16258	,	-14125	,	9.598535	,	12
40,8	,	97975	,	-16259	,	-14130	,	6.163907	,	7
40,8	,	97992	,	-16266	,	-14134	,	3.2928047	,	3
40,8	,	98023	,	-16272	,	-14134	,	0.8342471	,	1
40,8	,	98055	,	-16293	,	-14132	,	-3.3050756	,	0
40,8	,	98087	,	-16280	,	-14135	,	-5.2139525	,	0
40,8	,	98103	,	-16282	,	-14144	,	-7.1072664	,	0
40,8	,	98119	,	-16296	,	-14146	,	-8.812639	,	0
40,8	,	98151	,	-16303	,	-14144	,	-10.28921	,	0
40,8	,	98167	,	-16308	,	-14155	,	-11.684065	,	0
40,8	,	98183	,	-16303	,	-14149	,	-13.032604	,	0
40,8	,	98215	,	-16323	,	-14154	,	-14.223309	,	0
40,8	,	98231	,	-16326	,	-14147	,	-15.248943	,	0
40,8	,	98263	,	-16323	,	-14157	,	-16.181995	,	0
40,8	,	98279	,	-16330	,	-14165	,	-16.93824	,	0
40,8	,	98295	,	-16340	,	-14158	,	-17.400356	,	0
40,9	,	98327	,	-16341	,	-14167	,	-17.605545	,	0
40,9	,	98343	,	-16325	,	-14172	,	-17.532928	,	0
40,9	,	98359	,	-16313	,	-14141	,	-16.844048	,	0
40,9	,	98391	,	-16287	,	-14137	,	-14.963833	,	0
40,9	,	98407	,	-16263	,	-14128	,	-11.307407	,	1
40,9	,	98439	,	-16244	,	-14126	,	-5.5064874	,	4
40,9	,	98455	,	-16248	,	-14126	,	2.252421	,	9
40,9	,	98471	,	-16237	,	-14121	,	11.072706	,	16
40,9	,	98503	,	-16241	,	-14118	,	19.688356	,	24
40,9	,	98519	,	-16229	,	-14115	,	26.96288	,	32
40,9	,	98535	,	-16219	,	-14115	,	32.22929	,	39
40,9	,	98567	,	-16212	,	-14110	,	35.374573	,	44
40,9	,	98583	,	-16215	,	-14122	,	36.584515	,	47
40,9	,	98615	,	-16214	,	-14112	,	36.05818	,	47
40,9	,	98631	,	-16216	,	-14117	,	33.983086	,	44
40,9	,	98647	,	-16222	,	-14109	,	30.58988	,	39
40,9	,	98679	,	-16217	,	-14112	,	26.17194	,	32
40,9	,	98695	,	-16222	,	-14119	,	21.123493	,	24
40,9	,	98711	,	-16223	,	-14108	,	15.886715	,	16
40,9	,	98743	,	-16227	,	-14111	,	10.834914	,	9
40,9	,	98759	,	-16225	,	-14115	,	6.2490444	,	4
40,9	,	98775	,	-16225	,	-14113	,	2.3557796	,	1
40,9	,	98807	,	-16228	,	-14117	,	-0.6871915	,	0
40,9	,	98823	,	-16239	,	-14128	,	-2.9010136	,	0
40,9	,	98855	,	-16234	,	-14112	,	-4.484475	,	0
40,9	,	98871	,	-16248	,	-14122	,	-5.660888	,	0
40,9	,	98887	,	-16248	,	-14126	,	-6.6398773	,	0
40,9	,	98919	,	-16266	,	-14128	,	-7.6563826	,	0
40,9	,	98935	,	-16267	,	-14131	,	-8.932539	,	0
40,9	,	98951	,	-16266	,	-14132	,	-10.51959	,	0
40,9	,	98983	,	-16284	,	-14137	,	-12.259401	,	0
40,9	,	98999	,	-16281	,	-14133	,	-13.997977	,	0
40,9	,	99031	,	-16292	,	-14138	,	-15.640259	,	0
40,9	,	99047	,	-16293	,	-14139	,	-17.077879	,	0
40,9	,	99063	,	-16309	,	-14157	,	-18.256634	,	0
40,9	,	99095	,	-16299	,	-14143	,	-19.171696	,	0
40,9	,	99111	,	-16310	,	-14153	,	-19.743046	,	0
40,9	,	99127	,	-16321	,	-14146	,	-19.912043	,	0
40,9	,	99159	,	-16311	,	-14142	,	-19.749506	,	0
40,9	,	99175	,	-16290	,	-14137	,	-19.130018	,	0
40,9	,	99191	,	-16269	,	-14134	,	-17.495033	,	0
40,9	,	99223	,	-16254	,	-14124	,	-14.179103	,	1
40,9	,	99239	,	-16233	,	-14118	,	-8.84561	,	4
40,9	,	99271	,	-16229	,	-14115	,	-1.659853	,	9
40,9	,	99287	,	-16226	,	-14108	,	6.679519	,	16
40,10	,	99303	,	-16219	,	-14119	,	15.101553	,	24
40,10	,	99335	,	-16203	,	-14099	,	22.617188	,	32
40,10	,	99351	,	-16184	,	-14097	,	28.726782	,	39
40,10	,	99367	,	-16192	,	-14101	,	33.33596	,	45
40,10	,	99399	,	-16193	,	-14094	,	36.309853	,	49
40,10	,	99415	,	-16192	,	-14096	,	37.37627	,	50
40,10	,	99447	,	-16188	,	-14101	,	36.45285	,	48
40,10	,	99463	,	-16196	,	-14103	,	33.760574	,	43
40,10	,	99479	,	-16197	,	-14099	,	29.652287	,	36
40,10	,	99511	,	-16195	,	-14097	,	24.552002	,	28
40,10	,	99527	,	-16198	,	-14096	,	18.982758	,	20
40,10	,	99543	,	-16203	,	-14100	,	13.447331	,	13
40,10	,	99575	,	-16207	,	-14095	,	8.280526	,	7
40,10	,	99591	,	-16209	,	-14111	,	3.6641445	,	3
40,10	,	99607	,	-16220	,	-14107	,	-0.321939	,	1
40,10	,	99639	,	-16223	,	-14109	,	-3.7168279	,	0
40,10	,	99655	,	-16230	,	-14102	,	-6.626061	,	0
40,10	,	99687	,	-16233	,	-14108	,	-9.123927	,	0
40,10	,	99703	,	-16235	,	-14109	,	-11.214724	,	0
40,10	,	99720	,	-16240	,	-14110	,	-12.842069	,	0
40,10	,	99751	,	-16245	,	-14115	,	-13.967833	,	0
40,10	,	99766	,	-16257	,	-14120	,	-14.674364	,	0
40,10	,	99783	,	-16249	,	-14127	,	-15.110426	,	0
40,10	,	99815	,	-16264	,	-14114	,	-15.344952	,	0
40,10	,	99831	,	-16282	,	-14128	,	-15.505032	,	0
40,10	,	99862	,	-16289	,	-14126	,	-15.928611	,	0
40,10	,	99879	,	-16279	,	-14134	,	-16.810268	,	0
40,10	,	99894	,	-16291	,	-14138	,	-17.911278	,	0
40,10	,	99926	,	-16297	,	-14131	,	-18.88108	,	0
40,10	,	99942	,	-16305	,	-14142	,	-19.5894	,	0
40,10	,	99958	,	-16304	,	-14140	,	-20.033627	,	0
40,10	,	99991	,	-16312	,	-14143	,	-20.18615	,	0
40,10	,	100007	,	-16302	,	-14143	,	-19.961206	,	0
40,10	,	100023	,	-16299	,	-14141	,	-19.175602	,	0
40,10	,	100055	,	-16293	,	-14133	,	-17.60743	,	0
40,10	,	100070	,	-16267	,	-14127	,	-15.051783	,	1
40,10	,	100102	,	-16242	,	-14122	,	-11.181862	,	3
40,10	,	100118	,	-16224	,	-14118	,	-5.6133156	,	6
40,10	,	100134	,	-16231	,	-14106	,	1.6117516	,	11
40,10	,	100167	,	-16218	,	-14108	,	9.739164	,	18
40,10	,	100182	,	-16220	,	-14105	,	17.653296	,	26
40,10	,	100198	,	-16207	,	-14104	,	24.392496	,	33
40,10	,	100230	,	-16198	,	-14094	,	29.414553	,	39
40,10	,	100246	,	-16204	,	-14100	,	32.55944	,	44
40,10	,	100279	,	-16202	,	-14102	,	33.789978	,	46
40,10	,	100295	,	-16209	,	-14104	,	33.100655	,	45
40,11	,	100311	,	-16208	,	-14095	,	30.61745	,	42
40,11	,	100342	,	-16214	,	-14097	,	26.640387	,	37
40,11	,	100359	,	-16214	,	-14100	,	21.615578	,	30
40,11	,	100375	,	-16211	,	-14094	,	16.08889	,	22
40,11	,	100406	,	-16215	,	-14101	,	10.635205	,	15
40,11	,	100422	,	-16213	,	-14098	,	5.7370243	,	9
40,11	,	100454	,	-16218	,	-14098	,	1.6967306	,	4
40,11	,	100470	,	-16219	,	-14107	,	-1.3833294	,	1
40,11	,	100486	,	-16230	,	-14112	,	-3.602018	,	0
40,11	,	100518	,	-16233	,	-14102	,	-5.224441	,	0
40,11	,	100534	,	-16232	,	-14121	,	-6.5204425	,	0
40,11	,	100550	,	-16244	,	-14099	,	-7.6313634	,	0
40,11	,	100582	,	-16251	,	-14110	,	-8.676531	,	0
40,11	,	100599	,	-16262	,	-14113	,	-9.841258	,	0
40,11	,	100614	,	-16265	,	-14115	,	-11.270622	,	0
40,11	,	100646	,	-16260	,	-14113	,	-12.901659	,	0
40,11	,	100662	,	-16267	,	-14108	,	-14.435263	,	0
40,11	,	100694	,	-16263	,	-14123	,	-15.532942	,	0
40,11	,	100710	,	-16277	,	-14119	,	-16.020622	,	0
40,11	,	100726	,	-16293	,	-14126	,	-16.037373	,	0
40,11	,	100758	,	-16290	,	-14123	,	-15.965446	,	0
40,11	,	100775	,	-16289	,	-14141	,	-16.017067	,	0
40,11	,	100790	,	-16296	,	-14124	,	-16.081991	,	0
40,11	,	100822	,	-16303	,	-14133	,	-16.031929	,	0
40,11	,	100838	,	-16299	,	-14121	,	-15.857526	,	0
40,11	,	100870	,	-16284	,	-14117	,	-15.435236	,	0
40,11	,	100886	,	-16266	,	-14110	,	-14.338517	,	0
40,11	,	100902	,	-16256	,	-14104	,	-12.015626	,	1
40,11	,	100934	,	-16240	,	-14103	,	-8.140007	,	3
40,11	,	100950	,	-16235	,	-14099	,	-2.7853093	,	6
40,11	,	100966	,	-16231	,	-14096	,	3.5629663	,	11
40,11	,	100998	,	-16221	,	-14095	,	10.152681	,	17
40,11	,	101014	,	-16225	,	-14104	,	16.222694	,	23
40,11	,	101030	,	-16222	,	-14088	,	21.117249	,	29
40,11	,	101062	,	-16229	,	-14084	,	24.31648	,	33
40,11	,	101078	,	-16233	,	-14090	,	25.498165	,	36
40,11	,	101110	,	-16234	,	-14088	,	24.605959	,	36
40,11	,	101126	,	-16230	,	-14093	,	21.930298	,	34
40,11	,	101142	,	-16229	,	-14090	,	18.068245	,	31
40,11	,	101174	,	-16225	,	-14098	,	13.731555	,	26
40,11	,	101190	,	-16223	,	-14091	,	9.570765	,	20
40,11	,	101206	,	-16237	,	-14094	,	6.0021324	,	14
40,11	,	101238	,	-16236	,	-14092	,	3.0828943	,	8
40,11	,	101254	,	-16235	,	-14104	,	0.6908636	,	4
40,11	,	101286	,	-16250	,	-14092	,	-1.2886848	,	1
40,12	,	101302	,	-16259	,	-14108	,	-3.080183	,	0
40,12	,	101318	,	-16255	,	-14099	,	-4.9495416	,	0
40,12	,	101350	,	-16261	,	-14105	,	-6.9177213	,	0
40,12	,	101366	,	-16274	,	-14109	,	-8.849939	,	0
40,12	,	101382	,	-16267	,	-14108	,	-10.667733	,	0
40,12	,	101414	,	-16267	,	-14111	,	-12.219202	,	0
40,12	,	101430	,	-16280	,	-14109	,	-13.289444	,	0
40,12	,	101446	,	-16274	,	-14115	,	-13.832567	,	0
40,12	,	101478	,	-16283	,	-14120	,	-13.92543	,	0
40,12	,	101494	,	-16292	,	-14127	,	-13.701234	,	0
40,12	,	101526	,	-16299	,	-14116	,	-13.41161	,	0
40,12	,	101542	,	-16304	,	-14122	,	-13.311793	,	0
40,12	,	101558	,	-16322	,	-14130	,	-13.577303	,	0
40,12	,	101590	,	-16324	,	-14126	,	-14.352409	,	0
40,12	,	101606	,	-16311	,	-14122	,	-15.554092	,	0
40,12	,	101622	,	-16298	,	-14119	,	-16.620539	,	0
40,12	,	101654	,	-16281	,	-14113	,	-16.694998	,	0
40,12	,	101670	,	-16270	,	-14111	,	-15.05088	,	0
40,12	,	101702	,	-16261	,	-14103	,	-11.400292	,	1
40,12	,	101718	,	-16255	,	-14103	,	-5.9938984	,	4
40,12	,	101734	,	-16232	,	-14107	,	0.5916767	,	9
40,12	,	101766	,	-16245	,	-14100	,	7.6847587	,	15
40,12	,	101782	,	-16239	,	-14092	,	14.452512	,	22
40,12	,	101798	,	-16228	,	-14096	,	20.059168	,	28
40,12	,	101830	,	-16228	,	-14092	,	24.056013	,	33
40,12	,	101846	,	-16236	,	-14092	,	26.304024	,	36
40,12	,	101878	,	-16233	,	-14096	,	26.729706	,	38
40,12	,	101894	,	-16235	,	-14098	,	25.405552	,	37
40,12	,	101910	,	-16234	,	-14099	,	22.644949	,	34
40,12	,	101942	,	-16238	,	-14096	,	18.905907	,	29
40,12	,	101958	,	-16232	,	-14097	,	14.688012	,	23
40,12	,	101974	,	-16234	,	-14096	,	10.485992	,	16
40,12	,	102006	,	-16237	,	-14097	,	6.688142	,	10
40,12	,	102022	,	-16240	,	-14095	,	3.4811873	,	5
40,12	,	102038	,	-16245	,	-14103	,	0.87235785	,	2
40,12	,	102070	,	-16253	,	-14094	,	-1.2630084	,	0
40,12	,	102086	,	-16254	,	-14100	,	-3.1113644	,	0
40,12	,	102118	,	-16265	,	-14100	,	-4.827708	,	0
40,12	,	102134	,	-16269	,	-14105	,	-6.5290914	,	0
40,12	,	102150	,	-16277	,	-14110	,	-8.294173	,	0
40,12	,	102182	,	-16272	,	-14109	,	-10.081137	,	0
40,12	,	102198	,	-16295	,	-14115	,	-11.775353	,	0
40,12	,	102214	,	-16288	,	-14121	,	-13.356073	,	0
40,12	,	102245	,	-16288	,	-14124	,	-14.773466	,	0
40,12	,	102261	,	-16303	,	-14124	,	-15.852167	,	0
40,12	,	102294	,	-16306	,	-14126	,	-16.553295	,	0
40,13	,	102310	,	-16305	,	-14125	,	-16.975937	,	0
40,13	,	102326	,	-16306	,	-14129	,	-17.10562	,	0
40,13	,	102358	,	-16314	,	-14130	,	-16.864326	,	0
40,13	,	102374	,	-16319	,	-14133	,	-16.305641	,	0
40,13	,	102390	,	-16323	,	-14123	,	-15.604484	,	0
40,13	,	102422	,	-16316	,	-14126	,	-14.866283	,	0
40,13	,	102438	,	-16301	,	-14104	,	-13.936339	,	0
40,13	,	102454	,	-16277	,	-14118	,	-12.339498	,	0
40,13	,	102485	,	-16277	,	-14116	,	-9.523995	,	1
40,13	,	102502	,	-16259	,	-14097	,	-5.275936	,	3
40,13	,	102533	,	-16239	,	-14095	,	0.25307512	,	7
40,13	,	102550	,	-16233	,	-14097	,	6.7603106	,	12
40,13	,	102566	,	-16227	,	-14091	,	13.737851	,	18
40,13	,	102598	,	-16218	,	-14089	,	20.469543	,	24
40,13	,	102614	,	-16214	,	-14082	,	26.27461	,	30
40,13	,	102630	,	-16216	,	-14082	,	30.62763	,	35
40,13	,	102662	,	-16210	,	-14074	,	33.169094	,	39
40,13	,	102678	,	-16207	,	-14085	,	33.80771	,	40
40,13	,	102710	,	-16208	,	-14086	,	32.733044	,	38
40,13	,	102725	,	-16212	,	-14090	,	30.240248	,	34
40,13	,	102741	,	-16204	,	-14078	,	26.65591	,	29
40,13	,	102773	,	-16207	,	-14078	,	22.408276	,	23
40,13	,	102789	,	-16213	,	-14081	,	17.93073	,	17
40,13	,	102806	,	-16222	,	-14085	,	13.461403	,	11
40,13	,	102838	,	-16219	,	-14079	,	9.084761	,	6
40,13	,	102854	,	-16215	,	-14080	,	4.966072	,	2
40,13	,	102870	,	-16214	,	-14084	,	1.41646	,	0
40,13	,	102902	,	-16231	,	-14091	,	-1.3625393	,	0
40,13	,	102918	,	-16238	,	-14089	,	-3.5290084	,	0
40,13	,	102949	,	-16242	,	-14088	,	-5.4423294	,	0
40,13	,	102965	,	-16251	,	-14105	,	-7.344512	,	0
40,13	,	102982	,	-16259	,	-14094	,	-9.326414	,	0
40,13	,	103014	,	-16251	,	-14100	,	-11.345106	,	0
40,13	,	103030	,	-16260	,	-14101	,	-13.164044	,	0
40,13	,	103045	,	-16277	,	-14109	,	-14.59693	,	0
40,13	,	103077	,	-16269	,	-14108	,	-15.704037	,	0
40,13	,	103093	,	-16278	,	-14110	,	-16.535427	,	0
40,13	,	103125	,	-16279	,	-14107	,	-17.01854	,	0
40,13	,	103141	,	-16296	,	-14111	,	-17.173193	,	0
40,13	,	103157	,	-16289	,	-14110	,	-17.152275	,	0
40,13	,	103190	,	-16304	,	-14119	,	-17.07912	,	0
40,13	,	103206	,	-16298	,	-14127	,	-16.980782	,	0
40,13	,	103221	,	-16307	,	-14115	,	-16.8112	,	0
40,13	,	103253	,	-16321	,	-14129	,	-16.568787	,	0
40,13	,	103269	,	-16310	,	-14125	,	-16.350338	,	0
40,13	,	103285	,	-16312	,	-14123	,	-16.105263	,	0
40,14	,	103317	,	-16288	,	-14109	,	-15.48028	,	0
40,14	,	103333	,	-16275	,	-14104	,	-13.919859	,	0
40,14	,	103365	,	-16264	,	-14098	,	-10.919704	,	1
40,14	,	103381	,	-16248	,	-14102	,	-6.3205004	,	4
40,14	,	103397	,	-16246	,	-14093	,	-0.37715816	,	8
40,14	,	103429	,	-16229	,	-14088	,	6.3518863	,	13
40,14	,	103445	,	-16226	,	-14097	,	13.20303	,	19
40,14	,	103461	,	-16219	,	-14078	,	19.54466	,	25
40,14	,	103493	,	-16207	,	-14079	,	24.851229	,	31
40,14	,	103509	,	-16197	,	-14076	,	28.856483	,	36
40,14	,	103541	,	-16199	,	-14079	,	31.52714	,	40
40,14	,	103557	,	-16204	,	-14075	,	32.810013	,	41
40,14	,	103573	,	-16210	,	-14077	,	32.52853	,	39
40,14	,	103605	,	-16203	,	-14074	,	30.587399	,	35
40,14	,	103621	,	-16202	,	-14075	,	27.228615	,	30
40,14	,	103637	,	-16208	,	-14081	,	22.957611	,	24
40,14	,	103669	,	-16219	,	-14082	,	18.20416	,	18
40,14	,	103685	,	-16210	,	-14084	,	13.232495	,	12
40,14	,	103701	,	-16209	,	-14074	,	8.380099	,	7
40,14	,	103733	,	-16220	,	-14081	,	4.048216	,	3
40,14	,	103749	,	-16226	,	-14087	,	0.39576197	,	1
40,14	,	103781	,	-16231	,	-14086	,	-2.6866815	,	0
40,14	,	103797	,	-16233	,	-14090	,	-5.3315387	,	0
40,14	,	103813	,	-16249	,	-14085	,	-7.627372	,	0
40,14	,	103845	,	-16249	,	-14091	,	-9.705506	,	0
40,14	,	103861	,	-16252	,	-14095	,	-11.644702	,	0
40,14	,	103877	,	-16255	,	-14092	,	-13.347789	,	0
40,14	,	103909	,	-16257	,	-14096	,	-14.646691	,	0
40,14	,	103925	,	-16267	,	-14098	,	-15.45768	,	0
40,14	,	103957	,	-16267	,	-14102	,	-15.8270445	,	0
40,14	,	103973	,	-16279	,	-14098	,	-15.885108	,	0
40,14	,	103989	,	-16284	,	-14102	,	-15.813693	,	0
40,14	,	104021	,	-16303	,	-14105	,	-15.862493	,	0
40,14	,	104037	,	-16299	,	-14110	,	-16.26772	,	0
40,14	,	104053	,	-16296	,	-14115	,	-17.002861	,	0
40,14	,	104085	,	-16311	,	-14116	,	-17.77352	,	0
40,14	,	104101	,	-16319	,	-14122	,	-18.400944	,	0
40,14	,	104133	,	-16317	,	-14123	,	-18.907694	,	0
40,14	,	104149	,	-16322	,	-14124	,	-19.254824	,	0
40,14	,	104165	,	-16326	,	-14125	,	-19.325266	,	0
40,14	,	104197	,	-16328	,	-14122	,	-19.058582	,	0
40,14	,	104213	,	-16324	,	-14117	,	-18.42085	,	0
40,14	,	104229	,	-16288	,	-14106	,	-17.16668	,	0
40,14	,	104261	,	-16271	,	-14101	,	-14.667498	,	1
40,14	,	104277	,	-16267	,	-14093	,	-10.333364	,	3
40,14	,	104293	,	-16260	,	-14097	,	-4.2344627	,	7
40,15	,	104325	,	-16249	,	-14092	,	2.9467654	,	13
40,15	,	104341	,	-16246	,	-14091	,	10.355613	,	20
40,15	,	104373	,	-16233	,	-14081	,	17.226463	,	27
40,15	,	104389	,	-16236	,	-14081	,	22.974339	,	33
40,15	,	104405	,	-16230	,	-14080	,	27.18033	,	38
40,15	,	104437	,	-16231	,	-14088	,	29.589886	,	42
40,15	,	104453	,	-16227	,	-14079	,	30.17255	,	43
40,15	,	104469	,	-16233	,	-14092	,	29.087326	,	41
40,15	,	104501	,	-16237	,	-14086	,	26.559464	,	37
40,15	,	104517	,	-16234	,	-14084	,	22.864677	,	31
40,15	,	104549	,	-16240	,	-14083	,	18.396463	,	24
40,15	,	104565	,	-16235	,	-14086	,	13.624458	,	17
40,15	,	104581	,	-16235	,	-14080	,	9.019075	,	11
40,15	,	104613	,	-16230	,	-14086	,	5.012286	,	6
40,15	,	104629	,	-16232	,	-14084	,	1.9175749	,	2
40,15	,	104645	,	-16247	,	-14085	,	-0.22271109	,	0
40,15	,	104677	,	-16250	,	-14097	,	-1.7127967	,	0
40,15	,	104693	,	-16257	,	-14086	,	-2.9846935	,	0
40,15	,	104709	,	-16264	,	-14099	,	-4.346698	,	0
40,15	,	104741	,	-16258	,	-14102	,	-5.898591	,	0
40,15	,	104757	,	-16278	,	-14101	,	-7.5660114	,	0
40,15	,	104789	,	-16278	,	-14096	,	-9.296556	,	0
40,15	,	104805	,	-16276	,	-14097	,	-11.054647	,	0
40,15	,	104821	,	-16284	,	-14106	,	-12.662052	,	0
40,15	,	104853	,	-16294	,	-14104	,	-13.963178	,	0
40,15	,	104869	,	-16295	,	-14103	,	-14.976307	,	0
40,15	,	104885	,	-16304	,	-14102	,	-15.7666	,	0
40,15	,	104917	,	-16295	,	-14117	,	-16.312393	,	0
40,15	,	104933	,	-16306	,	-14094	,	-16.493565	,	0
40,15	,	104964	,	-16307	,	-14106	,	-16.245981	,	0
40,15	,	104981	,	-16322	,	-14111	,	-15.707176	,	0
40,15	,	104997	,	-16324	,	-14110	,	-15.152912	,	0
40,15	,	105029	,	-16323	,	-14102	,	-14.778775	,	0
40,15	,	105045	,	-16311	,	-14102	,	-14.486416	,	0
40,15	,	105061	,	-16302	,	-14097	,	-13.87775	,	0
40,15	,	105092	,	-16284	,	-14097	,	-12.431084	,	0
40,15	,	105108	,	-16281	,	-14092	,	-9.735989	,	1
40,15	,	105124	,	-16265	,	-14088	,	-5.7030406	,	3
40,15	,	105157	,	-16262	,	-14094	,	-0.5842967	,	7
40,15	,	105173	,	-16265	,	-14074	,	5.082931	,	12
40,15	,	105205	,	-16255	,	-14078	,	10.571226	,	17
40,15	,	105221	,	-16253	,	-14077	,	15.244127	,	22
40,15	,	105237	,	-16249	,	-14077	,	18.739244	,	26
40,15	,	105269	,	-16252	,	-14076	,	20.894691	,	29
40,15	,	105284	,	-16242	,	-14078	,	21.69896	,	31
40,16	,	105301	,	-16263	,	-14079	,	21.239578	,	30
40,16	,	105333	,	-16257	,	-14077	,	19.564404	,	28
40,16	,	105349	,	-16253	,	-14073	,	16.80739	,	24
40,16	,	105380	,	-16259	,	-14078	,	13.368084	,	19
40,16	,	105397	,	-16251	,	-14082	,	9.740234	,	14
40,16	,	105413	,	-16254	,	-14066	,	6.3506985	,	9
40,16	,	105444	,	-16250	,	-14075	,	3.5185318	,	5
40,16	,	105460	,	-16255	,	-14075	,	1.4004331	,	2
40,16	,	105476	,	-16261	,	-14083	,	-0.0455029	,	0
40,16	,	105508	,	-16263	,	-14082	,	-1.0431783	,	0
40,16	,	105524	,	-16271	,	-14081	,	-1.8741114	,	0
40,16	,	105540	,	-16272	,	-14083	,	-2.7593086	,	0
40,16	,	105573	,	-16284	,	-14088	,	-3.8449512	,	0
40,16	,	105589	,	-16292	,	-14086	,	-5.2558217	,	0
40,16	,	105621	,	-16293	,	-14087	,	-7.057037	,	0
40,16	,	105637	,	-16291	,	-14093	,	-9.097504	,	0
40,16	,	105652	,	-16297	,	-14082	,	-11.038214	,	0
40,16	,	105684	,	-16305	,	-14092	,	-12.61214	,	0
40,16	,	105700	,	-16308	,	-14092	,	-13.762217	,	0
40,16	,	105716	,	-16313	,	-14096	,	-14.542194	,	0
40,16	,	105748	,	-16332	,	-14090	,	-15.086397	,	0
40,16	,	105765	,	-16329	,	-14101	,	-15.626836	,	0
40,16	,	105796	,	-16330	,	-14101	,	-16.266502	,	0
40,16	,	105812	,	-16337	,	-14106	,	-16.86424	,	0
40,16	,	105828	,	-16324	,	-14098	,	-17.185291	,	0
40,16	,	105860	,	-16302	,	-14093	,	-16.832373	,	0
40,16	,	105876	,	-16292	,	-14079	,	-15.196596	,	0
40,16	,	105892	,	-16272	,	-14086	,	-11.789452	,	1
40,16	,	105924	,	-16263	,	-14082	,	-6.525142	,	4
40,16	,	105941	,	-16251	,	-14079	,	0.25450563	,	9
40,16	,	105956	,	-16252	,	-14072	,	7.839623	,	15
40,16	,	105988	,	-16235	,	-14070	,	15.340697	,	22
40,16	,	106004	,	-16238	,	-14068	,	21.97557	,	29
40,16	,	106036	,	-16234	,	-14068	,	27.16222	,	35
40,16	,	106052	,	-16235	,	-14071	,	30.482365	,	40
40,16	,	106068	,	-16236	,	-14069	,	31.735203	,	43
40,16	,	106100	,	-16239	,	-14071	,	30.95592	,	43
40,16	,	106116	,	-16239	,	-14072	,	28.380192	,	40
40,16	,	106132	,	-16251	,	-14073	,	24.377384	,	35
40,16	,	106164	,	-16243	,	-14058	,	19.382141	,	29
40,16	,	106180	,	-16244	,	-14065	,	13.947564	,	22
40,16	,	106212	,	-16245	,	-14072	,	8.703751	,	15
40,16	,	106228	,	-16256	,	-14071	,	4.091565	,	9
40,16	,	106244	,	-16259	,	-14071	,	0.21210718	,	4
40,16	,	106276	,	-16252	,	-14073	,	-2.971696	,	1
40,16	,	106292	,	-16254	,	-14080	,	-5.381878	,	0
40,17	,	106308	,	-16276	,	-14075	,	-6.997047	,	0
40,17	,	106340	,	-16267	,	-14076	,	-8.078871	,	0
40,17	,	106356	,	-16270	,	-14075	,	-8.885986	,	0
40,17	,	106372	,	-16279	,	-14087	,	-9.473444	,	0
40,17	,	106404	,	-16282	,	-14076	,	-9.902784	,	0
40,17	,	106420	,	-16307	,	-14089	,	-10.392104	,	0
40,17	,	106452	,	-16302	,	-14088	,	-11.256936	,	0
40,17	,	106468	,	-16301	,	-14092	,	-12.591913	,	0
40,17	,	106484	,	-16302	,	-14098	,	-14.077703	,	0
40,17	,	106516	,	-16309	,	-14104	,	-15.285326	,	0
40,17	,	106532	,	-16310	,	-14093	,	-15.984425	,	0
40,17	,	106548	,	-16322	,	-14109	,	-16.175293	,	0
40,17	,	106580	,	-16333	,	-14106	,	-16.071404	,	0
40,17	,	106596	,	-16335	,	-14114	,	-15.991585	,	0
40,17	,	106628	,	-16340	,	-14117	,	-16.122238	,	0
40,17	,	106644	,	-16328	,	-14099	,	-16.359562	,	0
40,17	,	106660	,	-16302	,	-14103	,	-16.21101	,	0
40,17	,	106692	,	-16286	,	-14088	,	-14.863001	,	0
40,17	,	106708	,	-16263	,	-14087	,	-11.5812	,	1
40,17	,	106724	,	-16261	,	-14077	,	-6.132197	,	4
40,17	,	106756	,	-16257	,	-14078	,	1.01962	,	9
40,17	,	106772	,	-16243	,	-14077	,	8.907162	,	16
40,17	,	106788	,	-16236	,	-14078	,	16.558935	,	23
40,17	,	106820	,	-16239	,	-14073	,	23.213907	,	30
40,17	,	106836	,	-16227	,	-14065	,	28.280722	,	36
40,17	,	106868	,	-16222	,	-14081	,	31.466291	,	41
40,17	,	106884	,	-16227	,	-14061	,	32.793312	,	44
40,17	,	106900	,	-16226	,	-14078	,	32.375896	,	44
40,17	,	106932	,	-16234	,	-14086	,	30.339893	,	41
40,17	,	106948	,	-16234	,	-14082	,	26.888874	,	36
40,17	,	106964	,	-16233	,	-14085	,	22.370792	,	29
40,17	,	106996	,	-16246	,	-14091	,	17.23077	,	22
40,17	,	107012	,	-16247	,	-14091	,	11.8322525	,	15
40,17	,	107044	,	-16235	,	-14099	,	6.526169	,	9
40,17	,	107060	,	-16244	,	-14096	,	1.7993345	,	4
40,17	,	107076	,	-16247	,	-14100	,	-1.9639359	,	1
40,17	,	107108	,	-16245	,	-14110	,	-4.6708975	,	0
40,17	,	107124	,	-16257	,	-14101	,	-6.4187	,	0
40,17	,	107140	,	-16251	,	-14105	,	-7.4161634	,	0
40,17	,	107172	,	-16266	,	-14103	,	-7.9206853	,	0
40,17	,	107188	,	-16271	,	-14120	,	-8.232461	,	0
40,17	,	107220	,	-16275	,	-14112	,	-8.662357	,	0
40,17	,	107236	,	-16271	,	-14110	,	-9.3280325	,	0
40,17	,	107252	,	-16292	,	-14123	,	-10.165001	,	0
40,17	,	107284	,	-16285	,	-14118	,	-11.146591	,	0
40,18	,	107300	,	-16296	,	-14119	,	-12.244554	,	0
40,18	,	107316	,	-16293	,	-14125	,	-13.321364	,	0
40,18	,	107348	,	-16300	,	-14133	,	-14.208415	,	0
40,18	,	107364	,	-16307	,	-14128	,	-14.813234	,	0
40,18	,	107380	,	-16317	,	-14127	,	-15.191793	,	0
40,18	,	107412	,	-16324	,	-14133	,	-15.520788	,	0
40,18	,	107428	,	-16330	,	-14138	,	-15.969997	,	0
40,18	,	107460	,	-16332	,	-14131	,	-16.584993	,	0
40,18	,	107476	,	-16335	,	-14138	,	-17.252773	,	0
40,18	,	107492	,	-16323	,	-14132	,	-17.708632	,	0
40,18	,	107524	,	-16314	,	-14126	,	-17.529675	,	0
40,18	,	107540	,	-16295	,	-14121	,	-16.204655	,	0
40,18	,	107555	,	-16282	,	-14113	,	-13.297526	,	1
40,18	,	107588	,	-16260	,	-14114	,	-8.598555	,	3
40,18	,	107604	,	-16251	,	-14109	,	-2.2102718	,	7
40,18	,	107636	,	-16238	,	-14093	,	5.4153366	,	13
40,18	,	107652	,	-16229	,	-14093	,	13.554167	,	20
40,18	,	107668	,	-16223	,	-14089	,	21.393562	,	28
40,18	,	107700	,	-16225	,	-14086	,	28.141819	,	35
40,18	,	107716	,	-16221	,	-14090	,	33.10127	,	41
40,18	,	107731	,	-16218	,	-14087	,	35.840473	,	45
40,18	,	107764	,	-16212	,	-14084	,	36.33389	,	46
40,18	,	107780	,	-16210	,	-14084	,	34.9124	,	44
40,18	,	107795	,	-16211	,	-14088	,	32.06304	,	40
40,18	,	107828	,	-16217	,	-14081	,	28.221972	,	34
40,18	,	107844	,	-16208	,	-14097	,	23.756208	,	27
40,18	,	107876	,	-16214	,	-14072	,	19.066996	,	19
40,18	,	107892	,	-16209	,	-14084	,	14.54629	,	12
40,18	,	107908	,	-16221	,	-14090	,	10.442671	,	6
40,18	,	107939	,	-16224	,	-14086	,	6.795722	,	2
40,18	,	107955	,	-16230	,	-14087	,	3.499175	,	0
40,18	,	107971	,	-16227	,	-14083	,	0.4793911	,	0
40,18	,	108004	,	-16240	,	-14100	,	-2.2431366	,	0
40,18	,	108020	,	-16248	,	-14087	,	-4.6997204	,	0
40,18	,	108052	,	-16254	,	-14101	,	-7.0261965	,	0
40,18	,	108068	,	-16255	,	-14098	,	-9.292915	,	0
40,18	,	108084	,	-16260	,	-14107	,	-11.405155	,	0
40,18	,	108115	,	-16260	,	-14084	,	-13.18493	,	0
40,18	,	108131	,	-16262	,	-14106	,	-14.455167	,	0
40,18	,	108148	,	-16284	,	-14102	,	-15.186693	,	0
40,18	,	108180	,	-16272	,	-14104	,	-15.572527	,	0
40,18	,	108195	,	-16289	,	-14102	,	-15.798789	,	0
40,18	,	108211	,	-16299	,	-14112	,	-15.992598	,	0
40,18	,	108243	,	-16297	,	-14107	,	-16.315865	,	0
40,18	,	108259	,	-16303	,	-14100	,	-16.795	,	0
40,18	,	108291	,	-16309	,	-14118	,	-17.300877	,	0
40,19	,	108307	,	-16308	,	-14109	,	-17.700783	,	0
40,19	,	108323	,	-16322	,	-14125	,	-17.908266	,	0
40,19	,	108355	,	-16308	,	-14103	,	-17.870832	,	0
40,19	,	108372	,	-16273	,	-14101	,	-17.269657	,	0
40,19	,	108388	,	-16253	,	-14090	,	-15.298163	,	0
40,19	,	108420	,	-16247	,	-14086	,	-11.204083	,	1
40,19	,	108435	,	-16242	,	-14082	,	-4.9958925	,	5
40,19	,	108467	,	-16233	,	-14077	,	2.5676641	,	11
40,19	,	108483	,	-16230	,	-14081	,	10.451414	,	18
40,19	,	108499	,	-16224	,	-14077	,	17.693903	,	25
40,19	,	108531	,	-16218	,	-14077	,	23.580322	,	32
40,19	,	108547	,	-16225	,	-14074	,	27.672009	,	37
40,19	,	108563	,	-16221	,	-14078	,	29.716959	,	41
40,19	,	108595	,	-16226	,	-14065	,	29.659178	,	43
40,19	,	108611	,	-16215	,	-14075	,	27.739048	,	42
40,19	,	108643	,	-16223	,	-14068	,	24.467802	,	38
40,19	,	108659	,	-16226	,	-14070	,	20.390331	,	32
40,19	,	108675	,	-16218	,	-14074	,	15.953033	,	25
40,19	,	108707	,	-16221	,	-14072	,	11.602616	,	18
40,19	,	108723	,	-16227	,	-14073	,	7.7024317	,	11
40,19	,	108739	,	-16230	,	-14080	,	4.366012	,	6
40,19	,	108771	,	-16232	,	-14078	,	1.5476174	,	2
40,19	,	108788	,	-16232	,	-14078	,	-0.79392123	,	0
40,19	,	108803	,	-16244	,	-14083	,	-2.7038338	,	0
40,19	,	108835	,	-16240	,	-14072	,	-4.294004	,	0
40,19	,	108851	,	-16260	,	-14086	,	-5.719417	,	0
40,19	,	108883	,	-16262	,	-14080	,	-7.185677	,	0
40,19	,	108899	,	-16261	,	-14087	,	-8.83509	,	0
40,19	,	108915	,	-16262	,	-14082	,	-10.539015	,	0
40,19	,	108947	,	-16271	,	-14091	,	-12.024439	,	0
40,19	,	108963	,	-16283	,	-14093	,	-13.194136	,	0
40,19	,	108979	,	-16275	,	-14096	,	-14.12882	,	0
40,19	,	109011	,	-16283	,	-14101	,	-14.825823	,	0
40,19	,	109027	,	-16300	,	-14091	,	-15.258034	,	0
40,19	,	109059	,	-16291	,	-14104	,	-15.5478525	,	0
40,19	,	109075	,	-16306	,	-14090	,	-15.791646	,	0
40,19	,	109091	,	-16300	,	-14103	,	-15.966869	,	0
40,19	,	109123	,	-16295	,	-14094	,	-15.948666	,	0
40,19	,	109139	,	-16277	,	-14088	,	-15.404108	,	0
40,19	,	109155	,	-16263	,	-14078	,	-13.83453	,	0
40,19	,	109187	,	-16251	,	-14076	,	-10.81656	,	1
40,19	,	109203	,	-16234	,	-14086	,	-6.2074175	,	4
40,19	,	109219	,	-16232	,	-14081	,	-0.2210145	,	8
40,19	,	109251	,	-16228	,	-14070	,	6.5430083	,	13
40,19	,	109267	,	-16231	,	-14068	,	13.192079	,	19
40,19	,	109299	,	-16228	,	-14067	,	18.808954	,	25
40,20	,	109315	,	-16216	,	-14060	,	22.784248	,	30
40,20	,	109331	,	-16210	,	-14061	,	25.024637	,	33
40,20	,	109363	,	-16228	,	-14060	,	25.713114	,	35
40,20	,	109379	,	-16220	,	-14066	,	24.936764	,	34
40,20	,	109395	,	-16221	,	-14062	,	22.800936	,	31
40,20	,	109427	,	-16224	,	-14058	,	19.6278	,	27
40,20	,	109443	,	-16225	,	-14060	,	15.828339	,	22
40,20	,	109475	,	-16213	,	-14061	,	11.847756	,	16
40,20	,	109491	,	-16217	,	-14065	,	8.187741	,	10
40,20	,	109507	,	-16218	,	-14062	,	5.212147	,	5
40,20	,	109539	,	-16226	,	-14063	,	2.9716072	,	2
40,20	,	109555	,	-16233	,	-14068	,	1.2562172	,	0
40,20	,	109571	,	-16241	,	-14072	,	-0.26696777	,	0
40,20	,	109603	,	-16244	,	-14071	,	-1.8976204	,	0
40,20	,	109619	,	-16249	,	-14073	,	-3.7664468	,	0
40,20	,	109635	,	-16257	,	-14072	,	-5.8448215	,	0
40,20	,	109667	,	-16258	,	-14076	,	-8.0262	,	0
40,20	,	109683	,	-16267	,	-14073	,	-10.159434	,	0
40,20	,	109715	,	-16272	,	-14079	,	-12.115753	,	0
40,20	,	109731	,	-16264	,	-14075	,	-13.772695	,	0
40,20	,	109747	,	-16263	,	-14087	,	-14.878094	,	0
40,20	,	109779	,	-16283	,	-14082	,	-15.233641	,	0
40,20	,	109795	,	-16288	,	-14091	,	-15.039183	,	0
40,20	,	109811	,	-16296	,	-14087	,	-14.752209	,	0
40,20	,	109843	,	-16303	,	-14087	,	-14.7200365	,	0
40,20	,	109859	,	-16307	,	-14086	,	-15.07002	,	0
40,20	,	109891	,	-16299	,	-14088	,	-15.679137	,	0
40,20	,	109907	,	-16285	,	-14077	,	-16.109638	,	0
40,20	,	109923	,	-16268	,	-14073	,	-15.69035	,	0
40,20	,	109955	,	-16255	,	-14066	,	-13.779629	,	0
40,20	,	109971	,	-16230	,	-14063	,	-9.988356	,	1
40,20	,	109987	,	-16232	,	-14058	,	-4.3074503	,	4
40,20	,	110019	,	-16218	,	-14056	,	2.7780547	,	9
40,20	,	110035	,	-16211	,	-14066	,	10.43326	,	16
40,20	,	110051	,	-16206	,	-14040	,	17.796722	,	23
40,20	,	110083	,	-16193	,	-14044	,	24.166586	,	30
40,20	,	110099	,	-16185	,	-14047	,	29.127163	,	36
40,20	,	110131	,	-16186	,	-14047	,	32.52494	,	40
40,20	,	110147	,	-16188	,	-14045	,	34.26403	,	43
40,20	,	110163	,	-16187	,	-14045	,	34.255733	,	43
40,20	,	110195	,	-16187	,	-14037	,	32.55401	,	40
40,20	,	110211	,	-16193	,	-14046	,	29.396149	,	35
40,20	,	110243	,	-16192	,	-14043	,	25.123072	,	28
40,20	,	110258	,	-16193	,	-14044	,	20.157572	,	21
40,20	,	110274	,	-16182	,	-14055	,	15.039807	,	14
40,21	,	110307	,	-16190	,	-14034	,	10.344446	,	8
40,21	,	110323	,	-16202	,	-14050	,	6.385309	,	4
40,21	,	110339	,	-16198	,	-14050	,	3.0989394	,	1
40,21	,	110371	,	-16209	,	-14054	,	0.30606985	,	0
40,21	,	110387	,	-16212	,	-14050	,	-2.1414487	,	0
40,21	,	110403	,	-16211	,	-14057	,	-4.348521	,	0
40,21	,	110435	,	-16217	,	-14050	,	-6.3003335	,	0
40,21	,	110450	,	-16221	,	-14050	,	-7.933178	,	0
40,21	,	110483	,	-16229	,	-14061	,	-9.265049	,	0
40,21	,	110499	,	-16227	,	-14060	,	-10.360299	,	0
40,21	,	110515	,	-16239	,	-14060	,	-11.255182	,	0
40,21	,	110547	,	-16245	,	-14061	,	-12.0213785	,	0
40,21	,	110562	,	-16257	,	-14068	,	-12.82473	,	0
40,21	,	110578	,	-16258	,	-14068	,	-13.815376	,	0
40,21	,	110610	,	-16266	,	-14070	,	-14.997133	,	0
40,21	,	110626	,	-16266	,	-14069	,	-16.230442	,	0
40,21	,	110659	,	-16264	,	-14068	,	-17.274193	,	0
40,21	,	110675	,	-16284	,	-14071	,	-17.920069	,	0
40,21	,	110691	,	-16286	,	-14067	,	-18.217371	,	0
40,21	,	110722	,	-16283	,	-14074	,	-18.340302	,	0
40,21	,	110739	,	-16283	,	-14074	,	-18.259388	,	0
40,21	,	110754	,	-16264	,	-14075	,	-17.694735	,	0
40,21	,	110786	,	-16225	,	-14057	,	-16.069496	,	0
40,21	,	110802	,	-16213	,	-14045	,	-12.575112	,	1
40,21	,	110818	,	-16201	,	-14042	,	-6.7537413	,	4
40,21	,	110851	,	-16201	,	-14042	,	1.0120893	,	9
40,21	,	110867	,	-16187	,	-14035	,	9.692848	,	16
40,21	,	110899	,	-16172	,	-14039	,	18.197367	,	24
40,21	,	110915	,	-16170	,	-14034	,	25.736734	,	32
40,21	,	110931	,	-16166	,	-14032	,	31.74313	,	39
40,21	,	110962	,	-16159	,	-14028	,	35.80335	,	45
40,21	,	110978	,	-16164	,	-14019	,	37.743195	,	49
40,21	,	110994	,	-16166	,	-14036	,	37.56506	,	49
40,21	,	111027	,	-16163	,	-14023	,	35.4059	,	46
40,21	,	111043	,	-16169	,	-14023	,	31.606176	,	41
40,21	,	111074	,	-16165	,	-14025	,	26.66516	,	34
40,21	,	111090	,	-16168	,	-14029	,	21.143267	,	26
40,21	,	111106	,	-16173	,	-14031	,	15.559852	,	18
40,21	,	111138	,	-16169	,	-14031	,	10.305383	,	11
40,21	,	111155	,	-16172	,	-14031	,	5.6791096	,	5
40,21	,	111170	,	-16173	,	-14036	,	1.9026685	,	1
40,21	,	111202	,	-16188	,	-14038	,	-1.006383	,	0
40,21	,	111219	,	-16184	,	-14033	,	-3.2616823	,	0
40,21	,	111234	,	-16190	,	-14047	,	-5.08608	,	0
40,21	,	111266	,	-16196	,	-14030	,	-6.592859	,	0
40,21	,	111282	,	-16207	,	-14040	,	-7.915945	,	0
40,22	,	111314	,	-16211	,	-14042	,	-9.2391815	,	0
40,22	,	111330	,	-16219	,	-14044	,	-10.684351	,	0
40,22	,	111346	,	-16222	,	-14047	,	-12.255497	,	0
40,22	,	111378	,	-16220	,	-14053	,	-13.814607	,	0
40,22	,	111394	,	-16223	,	-14044	,	-15.097074	,	0
40,22	,	111411	,	-16240	,	-14047	,	-15.927999	,	0
40,22	,	111442	,	-16234	,	-14049	,	-16.374668	,	0
40,22	,	111458	,	-16236	,	-14063	,	-16.516062	,	0
40,22	,	111490	,	-16252	,	-14068	,	-16.353903	,	0
40,22	,	111506	,	-16257	,	-14051	,	-16.044662	,	0
40,22	,	111522	,	-16270	,	-14060	,	-15.885969	,	0
40,22	,	111554	,	-16270	,	-14061	,	-16.091606	,	0
40,22	,	111570	,	-16281	,	-14073	,	-16.68832	,	0
40,22	,	111586	,	-16268	,	-14060	,	-17.49019	,	0
40,22	,	111618	,	-16242	,	-14061	,	-17.960209	,	0
40,22	,	111634	,	-16227	,	-14044	,	-17.202335	,	0
40,22	,	111650	,	-16217	,	-14048	,	-14.450521	,	0
40,22	,	111682	,	-16205	,	-14043	,	-9.551501	,	2
40,22	,	111698	,	-16189	,	-14039	,	-2.9012918	,	6
40,22	,	111730	,	-16182	,	-14039	,	4.8367805	,	12
40,22	,	111746	,	-16178	,	-14027	,	12.8476	,	19
40,22	,	111762	,	-16156	,	-14023	,	20.324987	,	27
40,22	,	111794	,	-16163	,	-14025	,	26.688293	,	34
40,22	,	111810	,	-16161	,	-14026	,	31.485952	,	40
40,22	,	111826	,	-16160	,	-14029	,	34.306313	,	44
40,22	,	111858	,	-16159	,	-14034	,	34.97143	,	46
40,22	,	111874	,	-16164	,	-14024	,	33.59858	,	44
40,22	,	111906	,	-16160	,	-14021	,	30.499989	,	40
40,22	,	111922	,	-16168	,	-14024	,	26.1215	,	34
40,22	,	111938	,	-16171	,	-14025	,	20.939922	,	27
40,22	,	111970	,	-16171	,	-14023	,	15.396358	,	19
40,22	,	111986	,	-16166	,	-14023	,	9.958857	,	12
40,22	,	112002	,	-16165	,	-14023	,	5.129427	,	6
40,22	,	112034	,	-16170	,	-14024	,	1.2837019	,	2
40,22	,	112050	,	-16179	,	-14022	,	-1.5146351	,	0
40,22	,	112066	,	-16174	,	-14036	,	-3.4608634	,	0
40,22	,	112098	,	-16194	,	-14030	,	-4.8317256	,	0
40,22	,	112114	,	-16185	,	-14032	,	-5.927308	,	0
40,22	,	112146	,	-16190	,	-14040	,	-6.9245152	,	0
40,22	,	112162	,	-16203	,	-14033	,	-7.844124	,	0
40,22	,	112178	,	-16205	,	-14031	,	-8.764803	,	0
40,22	,	112210	,	-16208	,	-14046	,	-9.783613	,	0
40,22	,	112226	,	-16214	,	-14037	,	-10.870911	,	0
40,22	,	112242	,	-16222	,	-14043	,	-11.959152	,	0
40,22	,	112274	,	-16227	,	-14043	,	-13.037084	,	0
40,22	,	112290	,	-16231	,	-14049	,	-14.098433	,	0
40,23	,	112322	,	-16239	,	-14052	,	-15.093618	,	0
40,23	,	112338	,	-16238	,	-14045	,	-15.94943	,	0
40,23	,	112354	,	-16247	,	-14050	,	-16.581379	,	0
40,23	,	112386	,	-16253	,	-14050	,	-16.95682	,	0
40,23	,	112402	,	-16254	,	-14058	,	-17.125423	,	0
40,23	,	112418	,	-16253	,	-14055	,	-17.093615	,	0
40,23	,	112450	,	-16251	,	-14060	,	-16.744328	,	0
40,23	,	112466	,	-16238	,	-14049	,	-15.863823	,	0
40,23	,	112482	,	-16212	,	-14038	,	-14.084591	,	0
40,23	,	112514	,	-16197	,	-14030	,	-10.891788	,	1
40,23	,	112530	,	-16185	,	-14026	,	-5.9527636	,	4
40,23	,	112562	,	-16179	,	-14028	,	0.5438075	,	8
40,23	,	112578	,	-16176	,	-14020	,	7.9009304	,	14
40,23	,	112594	,	-16173	,	-14016	,	15.161961	,	21
40,23	,	112626	,	-16171	,	-14019	,	21.400696	,	28
40,23	,	112642	,	-16170	,	-14014	,	25.934738	,	34
40,23	,	112658	,	-16167	,	-14016	,	28.421917	,	38
40,23	,	112690	,	-16186	,	-14010	,	28.780025	,	40
40,23	,	112706	,	-16177	,	-14027	,	27.059616	,	39
40,23	,	112738	,	-16171	,	-14015	,	23.605288	,	36
40,23	,	112754	,	-16173	,	-14020	,	19.140432	,	32
40,23	,	112770	,	-16164	,	-14023	,	14.465877	,	26
40,23	,	112802	,	-16172	,	-14020	,	10.20527	,	19
40,23	,	112818	,	-16176	,	-14020	,	6.666176	,	12
40,23	,	112834	,	-16182	,	-14026	,	3.8065958	,	6
40,23	,	112866	,	-16187	,	-14027	,	1.411478	,	2
40,23	,	112881	,	-16183	,	-14026	,	-0.69346833	,	0
40,23	,	112914	,	-16188	,	-14020	,	-2.5290642	,	0
40,23	,	112930	,	-16201	,	-14023	,	-4.093844	,	0
40,23	,	112946	,	-16194	,	-14034	,	-5.4901605	,	0
40,23	,	112978	,	-16210	,	-14019	,	-6.8058434	,	0
40,23	,	112994	,	-16213	,	-14033	,	-8.113558	,	0
40,23	,	113010	,	-16222	,	-14034	,	-9.522674	,	0
40,23	,	113041	,	-16216	,	-14033	,	-11.026991	,	0
40,23	,	113057	,	-16226	,	-14034	,	-12.444586	,	0
40,23	,	113074	,	-16229	,	-14035	,	-13.599623	,	0
40,23	,	113106	,	-16232	,	-14039	,	-14.43178	,	0
40,23	,	113122	,	-16242	,	-14046	,	-14.954167	,	0
40,23	,	113154	,	-16234	,	-14041	,	-15.203594	,	0
40,23	,	113170	,	-16244	,	-14043	,	-15.1657095	,	0
40,23	,	113186	,	-16259	,	-14060	,	-14.887606	,	0
40,23	,	113217	,	-16262	,	-14044	,	-14.630492	,	0
40,23	,	113233	,	-16246	,	-14047	,	-14.560385	,	0
40,23	,	113249	,	-16236	,	-14037	,	-14.37129	,	0
40,23	,	113282	,	-16208	,	-14028	,	-13.370838	,	0
40,23	,	113298	,	-16205	,	-14025	,	-10.865616	,	1
40,24	,	113329	,	-16199	,	-14021	,	-6.6205554	,	3
40,24	,	113346	,	-16184	,	-14015	,	-0.9946065	,	7
40,24	,	113362	,	-16178	,	-14021	,	5.3907113	,	12
40,24	,	113393	,	-16170	,	-14014	,	11.902859	,	18
40,24	,	113409	,	-16170	,	-14011	,	17.9085	,	24
40,24	,	113425	,	-16164	,	-14021	,	22.816702	,	30
40,24	,	113458	,	-16156	,	-14004	,	26.238075	,	34
40,24	,	113474	,	-16167	,	-14012	,	28.031986	,	37
40,24	,	113490	,	-16170	,	-14013	,	28.123974	,	37
40,24	,	113522	,	-16156	,	-14008	,	26.558859	,	35
40,24	,	113537	,	-16166	,	-14010	,	23.709919	,	31
40,24	,	113569	,	-16161	,	-14011	,	20.091562	,	26
40,24	,	113585	,	-16164	,	-14011	,	16.12584	,	20
40,24	,	113601	,	-16155	,	-14010	,	12.199684	,	14
40,24	,	113633	,	-16170	,	-14011	,	8.645465	,	8
40,24	,	113650	,	-16182	,	-14014	,	5.5100646	,	4
40,24	,	113666	,	-16162	,	-14024	,	2.6457143	,	1
40,24	,	113698	,	-16180	,	-14009	,	0.08491564	,	0
40,24	,	113714	,	-16178	,	-14013	,	-2.0574007	,	0
40,24	,	113745	,	-16193	,	-14014	,	-3.854515	,	0
40,24	,	113761	,	-16200	,	-14028	,	-5.5307593	,	0
40,24	,	113777	,	-16201	,	-14029	,	-7.296672	,	0
40,24	,	113809	,	-16207	,	-14034	,	-9.177586	,	0
40,24	,	113825	,	-16213	,	-14026	,	-11.045564	,	0
40,24	,	113841	,	-16209	,	-14028	,	-12.733443	,	0
40,24	,	113873	,	-16223	,	-14035	,	-14.074453	,	0
40,24	,	113889	,	-16223	,	-14033	,	-15.006647	,	0
40,24	,	113905	,	-16231	,	-14048	,	-15.586758	,	0
40,24	,	113937	,	-16229	,	-14036	,	-15.873352	,	0
40,24	,	113953	,	-16236	,	-14037	,	-15.883362	,	0
40,24	,	113985	,	-16247	,	-14046	,	-15.684074	,	0
40,24	,	114001	,	-16256	,	-14048	,	-15.485588	,	0
40,24	,	114017	,	-16259	,	-14044	,	-15.522392	,	0
40,24	,	114049	,	-16252	,	-14043	,	-15.803101	,	0
40,24	,	114065	,	-16238	,	-14049	,	-15.97163	,	0
40,24	,	114081	,	-16231	,	-14035	,	-15.436235	,	0
40,24	,	114113	,	-16206	,	-14032	,	-13.6320915	,	0
40,24	,	114129	,	-16186	,	-14027	,	-10.114378	,	1
40,24	,	114161	,	-16178	,	-14022	,	-4.683543	,	4
40,24	,	114177	,	-16167	,	-14016	,	2.360744	,	9
40,24	,	114193	,	-16159	,	-14007	,	10.262722	,	16
40,24	,	114225	,	-16146	,	-13998	,	18.142035	,	23
40,24	,	114241	,	-16138	,	-14000	,	25.262383	,	30
40,24	,	114257	,	-16128	,	-13994	,	31.121145	,	37
40,24	,	114289	,	-16136	,	-13998	,	35.358456	,	42
40,25	,	114305	,	-16125	,	-13994	,	37.684456	,	46
40,25	,	114321	,	-16127	,	-14002	,	38.014133	,	47
40,25	,	114353	,	-16131	,	-13997	,	36.50148	,	44
40,25	,	114369	,	-16138	,	-13997	,	33.360184	,	39
40,25	,	114401	,	-16128	,	-13996	,	28.879168	,	32
40,25	,	114417	,	-16131	,	-14005	,	23.571625	,	25
40,25	,	114433	,	-16129	,	-13989	,	18.066414	,	18
40,25	,	114465	,	-16137	,	-13998	,	12.855249	,	11
40,25	,	114481	,	-16148	,	-14003	,	8.146138	,	6
40,25	,	114497	,	-16144	,	-13999	,	3.925065	,	2
40,25	,	114529	,	-16145	,	-14009	,	0.21002531	,	0
40,25	,	114545	,	-16147	,	-14004	,	-2.8550699	,	0
40,25	,	114577	,	-16160	,	-14011	,	-5.2083726	,	0
40,25	,	114593	,	-16162	,	-14008	,	-7.007359	,	0
40,25	,	114609	,	-16167	,	-14013	,	-8.476502	,	0
40,25	,	114641	,	-16177	,	-14010	,	-9.768033	,	0
40,25	,	114657	,	-16173	,	-14016	,	-10.969068	,	0
40,25	,	114673	,	-16185	,	-14011	,	-12.081872	,	0
40,25	,	114705	,	-16190	,	-14019	,	-13.090818	,	0
40,25	,	114721	,	-16195	,	-14020	,	-14.030563	,	0
40,25	,	114737	,	-16200	,	-14015	,	-14.908696	,	0
40,25	,	114769	,	-16203	,	-14023	,	-15.677803	,	0
40,25	,	114785	,	-16198	,	-14029	,	-16.224699	,	0
40,25	,	114817	,	-16214	,	-14034	,	-16.411245	,	0
40,25	,	114833	,	-16221	,	-14038	,	-16.282995	,	0
40,25	,	114849	,	-16218	,	-14032	,	-16.04618	,	0
40,25	,	114881	,	-16230	,	-14031	,	-15.821945	,	0
40,25	,	114897	,	-16232	,	-14047	,	-15.658872	,	0
40,25	,	114913	,	-16228	,	-14023	,	-15.559986	,	0
40,25	,	114945	,	-16182	,	-14015	,	-15.150598	,	0
40,25	,	114961	,	-16165	,	-14010	,	-13.48275	,	0
40,25	,	114993	,	-16150	,	-14012	,	-9.611065	,	1
40,25	,	115009	,	-16146	,	-14004	,	-3.3736792	,	4
40,25	,	115025	,	-16132	,	-14002	,	4.5515876	,	10
40,25	,	115057	,	-16138	,	-13998	,	13.060295	,	17
40,25	,	115073	,	-16126	,	-13994	,	20.973066	,	25
40,25	,	115089	,	-16115	,	-14000	,	27.4015	,	32
40,25	,	115121	,	-16116	,	-13991	,	31.947058	,	38
40,25	,	115137	,	-16107	,	-13996	,	34.53277	,	42
40,25	,	115169	,	-16105	,	-13979	,	35.267788	,	44
40,25	,	115185	,	-16111	,	-13990	,	34.3746	,	43
40,25	,	115201	,	-16116	,	-13991	,	32.027233	,	40
40,25	,	115233	,	-16112	,	-13993	,	28.391436	,	34
40,25	,	115249	,	-16111	,	-13992	,	23.814663	,	27
40,25	,	115265	,	-16114	,	-13989	,	18.802805	,	19
40,25	,	115297	,	-16113	,	-13986	,	13.833124	,	12
40,26	,	115313	,	-16119	,	-13994	,	9.243473	,	6
40,26	,	115329	,	-16126	,	-13996	,	5.188094	,	2
40,26	,	115361	,	-16116	,	-13998	,	1.711647	,	0
40,26	,	115377	,	-16133	,	-14002	,	-1.142673	,	0
40,26	,	115409	,	-16133	,	-13993	,	-3.429781	,	0
40,26	,	115425	,	-16152	,	-14003	,	-5.381495	,	0
40,26	,	115441	,	-16154	,	-14001	,	-7.3027477	,	0
40,26	,	115472	,	-16159	,	-14008	,	-9.383021	,	0
40,26	,	115489	,	-16159	,	-14012	,	-11.551244	,	0
40,26	,	115505	,	-16162	,	-14008	,	-13.5421915	,	0
40,26	,	115537	,	-16164	,	-14016	,	-15.073448	,	0
40,26	,	115553	,	-16178	,	-14013	,	-16.018505	,	0
40,26	,	115584	,	-16170	,	-14013	,	-16.44454	,	0
40,26	,	115601	,	-16186	,	-14018	,	-16.47025	,	0
40,26	,	115616	,	-16189	,	-14031	,	-16.246485	,	0
40,26	,	115649	,	-16189	,	-14016	,	-15.949147	,	0
40,26	,	115665	,	-16207	,	-14025	,	-15.700367	,	0
40,26	,	115681	,	-16219	,	-14028	,	-15.69154	,	0
40,26	,	115713	,	-16221	,	-14033	,	-16.169195	,	0
40,26	,	115729	,	-16217	,	-14032	,	-17.114468	,	0
40,26	,	115745	,	-16212	,	-14030	,	-18.116938	,	0
40,26	,	115776	,	-16196	,	-14019	,	-18.539604	,	0
40,26	,	115793	,	-16173	,	-14013	,	-17.67108	,	0
40,26	,	115825	,	-16160	,	-14007	,	-14.885797	,	0
40,26	,	115841	,	-16150	,	-14010	,	-9.955442	,	2
40,26	,	115857	,	-16142	,	-14005	,	-3.2367945	,	6
40,26	,	115889	,	-16136	,	-13996	,	4.477809	,	12
40,26	,	115905	,	-16128	,	-13998	,	12.254089	,	19
40,26	,	115921	,	-16135	,	-13997	,	19.20431	,	26
40,26	,	115953	,	-16121	,	-13990	,	24.597492	,	32
40,26	,	115968	,	-16121	,	-13996	,	28.052353	,	37
40,26	,	116000	,	-16128	,	-14003	,	29.531143	,	40
40,26	,	116017	,	-16122	,	-13999	,	29.125874	,	41
40,26	,	116033	,	-16130	,	-13997	,	27.048141	,	39
40,26	,	116064	,	-16135	,	-13994	,	23.624268	,	35
40,26	,	116081	,	-16117	,	-13998	,	19.289959	,	29
40,26	,	116097	,	-16120	,	-13998	,	14.701416	,	22
40,26	,	116129	,	-16128	,	-13998	,	10.490518	,	15
40,26	,	116145	,	-16136	,	-14000	,	6.8739347	,	9
40,26	,	116160	,	-16131	,	-14002	,	3.759468	,	4
40,26	,	116192	,	-16140	,	-14008	,	1.0645099	,	1
40,26	,	116208	,	-16139	,	-14005	,	-1.2372122	,	0
40,26	,	116241	,	-16142	,	-14003	,	-3.164997	,	0
40,26	,	116257	,	-16151	,	-14004	,	-4.7511106	,	0
40,26	,	116272	,	-16160	,	-14010	,	-6.126359	,	0
40,27	,	116304	,	-16169	,	-14012	,	-7.5190372	,	0
40,27	,	116320	,	-16161	,	-14010	,	-9.055993	,	0
40,27	,	116336	,	-16173	,	-14009	,	-10.622126	,	0
40,27	,	116368	,	-16175	,	-14015	,	-12.032064	,	0
40,27	,	116384	,	-16172	,	-14012	,	-13.163265	,	0
40,27	,	116417	,	-16189	,	-14020	,	-13.928287	,	0
40,27	,	116432	,	-16192	,	-14021	,	-14.394393	,	0
40,27	,	116448	,	-16198	,	-14022	,	-14.762437	,	0
40,27	,	116480	,	-16200	,	-14020	,	-15.144861	,	0
40,27	,	116496	,	-16210	,	-14040	,	-15.543901	,	0
40,27	,	116512	,	-16212	,	-14033	,	-15.951847	,	0
40,27	,	116545	,	-16206	,	-14031	,	-16.295082	,	0
40,27	,	116561	,	-16197	,	-14021	,	-16.299246	,	0
40,27	,	116592	,	-16184	,	-14020	,	-15.524499	,	0
40,27	,	116608	,	-16160	,	-14024	,	-13.490366	,	0
40,27	,	116624	,	-16148	,	-13999	,	-9.794279	,	2
40,27	,	116656	,	-16131	,	-14005	,	-4.3200517	,	5
40,27	,	116672	,	-16129	,	-14002	,	2.601585	,	10
40,27	,	116688	,	-16133	,	-13996	,	10.172304	,	16
40,27	,	116721	,	-16121	,	-13996	,	17.327995	,	23
40,27	,	116736	,	-16123	,	-13999	,	23.167606	,	30
40,27	,	116752	,	-16125	,	-14001	,	27.140728	,	35
40,27	,	116784	,	-16130	,	-13999	,	28.941364	,	38
40,27	,	116800	,	-16130	,	-14004	,	28.501078	,	39
40,27	,	116832	,	-16130	,	-13996	,	26.06036	,	37
40,27	,	116848	,	-16136	,	-14013	,	22.113163	,	34
40,27	,	116864	,	-16134	,	-13992	,	17.255163	,	29
40,27	,	116896	,	-16135	,	-13995	,	12.094948	,	23
40,27	,	116912	,	-16135	,	-13996	,	7.1917667	,	16
40,27	,	116928	,	-16141	,	-14004	,	2.9379196	,	9
40,27	,	116960	,	-16140	,	-13997	,	-0.5001426	,	4
40,27	,	116976	,	-16144	,	-14002	,	-3.1085284	,	1
40,27	,	117008	,	-16149	,	-14004	,	-4.960021	,	0
40,27	,	117024	,	-16151	,	-14007	,	-6.2070403	,	0
40,27	,	117040	,	-16171	,	-14015	,	-7.1071043	,	0
40,27	,	117072	,	-16168	,	-14014	,	-8.013826	,	0
40,27	,	117088	,	-16179	,	-14022	,	-9.18125	,	0
40,27	,	117104	,	-16170	,	-14008	,	-10.579903	,	0
40,27	,	117136	,	-16184	,	-14025	,	-11.977267	,	0
40,27	,	117152	,	-16185	,	-14022	,	-13.173487	,	0
40,27	,	117168	,	-16185	,	-14020	,	-14.074657	,	0
40,27	,	117200	,	-16191	,	-14023	,	-14.599029	,	0
40,27	,	117216	,	-16198	,	-14024	,	-14.732389	,	0
40,27	,	117248	,	-16212	,	-14022	,	-14.648079	,	0
40,27	,	117264	,	-16213	,	-14027	,	-14.636396	,	0
40,27	,	117281	,	-16225	,	-14028	,	-14.911545	,	0
40,28	,	117312	,	-16224	,	-14035	,	-15.516491	,	0
40,28	,	117328	,	-16215	,	-14039	,	-16.259542	,	0
40,28	,	117344	,	-16198	,	-14017	,	-16.620907	,	0
40,28	,	117376	,	-16159	,	-14019	,	-15.762514	,	0
40,28	,	117392	,	-16154	,	-14005	,	-12.7958145	,	0
40,28	,	117424	,	-16132	,	-14010	,	-7.324552	,	2
40,28	,	117440	,	-16138	,	-13994	,	0.24000978	,	7
40,28	,	117456	,	-16123	,	-14000	,	8.868909	,	14
40,28	,	117488	,	-16119	,	-13996	,	17.37479	,	22
40,28	,	117504	,	-16118	,	-13991	,	24.76616	,	30
40,28	,	117520	,	-16106	,	-13988	,	30.356062	,	37
40,28	,	117552	,	-16098	,	-13981	,	33.8728	,	42
40,28	,	117568	,	-16098	,	-13997	,	35.428585	,	45
40,28	,	117584	,	-16096	,	-13985	,	35.265415	,	46
40,28	,	117616	,	-16109	,	-13990	,	33.573673	,	44
40,28	,	117632	,	-16107	,	-13989	,	30.467455	,	39
40,28	,	117664	,	-16099	,	-13993	,	26.182615	,	32
40,28	,	117680	,	-16109	,	-13990	,	21.208616	,	24
40,28	,	117696	,	-16109	,	-13989	,	16.04987	,	16
40,28	,	117728	,	-16111	,	-13997	,	11.057717	,	9
40,28	,	117744	,	-16115	,	-13994	,	6.489172	,	4
40,28	,	117760	,	-16112	,	-13993	,	2.5382652	,	1
40,28	,	117792	,	-16126	,	-13996	,	-0.69920254	,	0
40,28	,	117808	,	-16129	,	-14006	,	-3.312605	,	0
40,28	,	117840	,	-16132	,	-13996	,	-5.499743	,	0
40,28	,	117856	,	-16135	,	-14002	,	-7.3664484	,	0
40,28	,	117872	,	-16148	,	-14001	,	-8.958889	,	0
40,28	,	117904	,	-16155	,	-14005	,	-10.411495	,	0
40,28	,	117920	,	-16160	,	-14005	,	-11.890619	,	0
40,28	,	117936	,	-16170	,	-14011	,	-13.466078	,	0
40,28	,	117968	,	-16171	,	-14012	,	-15.10264	,	0
40,28	,	117984	,	-16182	,	-14012	,	-16.691708	,	0
40,28	,	118000	,	-16183	,	-14012	,	-18.106695	,	0
40,28	,	118032	,	-16193	,	-14019	,	-19.256329	,	0
40,28	,	118048	,	-16194	,	-14026	,	-20.08769	,	0
40,28	,	118080	,	-16197	,	-14022	,	-20.54906	,	0
40,28	,	118096	,	-16210	,	-14026	,	-20.618156	,	0
40,28	,	118112	,	-16215	,	-14028	,	-20.414307	,	0
40,28	,	118144	,	-16223	,	-14028	,	-20.145624	,	0
40,28	,	118160	,	-16222	,	-14033	,	-19.926762	,	0
40,28	,	118176	,	-16208	,	-14023	,	-19.628952	,	0
40,28	,	118208	,	-16187	,	-14014	,	-18.768738	,	0
40,28	,	118224	,	-16176	,	-14014	,	-16.657547	,	0
40,28	,	118256	,	-16155	,	-14014	,	-12.786572	,	2
40,28	,	118272	,	-16149	,	-14006	,	-7.0714493	,	5
40,28	,	118288	,	-16137	,	-14002	,	0.101938725	,	10
40,29	,	118320	,	-16115	,	-14004	,	8.066014	,	17
40,29	,	118336	,	-16119	,	-13990	,	16.128933	,	24
40,29	,	118351	,	-16110	,	-13988	,	23.551998	,	32
40,29	,	118384	,	-16096	,	-13985	,	29.646708	,	39
40,29	,	118400	,	-16095	,	-13987	,	34.0498	,	45
40,29	,	118416	,	-16100	,	-13988	,	36.613876	,	49
40,29	,	118448	,	-16102	,	-13987	,	37.184464	,	49
40,29	,	118464	,	-16110	,	-13986	,	35.668667	,	46
40,29	,	118495	,	-16103	,	-13983	,	32.21325	,	41
40,29	,	118511	,	-16102	,	-13986	,	27.310373	,	34
40,29	,	118527	,	-16106	,	-13993	,	21.675356	,	27
40,29	,	118560	,	-16108	,	-13997	,	15.95604	,	19
40,29	,	118576	,	-16095	,	-13992	,	10.664936	,	12
40,29	,	118592	,	-16110	,	-13991	,	6.2176533	,	6
40,29	,	118624	,	-16127	,	-13990	,	2.6726618	,	2
40,29	,	118639	,	-16129	,	-14000	,	-0.35604048	,	0
40,29	,	118671	,	-16127	,	-13999	,	-3.2229621	,	0
40,29	,	118687	,	-16132	,	-13997	,	-5.92433	,	0
40,29	,	118704	,	-16143	,	-14001	,	-8.323658	,	0
40,29	,	118735	,	-16132	,	-14004	,	-10.333781	,	0
40,29	,	118751	,	-16143	,	-13998	,	-11.822233	,	0
40,29	,	118768	,	-16141	,	-14009	,	-12.673923	,	0
40,29	,	118800	,	-16153	,	-14016	,	-12.950432	,	0
40,29	,	118816	,	-16152	,	-14009	,	-12.85014	,	0
40,29	,	118847	,	-16170	,	-14022	,	-12.628559	,	0
40,29	,	118863	,	-16182	,	-14017	,	-12.626722	,	0
40,29	,	118879	,	-16180	,	-14017	,	-13.154905	,	0
40,29	,	118911	,	-16196	,	-14015	,	-14.26753	,	0
40,29	,	118927	,	-16191	,	-14021	,	-15.794489	,	0
40,29	,	118943	,	-16202	,	-14025	,	-17.456528	,	0
40,29	,	118976	,	-16191	,	-14028	,	-18.892174	,	0
40,29	,	118992	,	-16205	,	-14027	,	-19.756292	,	0
40,29	,	119008	,	-16211	,	-14032	,	-19.929012	,	0
40,29	,	119039	,	-16212	,	-14045	,	-19.557323	,	0
40,29	,	119055	,	-16223	,	-14028	,	-18.861088	,	0
40,29	,	119087	,	-16202	,	-14030	,	-17.946304	,	0
40,29	,	119103	,	-16181	,	-14017	,	-16.55466	,	0
40,29	,	119119	,	-16168	,	-14018	,	-14.070101	,	1
40,29	,	119152	,	-16157	,	-14013	,	-10.0178795	,	3
40,29	,	119168	,	-16146	,	-14005	,	-4.4160514	,	7
40,29	,	119183	,	-16138	,	-14000	,	2.292119	,	12
40,29	,	119215	,	-16138	,	-14003	,	9.396875	,	18
40,29	,	119231	,	-16124	,	-14001	,	16.105494	,	25
40,29	,	119263	,	-16119	,	-13995	,	21.805796	,	31
40,29	,	119279	,	-16111	,	-13999	,	26.175886	,	36
40,29	,	119295	,	-16113	,	-13987	,	29.071861	,	40
40,30	,	119327	,	-16118	,	-13990	,	30.386017	,	41
40,30	,	119343	,	-16112	,	-13995	,	30.050522	,	40
40,30	,	119359	,	-16116	,	-13993	,	28.18103	,	36
40,30	,	119392	,	-16112	,	-13993	,	25.10267	,	31
40,30	,	119407	,	-16120	,	-13992	,	21.221313	,	25
40,30	,	119423	,	-16119	,	-13996	,	16.909424	,	18
40,30	,	119455	,	-16118	,	-13989	,	12.501961	,	12
40,30	,	119471	,	-16125	,	-13994	,	8.30659	,	7
40,30	,	119503	,	-16133	,	-13996	,	4.488395	,	3
40,30	,	119519	,	-16122	,	-14008	,	1.0974112	,	1
40,30	,	119535	,	-16126	,	-13996	,	-1.7246563	,	0
40,30	,	119567	,	-16136	,	-14001	,	-3.8309267	,	0
40,30	,	119583	,	-16152	,	-14005	,	-5.373163	,	0
40,30	,	119599	,	-16159	,	-14010	,	-6.7944713	,	0
40,30	,	119631	,	-16154	,	-14005	,	-8.43684	,	0
40,30	,	119647	,	-16163	,	-14010	,	-10.263475	,	0
40,30	,	119679	,	-16169	,	-14013	,	-12.059229	,	0
40,30	,	119695	,	-16172	,	-14015	,	-13.683974	,	0
40,30	,	119711	,	-16173	,	-14019	,	-15.022165	,	0
40,30	,	119743	,	-16181	,	-14016	,	-15.949177	,	0
40,30	,	119759	,	-16183	,	-14029	,	-16.431015	,	0
40,30	,	119775	,	-16190	,	-14017	,	-16.53747	,	0
40,30	,	119807	,	-16196	,	-14024	,	-16.393627	,	0
40,30	,	119823	,	-16211	,	-14025	,	-16.19943	,	0
40,30	,	119839	,	-16210	,	-14027	,	-16.193468	,	0
40,30	,	119871	,	-16218	,	-14031	,	-16.482475	,	0
40,30	,	119887	,	-16226	,	-14035	,	-17.0098	,	0
40,30	,	119919	,	-16226	,	-14046	,	-17.66633	,	0
40,30	,	119935	,	-16233	,	-14033	,	-18.305237	,	0
40,30	,	119951	,	-16212	,	-14033	,	-18.664257	,	0
40,30	,	119983	,	-16199	,	-14019	,	-18.246872	,	0
40,30	,	119999	,	-16181	,	-14014	,	-16.413525	,	0
40,30	,	120015	,	-16175	,	-14018	,	-12.75504	,	1
40,30	,	120047	,	-16153	,	-14008	,	-7.303811	,	4
40,30	,	120063	,	-16157	,	-13994	,	-0.47660637	,	9
40,30	,	120095	,	-16142	,	-14004	,	7.009816	,	15
40,30	,	120111	,	-16147	,	-14004	,	14.283023	,	22
40,30	,	120127	,	-16140	,	-14005	,	20.514893	,	29
40,30	,	120159	,	-16146	,	-14003	,	25.058554	,	35
40,30	,	120175	,	-16145	,	-14000	,	27.522835	,	39
40,30	,	120191	,	-16140	,	-14003	,	27.843708	,	41
40,30	,	120223	,	-16154	,	-14002	,	26.259438	,	40
40,30	,	120239	,	-16150	,	-14008	,	23.12321	,	37
40,30	,	120255	,	-16156	,	-14006	,	18.846668	,	32
40,30	,	120287	,	-16143	,	-13989	,	13.995277	,	26
40,31	,	120303	,	-16146	,	-14005	,	9.250484	,	19
40,31	,	120335	,	-16154	,	-14000	,	5.1445045	,	12
40,31	,	120351	,	-16151	,	-14002	,	1.8584871	,	6
40,31	,	120367	,	-16151	,	-14004	,	-0.61252356	,	2
40,31	,	120399	,	-16166	,	-14008	,	-2.3484144	,	0
40,31	,	120415	,	-16160	,	-14009	,	-3.5765011	,	0
40,31	,	120431	,	-16160	,	-14006	,	-4.4956746	,	0
40,31	,	120463	,	-16171	,	-14011	,	-5.168213	,	0
40,31	,	120479	,	-16180	,	-14013	,	-5.7420673	,	0
40,31	,	120511	,	-16182	,	-14022	,	-6.4730015	,	0
40,31	,	120527	,	-16186	,	-13999	,	-7.4870076	,	0
40,31	,	120543	,	-16197	,	-14017	,	-8.753946	,	0
40,31	,	120575	,	-16197	,	-14020	,	-10.21328	,	0
40,31	,	120591	,	-16207	,	-14020	,	-11.775334	,	0
40,31	,	120607	,	-16217	,	-14019	,	-13.358747	,	0
40,31	,	120639	,	-16222	,	-14025	,	-14.956394	,	0
40,31	,	120655	,	-16219	,	-14023	,	-16.501568	,	0
40,31	,	120671	,	-16226	,	-14021	,	-17.775766	,	0
40,31	,	120703	,	-16228	,	-14031	,	-18.562475	,	0
40,31	,	120719	,	-16232	,	-14028	,	-18.77985	,	0
40,31	,	120751	,	-16235	,	-14033	,	-18.464897	,	0
40,31	,	120767	,	-16213	,	-14012	,	-17.60844	,	0
40,31	,	120783	,	-16173	,	-14009	,	-15.796512	,	0
40,31	,	120815	,	-16166	,	-14003	,	-12.237576	,	1
40,31	,	120831	,	-16162	,	-13999	,	-6.529007	,	4
40,31	,	120847	,	-16153	,	-14000	,	0.8526535	,	9
40,31	,	120879	,	-16154	,	-13993	,	8.882346	,	16
40,31	,	120895	,	-16148	,	-13988	,	16.448132	,	24
40,31	,	120927	,	-16133	,	-13992	,	22.701681	,	31
40,31	,	120943	,	-16146	,	-13988	,	27.200556	,	37
40,31	,	120959	,	-16142	,	-13991	,	29.692192	,	41
40,31	,	120991	,	-16135	,	-14001	,	30.096943	,	43
40,31	,	121007	,	-16150	,	-13985	,	28.631989	,	42
40,31	,	121023	,	-16143	,	-13988	,	25.639416	,	39
40,31	,	121055	,	-16149	,	-13990	,	21.515823	,	34
40,31	,	121071	,	-16140	,	-13988	,	16.79284	,	27
40,31	,	121102	,	-16138	,	-13992	,	12.088211	,	19
40,31	,	121119	,	-16146	,	-13993	,	7.9234	,	12
40,31	,	121135	,	-16154	,	-13991	,	4.4844956	,	6
40,31	,	121167	,	-16157	,	-13993	,	1.629713	,	2
40,31	,	121183	,	-16161	,	-13987	,	-0.85222244	,	0
40,31	,	121199	,	-16168	,	-14001	,	-3.0954244	,	0
40,31	,	121231	,	-16169	,	-14001	,	-5.163276	,	0
40,31	,	121246	,	-16179	,	-13990	,	-7.0720806	,	0
40,31	,	121262	,	-16184	,	-14004	,	-8.842897	,	0
40,31	,	121294	,	-16186	,	-14007	,	-10.500161	,	0
40,32	,	121311	,	-16189	,	-14004	,	-11.993901	,	0
40,32	,	121343	,	-16191	,	-14006	,	-13.206621	,	0
40,32	,	121359	,	-16193	,	-14009	,	-14.020955	,	0
40,32	,	121375	,	-16206	,	-14017	,	-14.408784	,	0
40,32	,	121407	,	-16200	,	-14013	,	-14.46626	,	0
40,32	,	121423	,	-16212	,	-14017	,	-14.305555	,	0
40,32	,	121438	,	-16215	,	-14015	,	-14.034427	,	0
40,32	,	121470	,	-16228	,	-14029	,	-13.828733	,	0
40,32	,	121486	,	-16225	,	-14019	,	-13.852657	,	0
40,32	,	121518	,	-16242	,	-14027	,	-14.164997	,	0
40,32	,	121535	,	-16235	,	-14024	,	-14.738749	,	0
40,32	,	121551	,	-16222	,	-14024	,	-15.343758	,	0
40,32	,	121583	,	-16201	,	-14009	,	-15.381016	,	0
40,32	,	121598	,	-16193	,	-14005	,	-14.093601	,	0
40,32	,	121614	,	-16171	,	-13999	,	-10.975176	,	1
40,32	,	121646	,	-16155	,	-13995	,	-5.907371	,	4
40,32	,	121662	,	-16145	,	-13993	,	0.86918926	,	9
40,32	,	121679	,	-16138	,	-13987	,	8.733894	,	15
40,32	,	121711	,	-16138	,	-13989	,	16.753168	,	22
40,32	,	121727	,	-16134	,	-13983	,	23.899632	,	30
40,32	,	121758	,	-16126	,	-13982	,	29.358475	,	37
40,32	,	121774	,	-16120	,	-13973	,	32.763397	,	42
40,32	,	121790	,	-16119	,	-13976	,	34.154694	,	45
40,32	,	121822	,	-16116	,	-13977	,	33.770615	,	45
40,32	,	121838	,	-16130	,	-13975	,	31.861258	,	42
40,32	,	121855	,	-16129	,	-13984	,	28.600246	,	37
40,32	,	121887	,	-16125	,	-13982	,	24.226675	,	31
40,32	,	121902	,	-16119	,	-13983	,	19.233097	,	24
40,32	,	121934	,	-16121	,	-13981	,	14.256456	,	16
40,32	,	121950	,	-16136	,	-13989	,	9.737793	,	9
40,32	,	121966	,	-16130	,	-13986	,	5.7731276	,	4
40,32	,	121998	,	-16128	,	-13986	,	2.377152	,	1
40,32	,	122014	,	-16134	,	-13989	,	-0.34108305	,	0
40,32	,	122030	,	-16141	,	-13985	,	-2.3730447	,	0
40,32	,	122062	,	-16157	,	-13993	,	-3.9664893	,	0
40,32	,	122078	,	-16157	,	-14000	,	-5.5037103	,	0
40,32	,	122094	,	-16163	,	-13992	,	-7.2205524	,	0
40,32	,	122126	,	-16167	,	-13995	,	-9.096853	,	0
40,32	,	122142	,	-16167	,	-13995	,	-10.965537	,	0
40,32	,	122174	,	-16168	,	-13995	,	-12.588126	,	0
40,32	,	122190	,	-16183	,	-14004	,	-13.788329	,	0
40,32	,	122206	,	-16175	,	-14008	,	-14.561093	,	0
40,32	,	122238	,	-16191	,	-14004	,	-14.9664135	,	0
40,32	,	122254	,	-16199	,	-14009	,	-15.136099	,	0
40,32	,	122270	,	-16204	,	-14009	,	-15.315086	,	0
40,33	,	122302	,	-16199	,	-14013	,	-15.624004	,	0
40,33	,	122318	,	-16218	,	-14012	,	-15.98469	,	0
40,33	,	122350	,	-16222	,	-14019	,	-16.3802	,	0
40,33	,	122366	,	-16228	,	-14026	,	-16.900099	,	0
40,33	,	122382	,	-16231	,	-14017	,	-17.544558	,	0
40,33	,	122414	,	-16221	,	-14009	,	-18.118324	,	0
40,33	,	122430	,	-16199	,	-14000	,	-18.143597	,	0
40,33	,	122446	,	-16176	,	-14005	,	-16.864597	,	0
40,33	,	122478	,	-16163	,	-13988	,	-13.576529	,	1
40,33	,	122494	,	-16143	,	-13973	,	-8.030113	,	4
40,33	,	122526	,	-16139	,	-13983	,	-0.54973555	,	9
40,33	,	122542	,	-16124	,	-13981	,	8.084843	,	16
40,33	,	122558	,	-16122	,	-13980	,	16.867456	,	24
40,33	,	122590	,	-16123	,	-13975	,	24.770403	,	32
40,33	,	122606	,	-16113	,	-13976	,	30.918217	,	39
40,33	,	122622	,	-16115	,	-13973	,	34.80657	,	45
40,33	,	122654	,	-16113	,	-13974	,	36.32478	,	48
40,33	,	122670	,	-16112	,	-13979	,	35.62363	,	48
40,33	,	122686	,	-16108	,	-13971	,	33.07611	,	45
40,33	,	122718	,	-16105	,	-13975	,	29.2434	,	40
40,33	,	122734	,	-16106	,	-13973	,	24.746244	,	33
40,33	,	122766	,	-16115	,	-13979	,	20.065556	,	25
40,33	,	122782	,	-16121	,	-13979	,	15.41329	,	17
40,33	,	122798	,	-16122	,	-13977	,	10.836267	,	10
40,33	,	122830	,	-16121	,	-13978	,	6.440281	,	4
40,33	,	122846	,	-16127	,	-13983	,	2.4375997	,	1
40,33	,	122862	,	-16134	,	-13974	,	-1.0198426	,	0
40,33	,	122894	,	-16125	,	-13978	,	-3.8796644	,	0
40,33	,	122910	,	-16139	,	-13980	,	-6.0883527	,	0
40,33	,	122942	,	-16143	,	-13991	,	-7.687752	,	0
40,33	,	122958	,	-16149	,	-13984	,	-8.879574	,	0
40,33	,	122974	,	-16155	,	-13984	,	-9.877537	,	0
40,33	,	123006	,	-16170	,	-13996	,	-10.874335	,	0
40,33	,	123022	,	-16176	,	-13995	,	-12.079838	,	0
40,33	,	123038	,	-16177	,	-13994	,	-13.589809	,	0
40,33	,	123070	,	-16177	,	-14002	,	-15.236853	,	0
40,33	,	123086	,	-16182	,	-13991	,	-16.683687	,	0
40,33	,	123102	,	-16187	,	-13998	,	-17.667461	,	0
40,33	,	123134	,	-16181	,	-14002	,	-18.06294	,	0
40,33	,	123150	,	-16199	,	-14001	,	-17.850662	,	0
40,33	,	123182	,	-16209	,	-14017	,	-17.253597	,	0
40,33	,	123198	,	-16208	,	-14003	,	-16.667793	,	0
40,33	,	123214	,	-16209	,	-14012	,	-16.289848	,	0
40,33	,	123246	,	-16195	,	-13994	,	-15.949933	,	0
40,33	,	123262	,	-16183	,	-13993	,	-15.1878805	,	0
40,33	,	123278	,	-16163	,	-13985	,	-13.411121	,	0
40,34	,	123310	,	-16148	,	-13985	,	-10.115123	,	1
40,34	,	123326	,	-16143	,	-13980	,	-5.143126	,	4
40,34	,	123358	,	-16134	,	-13981	,	1.1498256	,	8
40,34	,	123374	,	-16130	,	-13976	,	8.034496	,	14
40,34	,	123390	,	-16121	,	-13973	,	14.705639	,	20
40,34	,	123422	,	-16130	,	-13983	,	20.432331	,	26
40,34	,	123438	,	-16119	,	-13964	,	24.610455	,	31
40,34	,	123454	,	-16130	,	-13968	,	26.876686	,	35
40,34	,	123486	,	-16140	,	-13975	,	27.080086	,	37
40,34	,	123502	,	-16140	,	-13977	,	25.204466	,	36
40,34	,	123534	,	-16130	,	-13973	,	21.56406	,	33
40,34	,	123550	,	-16130	,	-13971	,	16.895472	,	29
40,34	,	123566	,	-16129	,	-13973	,	12.044634	,	23
40,34	,	123598	,	-16132	,	-13971	,	7.634674	,	17
40,34	,	123613	,	-16129	,	-13977	,	4.002634	,	11
40,34	,	123629	,	-16136	,	-13978	,	1.256288	,	6
40,34	,	123662	,	-16149	,	-13990	,	-0.74783444	,	2
40,34	,	123678	,	-16143	,	-13978	,	-2.329513	,	0
40,34	,	123694	,	-16154	,	-13994	,	-3.7313213	,	0
40,34	,	123726	,	-16172	,	-13998	,	-5.137399	,	0
40,34	,	123742	,	-16174	,	-14006	,	-6.82228	,	0
40,34	,	123773	,	-16181	,	-14005	,	-8.948362	,	0
40,34	,	123790	,	-16192	,	-14011	,	-11.431999	,	0
40,34	,	123805	,	-16200	,	-14011	,	-14.1131115	,	0
40,34	,	123837	,	-16188	,	-14014	,	-16.745266	,	0
40,34	,	123853	,	-16198	,	-14013	,	-18.893457	,	0
40,34	,	123870	,	-16201	,	-14017	,	-20.183153	,	0
40,34	,	123902	,	-16210	,	-14028	,	-20.572754	,	0
40,34	,	123918	,	-16206	,	-14020	,	-20.237766	,	0
40,34	,	123949	,	-16227	,	-14026	,	-19.418583	,	0
40,34	,	123965	,	-16230	,	-14027	,	-18.474861	,	0
40,34	,	123981	,	-16231	,	-14027	,	-17.756727	,	0
40,34	,	124013	,	-16233	,	-14026	,	-17.33429	,	0
40,34	,	124030	,	-16214	,	-14023	,	-16.944847	,	0
40,34	,	124046	,	-16203	,	-14012	,	-16.049526	,	0
40,34	,	124078	,	-16177	,	-14013	,	-13.976958	,	0
40,34	,	124093	,	-16162	,	-14002	,	-10.168936	,	2
40,34	,	124109	,	-16159	,	-13996	,	-4.483084	,	5
40,34	,	124141	,	-16148	,	-14004	,	2.6126208	,	10
40,34	,	124157	,	-16147	,	-13991	,	10.232135	,	17
40,34	,	124189	,	-16144	,	-13996	,	17.39979	,	24
40,34	,	124206	,	-16138	,	-13994	,	23.28663	,	31
40,34	,	124221	,	-16144	,	-13993	,	27.353561	,	36
40,34	,	124253	,	-16148	,	-14000	,	29.29713	,	40
40,34	,	124269	,	-16147	,	-14005	,	29.017101	,	41
40,34	,	124285	,	-16160	,	-14012	,	26.67207	,	39
40,35	,	124317	,	-16151	,	-14009	,	22.645128	,	36
40,35	,	124333	,	-16157	,	-14016	,	17.523989	,	31
40,35	,	124366	,	-16155	,	-14021	,	12.018252	,	24
40,35	,	124381	,	-16156	,	-14018	,	6.7724495	,	17
40,35	,	124397	,	-16150	,	-14020	,	2.2886133	,	10
40,35	,	124429	,	-16153	,	-14024	,	-1.093574	,	5
40,35	,	124445	,	-16171	,	-14023	,	-3.3428333	,	1
40,35	,	124461	,	-16166	,	-14027	,	-4.786698	,	0
40,35	,	124493	,	-16179	,	-14029	,	-5.840917	,	0
40,35	,	124509	,	-16179	,	-14026	,	-6.7974396	,	0
40,35	,	124525	,	-16178	,	-14028	,	-7.7737417	,	0
40,35	,	124558	,	-16193	,	-14024	,	-8.742073	,	0
40,35	,	124573	,	-16195	,	-14027	,	-9.720479	,	0
40,35	,	124605	,	-16203	,	-14041	,	-10.797516	,	0
40,35	,	124621	,	-16202	,	-14039	,	-11.970454	,	0
40,35	,	124637	,	-16213	,	-14045	,	-13.133362	,	0
40,35	,	124669	,	-16221	,	-14036	,	-14.218246	,	0
40,35	,	124685	,	-16232	,	-14046	,	-15.285204	,	0
40,35	,	124701	,	-16237	,	-14043	,	-16.444359	,	0
40,35	,	124733	,	-16238	,	-14050	,	-17.696022	,	0
40,35	,	124749	,	-16240	,	-14049	,	-18.857006	,	0
40,35	,	124781	,	-16248	,	-14055	,	-19.68505	,	0
40,35	,	124797	,	-16250	,	-14055	,	-20.052029	,	0
40,35	,	124813	,	-16260	,	-14067	,	-19.981482	,	0
40,35	,	124845	,	-16253	,	-14056	,	-19.560856	,	0
40,35	,	124861	,	-16240	,	-14051	,	-18.723671	,	0
40,35	,	124877	,	-16218	,	-14045	,	-17.082872	,	0
40,35	,	124909	,	-16201	,	-14029	,	-14.072557	,	1
40,35	,	124925	,	-16163	,	-14024	,	-9.186899	,	4
40,35	,	124941	,	-16155	,	-14027	,	-2.1594095	,	8
40,35	,	124973	,	-16153	,	-14021	,	6.686504	,	15
40,35	,	124989	,	-16144	,	-14015	,	16.298063	,	23
40,35	,	125021	,	-16142	,	-14020	,	25.354246	,	32
40,35	,	125037	,	-16135	,	-14010	,	32.763058	,	41
40,35	,	125053	,	-16125	,	-14012	,	37.885445	,	48
40,35	,	125085	,	-16124	,	-14012	,	40.572197	,	53
40,35	,	125101	,	-16121	,	-14009	,	40.985245	,	54
40,35	,	125117	,	-16126	,	-14015	,	39.398735	,	51
40,35	,	125149	,	-16130	,	-13995	,	36.108574	,	47
40,35	,	125165	,	-16130	,	-14011	,	31.437355	,	40
40,35	,	125197	,	-16125	,	-14010	,	25.838417	,	32
40,35	,	125213	,	-16130	,	-14011	,	19.903591	,	23
40,35	,	125229	,	-16133	,	-14004	,	14.167388	,	14
40,35	,	125261	,	-16135	,	-14014	,	8.967101	,	7
40,35	,	125277	,	-16135	,	-14007	,	4.4948254	,	2
40,35	,	125293	,	-16136	,	-14010	,	0.869678	,	0
40,36	,	125325	,	-16151	,	-14015	,	-1.9251552	,	0
40,36	,	125341	,	-16150	,	-14010	,	-4.107567	,	0
40,36	,	125357	,	-16152	,	-14023	,	-5.911823	,	0
40,36	,	125389	,	-16165	,	-14004	,	-7.448012	,	0
40,36	,	125405	,	-16173	,	-14025	,	-8.8528185	,	0
40,36	,	125437	,	-16182	,	-14024	,	-10.336945	,	0
40,36	,	125453	,	-16185	,	-14025	,	-12.028671	,	0
40,36	,	125469	,	-16191	,	-14032	,	-13.881678	,	0
40,36	,	125501	,	-16198	,	-14035	,	-15.7367935	,	0
40,36	,	125517	,	-16194	,	-14035	,	-17.390907	,	0
40,36	,	125533	,	-16209	,	-14035	,	-18.636866	,	0
40,36	,	125565	,	-16210	,	-14037	,	-19.394163	,	0
40,36	,	125581	,	-16209	,	-14036	,	-19.688576	,	0
40,36	,	125613	,	-16225	,	-14044	,	-19.552797	,	0
40,36	,	125629	,	-16224	,	-14039	,	-19.117722	,	0
40,36	,	125645	,	-16237	,	-14049	,	-18.596214	,	0
40,36	,	125677	,	-16238	,	-14051	,	-18.156948	,	0
40,36	,	125693	,	-16243	,	-14061	,	-17.870985	,	0
40,36	,	125709	,	-16230	,	-14047	,	-17.625847	,	0
40,36	,	125741	,	-16215	,	-14039	,	-17.026918	,	0
40,36	,	125757	,	-16197	,	-14034	,	-15.455914	,	0
40,36	,	125789	,	-16176	,	-14035	,	-12.313757	,	1
40,36	,	125805	,	-16163	,	-14029	,	-7.2786226	,	4
40,36	,	125821	,	-16157	,	-14019	,	-0.5127506	,	9
40,36	,	125853	,	-16146	,	-14026	,	7.3155007	,	15
40,36	,	125869	,	-16144	,	-14012	,	15.280024	,	22
40,36	,	125885	,	-16135	,	-14006	,	22.476713	,	29
40,36	,	125917	,	-16133	,	-14007	,	28.203865	,	36
40,36	,	125933	,	-16116	,	-14004	,	32.10865	,	41
40,36	,	125949	,	-16117	,	-14010	,	34.224545	,	44
40,36	,	125981	,	-16124	,	-14005	,	34.717983	,	45
40,36	,	125997	,	-16123	,	-14002	,	33.64052	,	42
40,36	,	126029	,	-16133	,	-14002	,	31.020218	,	37
40,36	,	126045	,	-16124	,	-14002	,	27.047518	,	31
40,36	,	126061	,	-16126	,	-14006	,	22.16316	,	24
40,36	,	126093	,	-16124	,	-14006	,	16.96603	,	17
40,36	,	126109	,	-16122	,	-14000	,	12.014639	,	10
40,36	,	126125	,	-16128	,	-14001	,	7.7045107	,	5
40,36	,	126156	,	-16132	,	-14005	,	4.178499	,	2
40,36	,	126173	,	-16142	,	-14004	,	1.3195939	,	0
40,36	,	126205	,	-16148	,	-14003	,	-1.1390755	,	0
40,36	,	126221	,	-16163	,	-14016	,	-3.506577	,	0
40,36	,	126237	,	-16152	,	-14012	,	-5.972911	,	0
40,36	,	126269	,	-16156	,	-14019	,	-8.406023	,	0
40,36	,	126285	,	-16164	,	-14018	,	-10.486501	,	0
40,37	,	126301	,	-16162	,	-14015	,	-12.02935	,	0
40,37	,	126332	,	-16177	,	-14024	,	-13.039091	,	0
40,37	,	126348	,	-16175	,	-14029	,	-13.646935	,	0
40,37	,	126364	,	-16178	,	-14024	,	-13.987253	,	0
40,37	,	126397	,	-16195	,	-14027	,	-14.154346	,	0
40,37	,	126413	,	-16193	,	-14030	,	-14.316744	,	0
40,37	,	126445	,	-16198	,	-14027	,	-14.60044	,	0
40,37	,	126461	,	-16205	,	-14031	,	-14.970398	,	0
40,37	,	126477	,	-16215	,	-14041	,	-15.394711	,	0
40,37	,	126508	,	-16213	,	-14041	,	-15.889419	,	0
40,37	,	126524	,	-16226	,	-14046	,	-16.41665	,	0
40,37	,	126540	,	-16229	,	-14041	,	-16.932775	,	0
40,37	,	126573	,	-16227	,	-14039	,	-17.394445	,	0
40,37	,	126589	,	-16209	,	-14037	,	-17.558733	,	0
40,37	,	126620	,	-16193	,	-14016	,	-16.877218	,	0
40,37	,	126637	,	-16160	,	-14021	,	-14.626785	,	0
40,37	,	126652	,	-16154	,	-14012	,	-10.221736	,	2
40,37	,	126684	,	-16149	,	-14005	,	-3.671544	,	6
40,37	,	126700	,	-16140	,	-14010	,	4.275092	,	12
40,37	,	126716	,	-16135	,	-14005	,	12.532345	,	19
40,37	,	126749	,	-16132	,	-13996	,	20.078571	,	27
40,37	,	126765	,	-16131	,	-13997	,	26.100105	,	34
40,37	,	126781	,	-16120	,	-13999	,	30.109337	,	40
40,37	,	126813	,	-16127	,	-14000	,	31.996986	,	44
40,37	,	126828	,	-16130	,	-14012	,	31.855259	,	45
40,37	,	126860	,	-16122	,	-13993	,	29.889109	,	43
40,37	,	126876	,	-16130	,	-13993	,	26.511387	,	39
40,37	,	126892	,	-16123	,	-14000	,	22.260057	,	33
40,37	,	126925	,	-16127	,	-13991	,	17.653625	,	26
40,37	,	126941	,	-16134	,	-13999	,	13.097137	,	18
40,37	,	126957	,	-16126	,	-14000	,	8.844824	,	11
40,37	,	126989	,	-16134	,	-14003	,	5.098217	,	5
40,37	,	127005	,	-16142	,	-14002	,	1.9596386	,	1
40,37	,	127036	,	-16139	,	-13997	,	-0.6414938	,	0
40,37	,	127052	,	-16143	,	-14011	,	-2.7842393	,	0
40,37	,	127068	,	-16150	,	-14012	,	-4.5023985	,	0
40,37	,	127100	,	-16150	,	-13994	,	-5.8751197	,	0
40,37	,	127116	,	-16164	,	-14013	,	-7.0310526	,	0
40,37	,	127133	,	-16176	,	-14019	,	-8.192785	,	0
40,37	,	127165	,	-16173	,	-14020	,	-9.604764	,	0
40,37	,	127180	,	-16180	,	-14023	,	-11.278414	,	0
40,37	,	127196	,	-16183	,	-14022	,	-12.998831	,	0
40,37	,	127228	,	-16186	,	-14022	,	-14.529173	,	0
40,37	,	127244	,	-16190	,	-14017	,	-15.687023	,	0
40,37	,	127276	,	-16204	,	-14033	,	-16.419884	,	0
40,37	,	127292	,	-16208	,	-14031	,	-16.870901	,	0
40,38	,	127308	,	-16203	,	-14039	,	-17.188063	,	0
40,38	,	127340	,	-16227	,	-14018	,	-17.40134	,	0
40,38	,	127356	,	-16202	,	-14027	,	-17.505585	,	0
40,38	,	127372	,	-16177	,	-14016	,	-17.174469	,	0
40,38	,	127404	,	-16160	,	-14012	,	-15.588709	,	0
40,38	,	127420	,	-16146	,	-14006	,	-12.00628	,	1
40,38	,	127452	,	-16137	,	-14006	,	-6.3032236	,	4
40,38	,	127468	,	-16135	,	-13999	,	0.97965336	,	9
40,38	,	127484	,	-16124	,	-13994	,	8.884859	,	16
40,38	,	127516	,	-16114	,	-13995	,	16.456059	,	23
40,38	,	127532	,	-16121	,	-13997	,	22.95028	,	30
40,38	,	127548	,	-16116	,	-13994	,	27.757282	,	36
40,38	,	127580	,	-16109	,	-13988	,	30.498257	,	40
40,38	,	127596	,	-16111	,	-13995	,	31.191647	,	42
40,38	,	127628	,	-16122	,	-13990	,	30.059618	,	41
40,38	,	127644	,	-16112	,	-13989	,	27.349773	,	38
40,38	,	127660	,	-16123	,	-13997	,	23.43126	,	33
40,38	,	127692	,	-16109	,	-13992	,	18.819855	,	26
40,38	,	127708	,	-16111	,	-13994	,	14.109791	,	19
40,38	,	127724	,	-16122	,	-13990	,	9.794408	,	12
40,38	,	127756	,	-16119	,	-13995	,	6.0599985	,	6
40,38	,	127772	,	-16123	,	-13996	,	2.9068193	,	2
40,38	,	127788	,	-16125	,	-13995	,	0.32587337	,	0
40,38	,	127820	,	-16131	,	-13999	,	-1.7349925	,	0
40,38	,	127836	,	-16127	,	-13996	,	-3.3679068	,	0
40,38	,	127868	,	-16141	,	-14000	,	-4.66488	,	0
40,38	,	127884	,	-16160	,	-13999	,	-5.8572516	,	0
40,38	,	127900	,	-16162	,	-14007	,	-7.345798	,	0
40,38	,	127932	,	-16157	,	-14012	,	-9.313168	,	0
40,38	,	127948	,	-16170	,	-14001	,	-11.522549	,	0
40,38	,	127964	,	-16170	,	-14010	,	-13.630175	,	0
40,38	,	127996	,	-16177	,	-14009	,	-15.413006	,	0
40,38	,	128012	,	-16173	,	-14013	,	-16.714474	,	0
40,38	,	128044	,	-16187	,	-14017	,	-17.43674	,	0
40,38	,	128060	,	-16185	,	-14024	,	-17.615519	,	0
40,38	,	128076	,	-16187	,	-14017	,	-17.353575	,	0
40,38	,	128108	,	-16202	,	-14019	,	-16.770103	,	0
40,38	,	128124	,	-16200	,	-14029	,	-16.076738	,	0
40,38	,	128140	,	-16206	,	-14027	,	-15.466435	,	0
40,38	,	128172	,	-16216	,	-14030	,	-15.019283	,	0
40,38	,	128188	,	-16199	,	-14022	,	-14.711676	,	0
40,38	,	128204	,	-16166	,	-14010	,	-14.132002	,	0
40,38	,	128236	,	-16148	,	-14002	,	-12.371962	,	0
40,38	,	128252	,	-16137	,	-13997	,	-8.61778	,	1
40,38	,	128284	,	-16128	,	-13993	,	-2.765367	,	4
40,39	,	128300	,	-16116	,	-13992	,	4.6052265	,	9
40,39	,	128316	,	-16112	,	-13984	,	12.592103	,	16
40,39	,	128348	,	-16091	,	-13986	,	20.301449	,	23
40,39	,	128364	,	-16086	,	-13977	,	27.095343	,	30
40,39	,	128380	,	-16085	,	-13976	,	32.557446	,	36
40,39	,	128412	,	-16074	,	-13974	,	36.35412	,	41
40,39	,	128428	,	-16075	,	-13978	,	38.31755	,	44
40,39	,	128460	,	-16081	,	-13975	,	38.438293	,	44
40,39	,	128476	,	-16086	,	-13977	,	36.719887	,	41
40,39	,	128492	,	-16082	,	-13975	,	33.265007	,	36
40,39	,	128524	,	-16078	,	-13979	,	28.475027	,	29
40,39	,	128540	,	-16082	,	-13990	,	22.983917	,	22
40,39	,	128556	,	-16075	,	-13971	,	17.419174	,	15
40,39	,	128588	,	-16086	,	-13976	,	12.265684	,	9
40,39	,	128604	,	-16086	,	-13980	,	7.7815456	,	4
40,39	,	128620	,	-16098	,	-13978	,	3.9752054	,	1
40,39	,	128652	,	-16099	,	-13976	,	0.70122385	,	0
40,39	,	128668	,	-16103	,	-13987	,	-2.184829	,	0
40,39	,	128700	,	-16113	,	-13983	,	-4.754325	,	0
40,39	,	128716	,	-16116	,	-13985	,	-7.0713897	,	0
40,39	,	128732	,	-16119	,	-13983	,	-9.175892	,	0
40,39	,	128764	,	-16122	,	-13992	,	-11.011635	,	0
40,39	,	128780	,	-16132	,	-14003	,	-12.507274	,	0
40,39	,	128796	,	-16135	,	-13987	,	-13.686149	,	0
40,39	,	128828	,	-16144	,	-13996	,	-14.638276	,	0
40,39	,	128844	,	-16154	,	-14005	,	-15.477589	,	0
40,39	,	128876	,	-16154	,	-14003	,	-16.312279	,	0
40,39	,	128891	,	-16165	,	-14000	,	-17.162424	,	0
40,39	,	128907	,	-16161	,	-14002	,	-17.944937	,	0
40,39	,	128939	,	-16168	,	-14005	,	-18.51266	,	0
40,39	,	128956	,	-16173	,	-14010	,	-18.737709	,	0
40,39	,	128971	,	-16187	,	-14008	,	-18.6563	,	0
40,39	,	129004	,	-16182	,	-14010	,	-18.438705	,	0
40,39	,	129020	,	-16191	,	-14026	,	-18.178574	,	0
40,39	,	129036	,	-16185	,	-14009	,	-17.81811	,	0
40,39	,	129068	,	-16143	,	-13998	,	-17.007425	,	0
40,39	,	129084	,	-16129	,	-13995	,	-14.932006	,	0
40,39	,	129116	,	-16112	,	-13992	,	-10.782583	,	2
40,39	,	129132	,	-16105	,	-13983	,	-4.42439	,	6
40,39	,	129148	,	-16094	,	-13977	,	3.5518522	,	12
40,39	,	129179	,	-16090	,	-13974	,	12.160337	,	19
40,39	,	129195	,	-16088	,	-13972	,	20.31676	,	27
40,39	,	129212	,	-16061	,	-13972	,	27.166353	,	35
40,39	,	129244	,	-16061	,	-13967	,	32.36914	,	41
40,39	,	129260	,	-16054	,	-13973	,	35.921856	,	46
40,39	,	129291	,	-16057	,	-13958	,	37.809216	,	49
40,40	,	129307	,	-16067	,	-13961	,	37.91783	,	48
40,40	,	129323	,	-16071	,	-13967	,	36.100906	,	44
40,40	,	129355	,	-16058	,	-13964	,	32.453125	,	38
40,40	,	129371	,	-16073	,	-13966	,	27.471964	,	31
40,40	,	129387	,	-16060	,	-13970	,	21.80125	,	23
40,40	,	129420	,	-16069	,	-13967	,	16.039433	,	15
40,40	,	129436	,	-16065	,	-13966	,	10.692128	,	9
40,40	,	129467	,	-16074	,	-13973	,	6.067623	,	4
40,40	,	129483	,	-16079	,	-13971	,	2.2361717	,	1
40,40	,	129500	,	-16084	,	-13977	,	-0.91433954	,	0
40,40	,	129532	,	-16088	,	-13966	,	-3.5492995	,	0
40,40	,	129548	,	-16093	,	-13971	,	-5.786733	,	0
40,40	,	129563	,	-16110	,	-13977	,	-7.7548237	,	0
40,40	,	129595	,	-16111	,	-13973	,	-9.653947	,	0
40,40	,	129611	,	-16118	,	-13980	,	-11.613602	,	0
40,40	,	129627	,	-16114	,	-13987	,	-13.537655	,	0
40,40	,	129660	,	-16124	,	-13986	,	-15.185691	,	0
40,40	,	129675	,	-16121	,	-13987	,	-16.355736	,	0
40,40	,	129707	,	-16126	,	-13988	,	-16.942175	,	0
40,40	,	129724	,	-16132	,	-13992	,	-16.935831	,	0
40,40	,	129739	,	-16140	,	-13995	,	-16.477465	,	0
40,40	,	129771	,	-16148	,	-13990	,	-15.841671	,	0
40,40	,	129787	,	-16149	,	-13988	,	-15.298876	,	0
40,40	,	129804	,	-16160	,	-13994	,	-14.998985	,	0
40,40	,	129836	,	-16164	,	-13998	,	-14.998924	,	0
40,40	,	129851	,	-16175	,	-14000	,	-15.328525	,	0
40,40	,	129883	,	-16176	,	-13999	,	-15.972727	,	0
40,40	,	129899	,	-16178	,	-14003	,	-16.800205	,	0
40,40	,	129915	,	-16160	,	-13992	,	-17.46519	,	0
40,40	,	129947	,	-16146	,	-13988	,	-17.36587	,	0
40,40	,	129963	,	-16119	,	-13978	,	-15.770014	,	0
40,40	,	129980	,	-16117	,	-13973	,	-12.140343	,	1
40,40	,	130011	,	-16090	,	-13969	,	-6.4283695	,	4
40,40	,	130027	,	-16091	,	-13969	,	0.9347267	,	9
40,40	,	130043	,	-16072	,	-13961	,	9.193494	,	16
40,40	,	130075	,	-16067	,	-13957	,	17.471619	,	24
40,40	,	130091	,	-16067	,	-13957	,	24.94447	,	32
40,40	,	130123	,	-16062	,	-13962	,	30.87271	,	39
40,40	,	130139	,	-16076	,	-13960	,	34.647675	,	44
40,40	,	130155	,	-16070	,	-13952	,	35.876003	,	47
40,40	,	130187	,	-16071	,	-13958	,	34.54241	,	47
40,40	,	130203	,	-16070	,	-13955	,	31.084675	,	44
40,40	,	130219	,	-16071	,	-13951	,	26.193468	,	39
40,40	,	130251	,	-16075	,	-13958	,	20.57901	,	32
40,40	,	130267	,	-16077	,	-13949	,	14.836475	,	24
40,40	,	130299	,	-16070	,	-13957	,	9.443182	,	16
40,41	,	130315	,	-16075	,	-13962	,	4.807269	,	9
40,41	,	130331	,	-16086	,	-13959	,	1.1305532	,	4
40,41	,	130363	,	-16082	,	-13966	,	-1.6775875	,	1
40,41	,	130379	,	-16093	,	-13963	,	-3.8147986	,	0
40,41	,	130395	,	-16082	,	-13964	,	-5.422725	,	0
40,41	,	130427	,	-16089	,	-13972	,	-6.5351763	,	0
40,41	,	130443	,	-16111	,	-13967	,	-7.2445955	,	0
40,41	,	130459	,	-16100	,	-13970	,	-7.853341	,	0
40,41	,	130491	,	-16103	,	-13974	,	-8.5459175	,	0
40,41	,	130507	,	-16118	,	-13969	,	-9.263504	,	0
40,41	,	130539	,	-16121	,	-13978	,	-10.02708	,	0
40,41	,	130555	,	-16125	,	-13976	,	-10.937867	,	0
40,41	,	130571	,	-16129	,	-13988	,	-11.97773	,	0
40,41	,	130603	,	-16139	,	-13983	,	-13.056399	,	0
40,41	,	130619	,	-16144	,	-13988	,	-14.131222	,	0
40,41	,	130635	,	-16147	,	-13991	,	-15.180073	,	0
40,41	,	130667	,	-16161	,	-13992	,	-16.167416	,	0
40,41	,	130683	,	-16159	,	-13988	,	-17.083172	,	0
40,41	,	130715	,	-16169	,	-13995	,	-17.900822	,	0
40,41	,	130731	,	-16177	,	-14005	,	-18.585354	,	0
40,41	,	130747	,	-16164	,	-13990	,	-19.074446	,	0
40,41	,	130779	,	-16122	,	-13982	,	-18.915848	,	0
40,41	,	130795	,	-16106	,	-13977	,	-17.133812	,	0
40,41	,	130811	,	-16099	,	-13964	,	-12.9209585	,	1
40,41	,	130843	,	-16092	,	-13960	,	-6.3483143	,	5
40,41	,	130859	,	-16089	,	-13964	,	1.7184668	,	11
40,41	,	130875	,	-16081	,	-13970	,	10.112117	,	19
40,41	,	130907	,	-16067	,	-13962	,	17.817642	,	27
40,41	,	130923	,	-16073	,	-13960	,	24.166311	,	34
40,41	,	130955	,	-16070	,	-13962	,	28.69561	,	40
40,41	,	130971	,	-16059	,	-13963	,	31.149681	,	44
40,41	,	130987	,	-16065	,	-13959	,	31.621712	,	46
40,41	,	131019	,	-16080	,	-13960	,	30.32236	,	45
40,41	,	131035	,	-16075	,	-13962	,	27.37136	,	41
40,41	,	131051	,	-16074	,	-13959	,	23.048252	,	35
40,41	,	131083	,	-16070	,	-13964	,	17.952274	,	27
40,41	,	131099	,	-16065	,	-13959	,	12.816467	,	19
40,41	,	131131	,	-16080	,	-13966	,	8.214554	,	12
40,41	,	131147	,	-16074	,	-13956	,	4.3703737	,	6
40,41	,	131163	,	-16083	,	-13959	,	1.2693868	,	2
40,41	,	131195	,	-16083	,	-13960	,	-1.1737018	,	0
40,41	,	131211	,	-16095	,	-13971	,	-3.115151	,	0
40,41	,	131227	,	-16093	,	-13961	,	-4.7544575	,	0
40,41	,	131259	,	-16105	,	-13968	,	-6.248898	,	0
40,41	,	131275	,	-16118	,	-13973	,	-7.756441	,	0
40,41	,	131291	,	-16116	,	-13973	,	-9.452915	,	0
40,42	,	131323	,	-16122	,	-13971	,	-11.341551	,	0
40,42	,	131339	,	-16123	,	-13975	,	-13.207964	,	0
40,42	,	131370	,	-16136	,	-13979	,	-14.837139	,	0
40,42	,	131387	,	-16147	,	-13985	,	-16.204727	,	0
40,42	,	131403	,	-16144	,	-13988	,	-17.408392	,	0
40,42	,	131435	,	-16157	,	-13987	,	-18.45917	,	0
40,42	,	131451	,	-16158	,	-13998	,	-19.297354	,	0
40,42	,	131467	,	-16162	,	-13989	,	-19.87244	,	0
40,42	,	131499	,	-16160	,	-13993	,	-20.091034	,	0
40,42	,	131515	,	-16178	,	-13999	,	-19.894129	,	0
40,42	,	131547	,	-16179	,	-14001	,	-19.417252	,	0
40,42	,	131563	,	-16182	,	-14008	,	-18.873138	,	0
40,42	,	131579	,	-16171	,	-13996	,	-18.265507	,	0
40,42	,	131611	,	-16146	,	-13987	,	-17.229235	,	0
40,42	,	131627	,	-16132	,	-13976	,	-15.104256	,	1
40,42	,	131643	,	-16103	,	-13970	,	-11.247094	,	3
40,42	,	131674	,	-16097	,	-13966	,	-5.361822	,	6
40,42	,	131691	,	-16086	,	-13967	,	2.2728376	,	11
40,42	,	131723	,	-16072	,	-13966	,	10.869302	,	18
40,42	,	131739	,	-16069	,	-13962	,	19.477062	,	26
40,42	,	131755	,	-16057	,	-13956	,	27.212263	,	34
40,42	,	131787	,	-16056	,	-13948	,	33.376293	,	41
40,42	,	131803	,	-16049	,	-13951	,	37.537983	,	47
40,42	,	131818	,	-16047	,	-13948	,	39.540695	,	50
40,42	,	131850	,	-16055	,	-13953	,	39.427826	,	50
40,42	,	131866	,	-16057	,	-13950	,	37.30951	,	47
40,42	,	131882	,	-16058	,	-13946	,	33.393005	,	42
40,42	,	131915	,	-16060	,	-13954	,	28.10473	,	35
40,42	,	131931	,	-16052	,	-13959	,	22.078321	,	27
40,42	,	131963	,	-16062	,	-13960	,	16.000727	,	19
40,42	,	131979	,	-16065	,	-13949	,	10.36702	,	12
40,42	,	131995	,	-16071	,	-13951	,	5.385932	,	6
40,42	,	132026	,	-16071	,	-13958	,	1.1169925	,	2
40,42	,	132042	,	-16069	,	-13964	,	-2.3779306	,	0
40,42	,	132058	,	-16083	,	-13960	,	-5.058035	,	0
40,42	,	132091	,	-16082	,	-13966	,	-7.034699	,	0
40,42	,	132107	,	-16093	,	-13966	,	-8.531029	,	0
40,42	,	132138	,	-16099	,	-13973	,	-9.772201	,	0
40,42	,	132154	,	-16112	,	-13972	,	-10.986478	,	0
40,42	,	132171	,	-16114	,	-13969	,	-12.363461	,	0
40,42	,	132203	,	-16112	,	-13980	,	-13.900493	,	0
40,42	,	132219	,	-16116	,	-13971	,	-15.347282	,	0
40,42	,	132235	,	-16130	,	-13977	,	-16.4527	,	0
40,42	,	132267	,	-16138	,	-13980	,	-17.228054	,	0
40,42	,	132282	,	-16136	,	-13987	,	-17.822752	,	0
40,42	,	132298	,	-16144	,	-13987	,	-18.26952	,	0
40,43	,	132330	,	-16153	,	-13990	,	-18.541063	,	0
40,43	,	132346	,	-16160	,	-13990	,	-18.707556	,	0
40,43	,	132378	,	-16162	,	-13990	,	-18.866861	,	0
40,43	,	132395	,	-16167	,	-13994	,	-19.017254	,	0
40,43	,	132411	,	-16173	,	-13998	,	-19.091915	,	0
40,43	,	132442	,	-16166	,	-14005	,	-18.99826	,	0
40,43	,	132458	,	-16142	,	-13975	,	-18.435226	,	0
40,43	,	132474	,	-16099	,	-13970	,	-16.651602	,	0
40,43	,	132506	,	-16086	,	-13966	,	-12.658322	,	1
40,43	,	132522	,	-16086	,	-13965	,	-6.0365334	,	4
40,43	,	132554	,	-16067	,	-13958	,	2.6098294	,	10
40,43	,	132570	,	-16061	,	-13959	,	12.132551	,	18
40,43	,	132586	,	-16057	,	-13955	,	21.36854	,	27
40,43	,	132618	,	-16059	,	-13948	,	29.254421	,	36
40,43	,	132634	,	-16051	,	-13946	,	34.954445	,	43
40,43	,	132650	,	-16056	,	-13947	,	38.034615	,	48
40,43	,	132682	,	-16045	,	-13956	,	38.48934	,	51
40,43	,	132698	,	-16056	,	-13934	,	36.64744	,	50
40,43	,	132714	,	-16049	,	-13948	,	33.008335	,	47
40,43	,	132747	,	-16053	,	-13951	,	28.144142	,	41
40,43	,	132762	,	-16043	,	-13948	,	22.69959	,	33
40,43	,	132794	,	-16055	,	-13947	,	17.292582	,	24
40,43	,	132810	,	-16065	,	-13947	,	12.267674	,	15
40,43	,	132826	,	-16065	,	-13953	,	7.641821	,	8
40,43	,	132858	,	-16065	,	-13950	,	3.3977318	,	3
40,43	,	132874	,	-16066	,	-13952	,	-0.32800627	,	0
40,43	,	132890	,	-16071	,	-13955	,	-3.3660583	,	0
40,43	,	132922	,	-16082	,	-13961	,	-5.702999	,	0
40,43	,	132938	,	-16087	,	-13951	,	-7.5368786	,	0
40,43	,	132970	,	-16088	,	-13962	,	-9.100506	,	0
40,43	,	132986	,	-16097	,	-13958	,	-10.492688	,	0
40,43	,	133002	,	-16103	,	-13965	,	-11.751988	,	0
40,43	,	133034	,	-16112	,	-13973	,	-12.953556	,	0
40,43	,	133050	,	-16115	,	-13970	,	-14.16413	,	0
40,43	,	133066	,	-16120	,	-13978	,	-15.362541	,	0
40,43	,	133098	,	-16122	,	-13976	,	-16.428827	,	0
40,43	,	133114	,	-16129	,	-13980	,	-17.2281	,	0
40,43	,	133130	,	-16129	,	-13974	,	-17.686132	,	0
40,43	,	133162	,	-16134	,	-13993	,	-17.774054	,	0
40,43	,	133178	,	-16148	,	-13975	,	-17.546894	,	0
40,43	,	133210	,	-16157	,	-13988	,	-17.238735	,	0
40,43	,	133226	,	-16153	,	-13990	,	-17.1043	,	0
40,43	,	133242	,	-16164	,	-13988	,	-17.17528	,	0
40,43	,	133274	,	-16147	,	-13985	,	-17.2593	,	0
40,43	,	133290	,	-16135	,	-13975	,	-16.935833	,	0
40,44	,	133306	,	-16122	,	-13972	,	-15.6121645	,	0
40,44	,	133338	,	-16103	,	-13968	,	-12.792061	,	1
40,44	,	133354	,	-16083	,	-13959	,	-8.218861	,	3
40,44	,	133386	,	-16084	,	-13954	,	-1.9714589	,	7
40,44	,	133402	,	-16080	,	-13964	,	5.350506	,	13
40,44	,	133418	,	-16069	,	-13951	,	12.785049	,	20
40,44	,	133450	,	-16068	,	-13953	,	19.444675	,	27
40,44	,	133466	,	-16060	,	-13950	,	24.714441	,	33
40,44	,	133482	,	-16058	,	-13950	,	28.261177	,	38
40,44	,	133514	,	-16054	,	-13955	,	30.018475	,	41
40,44	,	133530	,	-16063	,	-13950	,	30.067501	,	41
40,44	,	133546	,	-16057	,	-13951	,	28.537743	,	39
40,44	,	133578	,	-16058	,	-13953	,	25.684563	,	35
40,44	,	133594	,	-16062	,	-13950	,	21.916653	,	29
40,44	,	133626	,	-16064	,	-13956	,	17.647718	,	22
40,44	,	133642	,	-16073	,	-13958	,	13.185403	,	15
40,44	,	133658	,	-16061	,	-13955	,	8.783192	,	9
40,44	,	133690	,	-16066	,	-13957	,	4.768444	,	4
40,44	,	133706	,	-16065	,	-13954	,	1.4723015	,	1
40,44	,	133722	,	-16069	,	-13956	,	-0.96360064	,	0
40,44	,	133754	,	-16079	,	-13950	,	-2.6406853	,	0
40,44	,	133770	,	-16081	,	-13961	,	-3.8414588	,	0
40,44	,	133802	,	-16090	,	-13956	,	-4.881721	,	0
40,44	,	133818	,	-16093	,	-13966	,	-5.984755	,	0
40,44	,	133834	,	-16096	,	-13961	,	-7.235197	,	0
40,44	,	133866	,	-16103	,	-13971	,	-8.594103	,	0
40,44	,	133882	,	-16105	,	-13972	,	-9.97665	,	0
40,44	,	133898	,	-16111	,	-13973	,	-11.2911215	,	0
40,44	,	133930	,	-16127	,	-13969	,	-12.509779	,	0
40,44	,	133946	,	-16127	,	-13975	,	-13.723692	,	0
40,44	,	133978	,	-16132	,	-13980	,	-14.982735	,	0
40,44	,	133994	,	-16139	,	-13979	,	-16.197489	,	0
40,44	,	134010	,	-16133	,	-13978	,	-17.2062	,	0
40,44	,	134042	,	-16141	,	-13983	,	-17.803413	,	0
40,44	,	134058	,	-16132	,	-13977	,	-17.800976	,	0
40,44	,	134074	,	-16122	,	-13970	,	-17.018024	,	0
40,44	,	134106	,	-16113	,	-13966	,	-15.225657	,	0
40,44	,	134122	,	-16093	,	-13959	,	-12.21299	,	1
40,44	,	134138	,	-16067	,	-13961	,	-7.7810454	,	4
40,44	,	134170	,	-16067	,	-13948	,	-1.841609	,	8
40,44	,	134186	,	-16057	,	-13943	,	5.2546806	,	13
40,44	,	134218	,	-16039	,	-13945	,	12.780495	,	20
40,44	,	134234	,	-16039	,	-13943	,	20.016642	,	27
40,44	,	134250	,	-16042	,	-13945	,	26.279251	,	34
40,44	,	134282	,	-16051	,	-13943	,	30.813513	,	40
40,44	,	134298	,	-16054	,	-13942	,	32.970802	,	44
40,45	,	134313	,	-16048	,	-13943	,	32.52182	,	45
40,45	,	134346	,	-16051	,	-13943	,	29.783298	,	42
40,45	,	134362	,	-16048	,	-13946	,	25.4202	,	38
40,45	,	134393	,	-16049	,	-13958	,	20.188274	,	33
40,45	,	134410	,	-16058	,	-13933	,	14.748713	,	26
40,45	,	134426	,	-16052	,	-13945	,	9.560275	,	19
40,45	,	134458	,	-16074	,	-13939	,	4.8650045	,	12
40,45	,	134474	,	-16065	,	-13939	,	0.6991997	,	6
40,45	,	134490	,	-16070	,	-13951	,	-2.9238482	,	2
40,45	,	134522	,	-16081	,	-13947	,	-5.9256434	,	0
40,45	,	134537	,	-16074	,	-13952	,	-8.295007	,	0
40,45	,	134570	,	-16081	,	-13955	,	-10.031833	,	0
40,45	,	134586	,	-16077	,	-13953	,	-11.088754	,	0
40,45	,	134601	,	-16089	,	-13956	,	-11.492544	,	0
40,45	,	134633	,	-16101	,	-13959	,	-11.4776945	,	0
40,45	,	134649	,	-16096	,	-13948	,	-11.410519	,	0
40,45	,	134666	,	-16109	,	-13956	,	-11.518143	,	0
40,45	,	134698	,	-16113	,	-13962	,	-11.87154	,	0
40,45	,	134714	,	-16115	,	-13961	,	-12.483831	,	0
40,45	,	134730	,	-16120	,	-13961	,	-13.258242	,	0
40,45	,	134762	,	-16127	,	-13963	,	-14.047911	,	0
40,45	,	134777	,	-16130	,	-13966	,	-14.765408	,	0
40,45	,	134809	,	-16138	,	-13968	,	-15.374726	,	0
40,45	,	134825	,	-16137	,	-13969	,	-15.850443	,	0
40,45	,	134842	,	-16126	,	-13967	,	-16.066954	,	0
40,45	,	134874	,	-16115	,	-13963	,	-15.684318	,	0
40,45	,	134890	,	-16089	,	-13944	,	-14.188247	,	0
40,45	,	134906	,	-16060	,	-13938	,	-10.979391	,	1
40,45	,	134938	,	-16048	,	-13930	,	-5.592557	,	4
40,45	,	134953	,	-16046	,	-13929	,	1.850635	,	9
40,45	,	134985	,	-16032	,	-13928	,	10.502332	,	16
40,45	,	135001	,	-16027	,	-13923	,	19.223146	,	24
40,45	,	135017	,	-16026	,	-13917	,	26.972858	,	32
40,45	,	135050	,	-16012	,	-13915	,	32.964035	,	39
40,45	,	135066	,	-16015	,	-13913	,	36.797344	,	44
40,45	,	135081	,	-16010	,	-13912	,	38.409462	,	47
40,45	,	135113	,	-16015	,	-13919	,	37.90943	,	47
40,45	,	135129	,	-16014	,	-13908	,	35.528225	,	44
40,45	,	135145	,	-16019	,	-13914	,	31.612587	,	39
40,45	,	135177	,	-16014	,	-13914	,	26.621292	,	32
40,45	,	135193	,	-16003	,	-13918	,	21.167284	,	24
40,45	,	135225	,	-16010	,	-13917	,	15.942039	,	16
40,45	,	135241	,	-16020	,	-13916	,	11.374111	,	9
40,45	,	135257	,	-16027	,	-13918	,	7.4430294	,	4
40,45	,	135289	,	-16028	,	-13922	,	3.930428	,	1
40,46	,	135305	,	-16042	,	-13923	,	0.6675153	,	0
40,46	,	135321	,	-16039	,	-13920	,	-2.4409573	,	0
40,46	,	135353	,	-16046	,	-13931	,	-5.382702	,	0
40,46	,	135370	,	-16055	,	-13924	,	-8.070723	,	0
40,46	,	135401	,	-16061	,	-13930	,	-10.4790535	,	0
40,46	,	135417	,	-16056	,	-13935	,	-12.578018	,	0
40,46	,	135433	,	-16065	,	-13937	,	-14.225208	,	0
40,46	,	135465	,	-16078	,	-13938	,	-15.353949	,	0
40,46	,	135482	,	-16076	,	-13937	,	-16.102045	,	0
40,46	,	135497	,	-16085	,	-13940	,	-16.617498	,	0
40,46	,	135529	,	-16092	,	-13945	,	-16.977955	,	0
40,46	,	135545	,	-16088	,	-13939	,	-17.228611	,	0
40,46	,	135577	,	-16101	,	-13947	,	-17.344189	,	0
40,46	,	135593	,	-16103	,	-13961	,	-17.318401	,	0
40,46	,	135609	,	-16105	,	-13942	,	-17.198156	,	0
40,46	,	135641	,	-16122	,	-13955	,	-17.037317	,	0
40,46	,	135657	,	-16109	,	-13952	,	-16.897533	,	0
40,46	,	135673	,	-16086	,	-13943	,	-16.565193	,	0
40,46	,	135705	,	-16072	,	-13937	,	-15.368085	,	0
40,46	,	135721	,	-16046	,	-13935	,	-12.547937	,	1
40,46	,	135737	,	-16043	,	-13924	,	-7.7150874	,	3
40,46	,	135769	,	-16026	,	-13916	,	-1.0612946	,	7
40,46	,	135785	,	-16022	,	-13915	,	6.728661	,	13
40,46	,	135817	,	-16017	,	-13910	,	14.73274	,	20
40,46	,	135833	,	-16006	,	-13921	,	22.033714	,	28
40,46	,	135849	,	-15998	,	-13904	,	27.974707	,	35
40,46	,	135881	,	-15995	,	-13904	,	32.23371	,	40
40,46	,	135897	,	-15984	,	-13904	,	34.72988	,	44
40,46	,	135913	,	-15983	,	-13901	,	35.581165	,	45
40,46	,	135945	,	-15991	,	-13909	,	34.967968	,	43
40,46	,	135961	,	-15987	,	-13904	,	32.990467	,	39
40,46	,	135993	,	-15995	,	-13899	,	29.763369	,	33
40,46	,	136009	,	-15994	,	-13901	,	25.516197	,	26
40,46	,	136025	,	-15998	,	-13900	,	20.577652	,	18
40,46	,	136057	,	-16000	,	-13903	,	15.332507	,	11
40,46	,	136073	,	-16001	,	-13910	,	10.158419	,	6
40,46	,	136089	,	-16009	,	-13898	,	5.3632545	,	2
40,46	,	136121	,	-16015	,	-13907	,	1.1049247	,	0
40,46	,	136137	,	-16021	,	-13915	,	-2.6110415	,	0
40,46	,	136153	,	-16027	,	-13911	,	-5.8341827	,	0
40,46	,	136185	,	-16022	,	-13915	,	-8.558524	,	0
40,46	,	136201	,	-16024	,	-13925	,	-10.648526	,	0
40,46	,	136233	,	-16048	,	-13923	,	-12.043003	,	0
40,46	,	136249	,	-16041	,	-13926	,	-12.980246	,	0
40,46	,	136265	,	-16054	,	-13930	,	-13.761924	,	0
40,46	,	136297	,	-16065	,	-13931	,	-14.566639	,	0
40,47	,	136313	,	-16059	,	-13934	,	-15.490002	,	0
40,47	,	136329	,	-16070	,	-13931	,	-16.454115	,	0
40,47	,	136361	,	-16072	,	-13937	,	-17.27842	,	0
40,47	,	136377	,	-16089	,	-13941	,	-17.910332	,	0
40,47	,	136409	,	-16093	,	-13943	,	-18.474186	,	0
40,47	,	136425	,	-16090	,	-13951	,	-19.066242	,	0
40,47	,	136441	,	-16104	,	-13948	,	-19.599903	,	0
40,47	,	136473	,	-16099	,	-13951	,	-19.943256	,	0
40,47	,	136489	,	-16095	,	-13948	,	-19.945572	,	0
40,47	,	136505	,	-16082	,	-13934	,	-19.306728	,	0
40,47	,	136537	,	-16068	,	-13936	,	-17.615292	,	0
40,47	,	136553	,	-16042	,	-13927	,	-14.450237	,	1
40,47	,	136569	,	-16023	,	-13920	,	-9.470418	,	4
40,47	,	136601	,	-16016	,	-13914	,	-2.6413326	,	8
40,47	,	136617	,	-15993	,	-13912	,	5.6044345	,	14
40,47	,	136649	,	-15993	,	-13908	,	14.509676	,	22
40,47	,	136665	,	-15998	,	-13909	,	23.085455	,	30
40,47	,	136681	,	-15986	,	-13905	,	30.240444	,	38
40,47	,	136713	,	-15988	,	-13908	,	35.19421	,	45
40,47	,	136729	,	-15990	,	-13904	,	37.626892	,	49
40,47	,	136745	,	-15992	,	-13906	,	37.51226	,	50
40,47	,	136777	,	-16003	,	-13907	,	35.02901	,	47
40,47	,	136793	,	-15989	,	-13910	,	30.591606	,	43
40,47	,	136825	,	-15996	,	-13901	,	24.904905	,	37
40,47	,	136841	,	-16000	,	-13906	,	18.758812	,	29
40,47	,	136857	,	-16001	,	-13910	,	12.739975	,	21
40,47	,	136889	,	-16003	,	-13908	,	7.2380047	,	13
40,47	,	136905	,	-16008	,	-13905	,	2.508194	,	6
40,47	,	136921	,	-16011	,	-13911	,	-1.3465147	,	2
40,47	,	136953	,	-16017	,	-13911	,	-4.3560266	,	0
40,47	,	136969	,	-16015	,	-13915	,	-6.61509	,	0
40,47	,	137001	,	-16034	,	-13914	,	-8.270461	,	0
40,47	,	137017	,	-16031	,	-13917	,	-9.565248	,	0
40,47	,	137033	,	-16042	,	-13923	,	-10.733973	,	0
40,47	,	137065	,	-16039	,	-13919	,	-11.860267	,	0
40,47	,	137081	,	-16055	,	-13925	,	-12.929141	,	0
40,47	,	137097	,	-16049	,	-13926	,	-13.917406	,	0
40,47	,	137128	,	-16056	,	-13931	,	-14.752872	,	0
40,47	,	137144	,	-16068	,	-13933	,	-15.364823	,	0
40,47	,	137160	,	-16062	,	-13933	,	-15.783962	,	0
40,47	,	137193	,	-16078	,	-13937	,	-16.053585	,	0
40,47	,	137209	,	-16077	,	-13941	,	-16.210665	,	0
40,47	,	137241	,	-16086	,	-13945	,	-16.319931	,	0
40,47	,	137257	,	-16098	,	-13948	,	-16.464455	,	0
40,47	,	137273	,	-16079	,	-13943	,	-16.665398	,	0
40,48	,	137304	,	-16060	,	-13933	,	-16.566467	,	0
40,48	,	137320	,	-16046	,	-13926	,	-15.419806	,	0
40,48	,	137336	,	-16024	,	-13918	,	-12.543763	,	1
40,48	,	137369	,	-16018	,	-13912	,	-7.6678514	,	3
40,48	,	137385	,	-16011	,	-13911	,	-1.0774603	,	7
40,48	,	137417	,	-16010	,	-13910	,	6.4201765	,	13
40,48	,	137432	,	-16005	,	-13913	,	13.788635	,	20
40,48	,	137448	,	-16001	,	-13906	,	20.109236	,	27
40,48	,	137480	,	-15995	,	-13907	,	24.795298	,	33
40,48	,	137496	,	-15997	,	-13908	,	27.611954	,	37
40,48	,	137513	,	-16007	,	-13907	,	28.502148	,	39
40,48	,	137545	,	-16006	,	-13910	,	27.466587	,	38
40,48	,	137561	,	-16010	,	-13909	,	24.677074	,	36
40,48	,	137577	,	-15997	,	-13910	,	20.612328	,	32
40,48	,	137608	,	-16004	,	-13909	,	15.985387	,	26
40,48	,	137624	,	-16012	,	-13914	,	11.4068985	,	19
40,48	,	137657	,	-16006	,	-13908	,	7.17628	,	12
40,48	,	137673	,	-16008	,	-13912	,	3.4790273	,	6
40,48	,	137689	,	-16021	,	-13914	,	0.4456916	,	2
40,48	,	137721	,	-16023	,	-13914	,	-2.014361	,	0
40,48	,	137736	,	-16024	,	-13913	,	-4.091597	,	0
40,48	,	137753	,	-16041	,	-13919	,	-5.9233613	,	0
40,48	,	137785	,	-16041	,	-13933	,	-7.672199	,	0
40,48	,	137800	,	-16037	,	-13915	,	-9.410018	,	0
40,48	,	137832	,	-16048	,	-13931	,	-10.988042	,	0
40,48	,	137848	,	-16053	,	-13924	,	-12.271827	,	0
40,48	,	137864	,	-16066	,	-13931	,	-13.326551	,	0
40,48	,	137898	,	-16066	,	-13930	,	-14.307938	,	0
40,48	,	137913	,	-16062	,	-13930	,	-15.2311325	,	0
40,48	,	137928	,	-16076	,	-13932	,	-15.93153	,	0
40,48	,	137960	,	-16077	,	-13942	,	-16.31658	,	0
40,48	,	137976	,	-16090	,	-13948	,	-16.480434	,	0
40,48	,	137992	,	-16095	,	-13936	,	-16.606016	,	0
40,48	,	138024	,	-16093	,	-13951	,	-16.814016	,	0
40,48	,	138040	,	-16077	,	-13927	,	-16.937698	,	0
40,48	,	138072	,	-16029	,	-13920	,	-16.292974	,	0
40,48	,	138088	,	-16023	,	-13916	,	-13.807253	,	0
40,48	,	138104	,	-16004	,	-13910	,	-8.760143	,	2
40,48	,	138136	,	-15998	,	-13908	,	-1.3329382	,	7
40,48	,	138152	,	-15992	,	-13902	,	7.5634346	,	14
40,48	,	138168	,	-15983	,	-13903	,	16.704283	,	22
40,48	,	138200	,	-15979	,	-13901	,	24.943073	,	31
40,48	,	138216	,	-15970	,	-13897	,	31.46346	,	39
40,48	,	138248	,	-15966	,	-13900	,	35.844734	,	45
40,48	,	138264	,	-15970	,	-13904	,	37.974854	,	49
40,48	,	138280	,	-15972	,	-13886	,	37.88276	,	51
40,49	,	138312	,	-15970	,	-13893	,	35.72364	,	49
40,49	,	138328	,	-15976	,	-13892	,	31.85251	,	44
40,49	,	138344	,	-15978	,	-13898	,	26.757526	,	37
40,49	,	138376	,	-15970	,	-13890	,	21.00064	,	29
40,49	,	138392	,	-15978	,	-13901	,	15.196855	,	20
40,49	,	138408	,	-15978	,	-13898	,	9.848867	,	12
40,49	,	138440	,	-15984	,	-13903	,	5.222681	,	6
40,49	,	138456	,	-15995	,	-13899	,	1.3497901	,	2
40,49	,	138488	,	-15992	,	-13907	,	-1.9006295	,	0
40,49	,	138504	,	-16003	,	-13913	,	-4.6551957	,	0
40,49	,	138520	,	-16010	,	-13902	,	-7.010683	,	0
40,49	,	138552	,	-16010	,	-13908	,	-9.0754175	,	0
40,49	,	138568	,	-16015	,	-13923	,	-10.874359	,	0
40,49	,	138584	,	-16031	,	-13917	,	-12.403935	,	0
40,49	,	138616	,	-16037	,	-13918	,	-13.795688	,	0
40,49	,	138632	,	-16044	,	-13923	,	-15.226166	,	0
40,49	,	138664	,	-16041	,	-13924	,	-16.692913	,	0
