Data recorded on Wed Jul 26 15-15-59 CAT 2017
Time: 15:16:10
Time		Millis		IR PPG		Red PPG		Filtered		SSF
16,19	,	26321	,	-27289	,	-25158	,	10.710585	,	0
16,19	,	26337	,	-27300	,	-25164	,	4.2337923	,	0
16,19	,	26370	,	-27309	,	-25116	,	-0.9297352	,	0
16,19	,	26386	,	-27300	,	-25135	,	-4.889063	,	0
16,19	,	26402	,	-27294	,	-25129	,	-7.6714077	,	0
16,19	,	26434	,	-27275	,	-25051	,	-9.05228	,	0
16,19	,	26450	,	-27231	,	-25016	,	-8.538625	,	0
16,19	,	26466	,	-27235	,	-25035	,	-5.550753	,	0
16,19	,	26498	,	-27249	,	-24991	,	-0.19569159	,	2
16,19	,	26514	,	-27239	,	-25040	,	6.380679	,	7
16,19	,	26545	,	-27250	,	-25048	,	12.717661	,	13
16,19	,	26561	,	-27231	,	-25008	,	17.75694	,	19
16,19	,	26577	,	-27217	,	-24967	,	21.141064	,	24
16,19	,	26609	,	-27199	,	-24929	,	23.210493	,	27
16,19	,	26626	,	-27177	,	-24892	,	24.665241	,	29
16,19	,	26641	,	-27163	,	-24883	,	26.208206	,	30
16,19	,	26674	,	-27174	,	-24872	,	28.160227	,	31
16,19	,	26690	,	-27174	,	-24889	,	30.171059	,	30
16,19	,	26705	,	-27186	,	-24963	,	31.455276	,	27
16,19	,	26737	,	-27232	,	-25001	,	31.071796	,	22
16,19	,	26753	,	-27285	,	-25096	,	27.801907	,	16
16,19	,	26785	,	-27291	,	-25106	,	20.527775	,	11
16,19	,	26802	,	-27295	,	-25137	,	9.303398	,	8
16,19	,	26818	,	-27278	,	-25069	,	-4.240678	,	6
16,19	,	26849	,	-27268	,	-25071	,	-17.56328	,	5
16,19	,	26866	,	-27269	,	-25090	,	-28.249626	,	4
16,19	,	26882	,	-27271	,	-25110	,	-34.865044	,	3
16,19	,	26913	,	-27294	,	-25133	,	-37.272472	,	1
16,19	,	26929	,	-27307	,	-25165	,	-36.43222	,	0
16,19	,	26961	,	-27318	,	-25210	,	-33.81167	,	0
16,19	,	26977	,	-27336	,	-25194	,	-30.757673	,	2
16,19	,	26993	,	-27362	,	-25253	,	-28.319834	,	5
16,19	,	27025	,	-27382	,	-25286	,	-27.309883	,	7
16,19	,	27041	,	-27394	,	-25311	,	-28.156033	,	8
16,19	,	27057	,	-27410	,	-25345	,	-30.730783	,	8
16,19	,	27089	,	-27431	,	-25347	,	-34.527294	,	8
16,19	,	27105	,	-27447	,	-25368	,	-38.99118	,	8
16,19	,	27121	,	-27438	,	-25328	,	-43.50535	,	8
16,19	,	27153	,	-27428	,	-25335	,	-47.1374	,	8
16,19	,	27169	,	-27412	,	-25279	,	-48.732143	,	6
16,19	,	27201	,	-27406	,	-25325	,	-47.38202	,	3
16,19	,	27217	,	-27403	,	-25293	,	-42.83818	,	2
16,19	,	27233	,	-27406	,	-25314	,	-35.62227	,	5
16,19	,	27265	,	-27416	,	-25329	,	-26.86318	,	12
16,19	,	27281	,	-27431	,	-25366	,	-18.00601	,	20
16,19	,	27297	,	-27441	,	-25404	,	-10.463442	,	28
16,20	,	27329	,	-27433	,	-25412	,	-5.165862	,	35
16,20	,	27345	,	-27443	,	-25429	,	-2.2892323	,	40
16,20	,	27377	,	-27452	,	-25456	,	-1.5273113	,	42
16,20	,	27393	,	-27441	,	-25474	,	-2.4025683	,	42
16,20	,	27409	,	-27448	,	-25467	,	-4.244396	,	41
16,20	,	27441	,	-27451	,	-25492	,	-6.3564844	,	37
16,20	,	27457	,	-27439	,	-25456	,	-8.22079	,	30
16,20	,	27473	,	-27450	,	-25473	,	-9.454721	,	22
16,20	,	27505	,	-27432	,	-25471	,	-9.826014	,	14
16,20	,	27521	,	-27428	,	-25471	,	-9.195137	,	7
16,20	,	27553	,	-27437	,	-25474	,	-7.535314	,	2
16,20	,	27569	,	-27428	,	-25485	,	-5.1196938	,	1
16,20	,	27585	,	-27427	,	-25498	,	-2.3661795	,	3
16,20	,	27617	,	-27430	,	-25484	,	0.3777027	,	5
16,20	,	27633	,	-27447	,	-25506	,	2.708174	,	7
16,20	,	27649	,	-27430	,	-25508	,	4.1986833	,	9
16,20	,	27681	,	-27428	,	-25520	,	4.777398	,	10
16,20	,	27697	,	-27429	,	-25486	,	4.7572947	,	10
16,20	,	27713	,	-27453	,	-25523	,	4.33631	,	10
16,20	,	27745	,	-27444	,	-25549	,	3.3812747	,	10
16,20	,	27761	,	-27461	,	-25558	,	1.7472522	,	9
16,20	,	27793	,	-27465	,	-25579	,	-0.54998493	,	7
16,20	,	27809	,	-27479	,	-25589	,	-3.4390442	,	5
16,20	,	27825	,	-27484	,	-25605	,	-6.813462	,	3
16,20	,	27857	,	-27497	,	-25626	,	-10.503091	,	1
16,20	,	27873	,	-27521	,	-25649	,	-14.375043	,	0
16,20	,	27889	,	-27508	,	-25659	,	-18.333899	,	0
16,20	,	27921	,	-27537	,	-25699	,	-22.145973	,	0
16,20	,	27937	,	-27549	,	-25674	,	-25.612524	,	0
16,20	,	27969	,	-27560	,	-25721	,	-28.765518	,	0
16,20	,	27985	,	-27578	,	-25743	,	-31.667213	,	0
16,20	,	28001	,	-27596	,	-25767	,	-34.362988	,	0
16,20	,	28033	,	-27611	,	-25787	,	-36.95645	,	0
16,20	,	28049	,	-27628	,	-25820	,	-39.525913	,	0
16,20	,	28065	,	-27630	,	-25835	,	-42.00013	,	0
16,20	,	28097	,	-27632	,	-25867	,	-44.04928	,	0
16,20	,	28113	,	-27653	,	-25889	,	-45.246437	,	0
16,20	,	28129	,	-27649	,	-25916	,	-45.39382	,	0
16,20	,	28161	,	-27675	,	-25949	,	-44.56837	,	0
16,20	,	28177	,	-27673	,	-25937	,	-43.031788	,	0
16,20	,	28209	,	-27670	,	-25968	,	-41.01116	,	1
16,20	,	28225	,	-27678	,	-25979	,	-38.496353	,	3
16,20	,	28241	,	-27663	,	-25984	,	-35.37052	,	5
16,20	,	28273	,	-27655	,	-25985	,	-31.473534	,	8
16,20	,	28289	,	-27667	,	-25991	,	-26.70816	,	11
16,20	,	28305	,	-27656	,	-25991	,	-21.30343	,	15
16,21	,	28337	,	-27667	,	-25993	,	-15.739793	,	20
16,21	,	28354	,	-27663	,	-25982	,	-10.53019	,	25
16,21	,	28385	,	-27632	,	-25987	,	-5.9380054	,	30
16,21	,	28401	,	-27645	,	-25990	,	-1.7982254	,	33
16,21	,	28417	,	-27634	,	-25948	,	2.0722375	,	35
16,21	,	28449	,	-27619	,	-25949	,	5.652376	,	36
16,21	,	28465	,	-27596	,	-25944	,	9.072425	,	36
16,21	,	28481	,	-27593	,	-25930	,	12.644957	,	36
16,21	,	28513	,	-27573	,	-25919	,	16.534916	,	35
16,21	,	28529	,	-27581	,	-25922	,	20.600027	,	33
16,21	,	28545	,	-27587	,	-25916	,	24.329525	,	32
16,21	,	28577	,	-27588	,	-25914	,	26.959873	,	30
16,21	,	28593	,	-27572	,	-25899	,	27.969223	,	28
16,21	,	28625	,	-27567	,	-25902	,	27.44754	,	25
16,21	,	28641	,	-27560	,	-25906	,	25.908978	,	22
16,21	,	28657	,	-27552	,	-25875	,	23.927116	,	19
16,21	,	28689	,	-27554	,	-25867	,	21.93496	,	16
16,21	,	28705	,	-27545	,	-25864	,	20.14634	,	13
16,21	,	28721	,	-27551	,	-25860	,	18.587484	,	10
16,21	,	28753	,	-27548	,	-25864	,	17.15001	,	6
16,21	,	28768	,	-27540	,	-25845	,	15.71141	,	3
16,21	,	28801	,	-27537	,	-25844	,	14.306883	,	1
16,21	,	28817	,	-27541	,	-25851	,	13.038048	,	0
16,21	,	28833	,	-27539	,	-25842	,	11.881155	,	0
16,21	,	28865	,	-27539	,	-25842	,	10.734373	,	0
16,21	,	28881	,	-27532	,	-25841	,	9.567869	,	0
16,21	,	28897	,	-27540	,	-25800	,	8.429554	,	0
16,21	,	28929	,	-27517	,	-25806	,	7.4236393	,	0
16,21	,	28944	,	-27509	,	-25780	,	6.8327937	,	0
16,21	,	28977	,	-27485	,	-25760	,	7.1138496	,	0
16,21	,	28993	,	-27451	,	-25731	,	8.786345	,	0
16,21	,	29009	,	-27435	,	-25738	,	12.327385	,	1
16,21	,	29040	,	-27423	,	-25705	,	17.81363	,	4
16,21	,	29056	,	-27407	,	-25706	,	24.698868	,	9
16,21	,	29072	,	-27397	,	-25686	,	32.084576	,	15
16,21	,	29104	,	-27392	,	-25684	,	39.021324	,	22
16,21	,	29120	,	-27382	,	-25703	,	44.65771	,	28
16,21	,	29137	,	-27372	,	-25648	,	48.424263	,	33
16,21	,	29169	,	-27382	,	-25665	,	50.06601	,	36
16,21	,	29185	,	-27372	,	-25668	,	49.49816	,	37
16,21	,	29216	,	-27379	,	-25665	,	46.81906	,	36
16,21	,	29232	,	-27368	,	-25653	,	42.38981	,	33
16,21	,	29248	,	-27368	,	-25652	,	36.80599	,	28
16,21	,	29280	,	-27359	,	-25646	,	30.785559	,	22
16,21	,	29296	,	-27359	,	-25647	,	24.9914	,	15
16,22	,	29312	,	-27357	,	-25647	,	19.884537	,	9
16,22	,	29344	,	-27357	,	-25646	,	15.674881	,	4
16,22	,	29360	,	-27341	,	-25674	,	12.44502	,	1
16,22	,	29392	,	-27360	,	-25641	,	10.212304	,	0
16,22	,	29409	,	-27372	,	-25655	,	8.670319	,	0
16,22	,	29425	,	-27371	,	-25654	,	7.2003937	,	0
16,22	,	29456	,	-27368	,	-25664	,	5.3929796	,	0
16,22	,	29472	,	-27370	,	-25656	,	3.2902813	,	0
16,22	,	29488	,	-27369	,	-25655	,	1.1502767	,	0
16,22	,	29520	,	-27377	,	-25655	,	-0.80868006	,	0
16,22	,	29536	,	-27373	,	-25647	,	-2.4852185	,	0
16,22	,	29552	,	-27372	,	-25657	,	-3.7998497	,	0
16,22	,	29584	,	-27371	,	-25651	,	-4.6355085	,	0
16,22	,	29600	,	-27375	,	-25682	,	-4.944129	,	0
16,22	,	29632	,	-27377	,	-25646	,	-4.824547	,	0
16,22	,	29648	,	-27405	,	-25681	,	-4.5915527	,	0
16,22	,	29664	,	-27406	,	-25688	,	-4.7934537	,	0
16,22	,	29697	,	-27404	,	-25689	,	-5.8247824	,	0
16,22	,	29712	,	-27390	,	-25679	,	-7.4817443	,	0
16,22	,	29728	,	-27375	,	-25681	,	-9.015799	,	0
16,22	,	29760	,	-27377	,	-25678	,	-9.592158	,	0
16,22	,	29776	,	-27363	,	-25673	,	-8.745568	,	0
16,22	,	29808	,	-27358	,	-25660	,	-6.436733	,	0
16,22	,	29824	,	-27360	,	-25672	,	-2.9417834	,	2
16,22	,	29840	,	-27349	,	-25678	,	1.2116213	,	5
16,22	,	29872	,	-27349	,	-25657	,	5.4614944	,	9
16,22	,	29888	,	-27334	,	-25671	,	9.408779	,	13
16,22	,	29904	,	-27335	,	-25665	,	12.842626	,	16
16,22	,	29936	,	-27351	,	-25659	,	15.544429	,	19
16,22	,	29952	,	-27346	,	-25668	,	17.11746	,	21
16,22	,	29968	,	-27344	,	-25677	,	17.276264	,	22
16,22	,	30000	,	-27355	,	-25675	,	16.087269	,	22
16,22	,	30016	,	-27357	,	-25669	,	13.764941	,	20
16,22	,	30048	,	-27355	,	-25674	,	10.578489	,	17
16,22	,	30064	,	-27342	,	-25672	,	7.011884	,	13
16,22	,	30080	,	-27354	,	-25688	,	3.6860027	,	9
16,22	,	30112	,	-27360	,	-25656	,	0.9603076	,	6
16,22	,	30128	,	-27355	,	-25682	,	-1.1723416	,	3
16,22	,	30144	,	-27350	,	-25686	,	-2.7462144	,	1
16,22	,	30176	,	-27361	,	-25690	,	-3.7234437	,	0
16,22	,	30192	,	-27365	,	-25696	,	-4.223177	,	0
16,22	,	30224	,	-27365	,	-25694	,	-4.5062656	,	0
16,22	,	30240	,	-27355	,	-25690	,	-4.694549	,	0
16,22	,	30256	,	-27371	,	-25695	,	-4.741214	,	0
16,22	,	30288	,	-27380	,	-25701	,	-4.743482	,	0
16,22	,	30304	,	-27381	,	-25697	,	-4.9973984	,	0
16,23	,	30320	,	-27383	,	-25729	,	-5.672903	,	0
16,23	,	30352	,	-27398	,	-25690	,	-6.738941	,	0
16,23	,	30368	,	-27414	,	-25728	,	-8.227585	,	0
16,23	,	30400	,	-27413	,	-25734	,	-10.259033	,	0
16,23	,	30416	,	-27412	,	-25721	,	-12.719466	,	0
16,23	,	30432	,	-27410	,	-25741	,	-15.141781	,	0
16,23	,	30464	,	-27412	,	-25737	,	-16.969055	,	0
16,23	,	30480	,	-27409	,	-25735	,	-17.82057	,	0
16,23	,	30496	,	-27396	,	-25723	,	-17.494013	,	0
16,23	,	30528	,	-27385	,	-25720	,	-15.82354	,	0
16,23	,	30544	,	-27383	,	-25724	,	-12.732033	,	1
16,23	,	30560	,	-27361	,	-25731	,	-8.355727	,	4
16,23	,	30592	,	-27357	,	-25703	,	-2.960743	,	8
16,23	,	30608	,	-27350	,	-25725	,	3.07302	,	13
16,23	,	30640	,	-27350	,	-25717	,	9.171164	,	19
16,23	,	30656	,	-27355	,	-25717	,	14.625367	,	25
16,23	,	30672	,	-27349	,	-25725	,	18.769701	,	30
16,23	,	30704	,	-27355	,	-25713	,	21.189163	,	34
16,23	,	30720	,	-27353	,	-25715	,	21.779293	,	36
16,23	,	30736	,	-27354	,	-25725	,	20.693592	,	35
16,23	,	30768	,	-27356	,	-25733	,	18.289585	,	32
16,23	,	30784	,	-27345	,	-25725	,	15.068811	,	28
16,23	,	30816	,	-27349	,	-25749	,	11.62121	,	23
16,23	,	30832	,	-27362	,	-25710	,	8.380137	,	17
16,23	,	30848	,	-27346	,	-25736	,	5.4876766	,	11
16,23	,	30880	,	-27365	,	-25736	,	2.9945602	,	6
16,23	,	30896	,	-27352	,	-25731	,	0.9188223	,	2
16,23	,	30912	,	-27355	,	-25731	,	-0.7269244	,	0
16,23	,	30944	,	-27362	,	-25740	,	-1.9002194	,	0
16,23	,	30960	,	-27354	,	-25739	,	-2.6447287	,	0
16,23	,	30976	,	-27349	,	-25742	,	-2.9916773	,	0
16,23	,	31008	,	-27356	,	-25748	,	-2.8907444	,	0
16,23	,	31024	,	-27364	,	-25747	,	-2.450508	,	0
16,23	,	31056	,	-27365	,	-25744	,	-1.994887	,	0
16,23	,	31072	,	-27362	,	-25726	,	-1.7863586	,	0
16,23	,	31088	,	-27370	,	-25738	,	-1.8783388	,	0
16,23	,	31120	,	-27386	,	-25735	,	-2.3195956	,	0
16,23	,	31136	,	-27383	,	-25743	,	-3.2672591	,	0
16,23	,	31152	,	-27387	,	-25750	,	-4.748948	,	0
16,23	,	31184	,	-27394	,	-25750	,	-6.57316	,	0
16,23	,	31200	,	-27398	,	-25755	,	-8.523573	,	0
16,23	,	31232	,	-27397	,	-25760	,	-10.406625	,	0
16,23	,	31248	,	-27413	,	-25765	,	-12.048953	,	0
16,23	,	31264	,	-27398	,	-25762	,	-13.340041	,	0
16,23	,	31295	,	-27394	,	-25772	,	-14.070467	,	0
16,24	,	31312	,	-27376	,	-25739	,	-13.838732	,	0
16,24	,	31328	,	-27357	,	-25759	,	-12.185001	,	0
16,24	,	31359	,	-27367	,	-25758	,	-8.8656225	,	1
16,24	,	31376	,	-27363	,	-25752	,	-4.2112765	,	4
16,24	,	31392	,	-27358	,	-25743	,	0.98694944	,	8
16,24	,	31424	,	-27362	,	-25737	,	5.94295	,	13
16,24	,	31440	,	-27365	,	-25740	,	10.019812	,	17
16,24	,	31471	,	-27359	,	-25740	,	12.76567	,	21
16,24	,	31487	,	-27354	,	-25741	,	14.080418	,	23
16,24	,	31503	,	-27358	,	-25729	,	14.181902	,	24
16,24	,	31535	,	-27362	,	-25752	,	13.334515	,	24
16,24	,	31551	,	-27354	,	-25727	,	11.760758	,	23
16,24	,	31568	,	-27346	,	-25743	,	9.807923	,	20
16,24	,	31600	,	-27363	,	-25739	,	7.866166	,	16
16,24	,	31616	,	-27348	,	-25744	,	6.1097856	,	11
16,24	,	31647	,	-27349	,	-25743	,	4.620444	,	7
16,24	,	31663	,	-27350	,	-25748	,	3.5203593	,	3
16,24	,	31679	,	-27369	,	-25744	,	2.728725	,	1
16,24	,	31712	,	-27366	,	-25743	,	1.8915987	,	0
16,24	,	31728	,	-27355	,	-25740	,	0.7834376	,	0
16,24	,	31744	,	-27352	,	-25745	,	-0.39172912	,	0
16,24	,	31775	,	-27356	,	-25759	,	-1.2670238	,	0
16,24	,	31792	,	-27364	,	-25723	,	-1.7246133	,	0
16,24	,	31808	,	-27373	,	-25741	,	-1.9770986	,	0
16,24	,	31839	,	-27377	,	-25740	,	-2.3804057	,	0
16,24	,	31855	,	-27373	,	-25751	,	-3.1492114	,	0
16,24	,	31887	,	-27376	,	-25744	,	-4.203471	,	0
16,24	,	31904	,	-27380	,	-25755	,	-5.318899	,	0
16,24	,	31920	,	-27394	,	-25747	,	-6.3943543	,	0
16,24	,	31952	,	-27396	,	-25750	,	-7.5251074	,	0
16,24	,	31968	,	-27392	,	-25758	,	-8.778839	,	0
16,24	,	31984	,	-27391	,	-25767	,	-9.974743	,	0
16,24	,	32015	,	-27402	,	-25780	,	-10.845522	,	0
16,24	,	32031	,	-27403	,	-25750	,	-11.319699	,	0
16,24	,	32063	,	-27407	,	-25768	,	-11.493451	,	0
16,24	,	32079	,	-27379	,	-25765	,	-11.329952	,	0
16,24	,	32095	,	-27384	,	-25759	,	-10.502644	,	0
16,24	,	32127	,	-27372	,	-25754	,	-8.694754	,	0
16,24	,	32143	,	-27377	,	-25752	,	-5.9264393	,	1
16,24	,	32159	,	-27363	,	-25755	,	-2.4949036	,	3
16,24	,	32192	,	-27371	,	-25758	,	1.2058625	,	6
16,24	,	32207	,	-27365	,	-25763	,	4.7400084	,	9
16,24	,	32223	,	-27370	,	-25760	,	7.675351	,	12
16,24	,	32255	,	-27375	,	-25762	,	9.662262	,	14
16,24	,	32271	,	-27380	,	-25736	,	10.460814	,	15
16,24	,	32303	,	-27379	,	-25757	,	10.004048	,	15
16,25	,	32319	,	-27379	,	-25760	,	8.4754715	,	15
16,25	,	32335	,	-27383	,	-25749	,	6.235847	,	14
16,25	,	32367	,	-27383	,	-25767	,	3.6627564	,	12
16,25	,	32383	,	-27391	,	-25771	,	1.0525892	,	9
16,25	,	32399	,	-27394	,	-25766	,	-1.4215868	,	6
16,25	,	32431	,	-27395	,	-25771	,	-3.675811	,	3
16,25	,	32447	,	-27391	,	-25770	,	-5.591339	,	1
16,25	,	32479	,	-27385	,	-25762	,	-6.948107	,	0
16,25	,	32495	,	-27408	,	-25775	,	-7.6213884	,	0
16,25	,	32511	,	-27395	,	-25757	,	-7.782955	,	0
16,25	,	32543	,	-27397	,	-25771	,	-7.6421185	,	0
16,25	,	32559	,	-27414	,	-25773	,	-7.300844	,	0
16,25	,	32575	,	-27398	,	-25774	,	-6.9261703	,	0
16,25	,	32607	,	-27417	,	-25773	,	-6.6601763	,	0
16,25	,	32623	,	-27412	,	-25774	,	-6.569621	,	0
16,25	,	32639	,	-27418	,	-25780	,	-6.695196	,	0
16,25	,	32671	,	-27412	,	-25777	,	-6.9601383	,	0
16,25	,	32687	,	-27422	,	-25778	,	-7.217018	,	0
16,25	,	32719	,	-27426	,	-25786	,	-7.4219856	,	0
16,25	,	32735	,	-27424	,	-25789	,	-7.6318703	,	0
16,25	,	32751	,	-27419	,	-25765	,	-7.8121247	,	0
16,25	,	32783	,	-27408	,	-25771	,	-7.7349586	,	0
16,25	,	32799	,	-27394	,	-25765	,	-7.023119	,	0
16,25	,	32815	,	-27387	,	-25765	,	-5.297956	,	0
16,25	,	32847	,	-27380	,	-25758	,	-2.4202054	,	1
16,25	,	32863	,	-27392	,	-25760	,	1.3198996	,	3
16,25	,	32895	,	-27398	,	-25757	,	5.1884217	,	6
16,25	,	32911	,	-27380	,	-25763	,	8.4004135	,	9
16,25	,	32927	,	-27401	,	-25763	,	10.544935	,	12
16,25	,	32959	,	-27398	,	-25769	,	11.4403105	,	14
16,25	,	32975	,	-27400	,	-25759	,	11.007233	,	14
16,25	,	32991	,	-27405	,	-25752	,	9.411006	,	14
16,25	,	33023	,	-27391	,	-25753	,	7.0476985	,	14
16,25	,	33039	,	-27394	,	-25756	,	4.473622	,	13
16,25	,	33055	,	-27391	,	-25768	,	2.2184935	,	11
16,25	,	33087	,	-27391	,	-25768	,	0.5733993	,	8
16,25	,	33103	,	-27404	,	-25761	,	-0.4496591	,	5
16,25	,	33135	,	-27401	,	-25760	,	-1.0800761	,	2
16,25	,	33151	,	-27389	,	-25762	,	-1.5193747	,	0
16,25	,	33167	,	-27405	,	-25771	,	-1.7662745	,	0
16,25	,	33199	,	-27406	,	-25768	,	-1.8785638	,	0
16,25	,	33215	,	-27405	,	-25764	,	-2.0457947	,	0
16,25	,	33231	,	-27405	,	-25760	,	-2.3457794	,	0
16,25	,	33263	,	-27408	,	-25756	,	-2.7224355	,	0
16,25	,	33279	,	-27412	,	-25768	,	-3.130871	,	0
16,26	,	33311	,	-27417	,	-25755	,	-3.5956154	,	0
16,26	,	33327	,	-27428	,	-25763	,	-4.219849	,	0
16,26	,	33343	,	-27433	,	-25766	,	-5.1615305	,	0
16,26	,	33375	,	-27433	,	-25754	,	-6.4921427	,	0
16,26	,	33391	,	-27427	,	-25763	,	-8.029113	,	0
16,26	,	33407	,	-27432	,	-25766	,	-9.391251	,	0
16,26	,	33439	,	-27421	,	-25770	,	-10.212389	,	0
16,26	,	33455	,	-27399	,	-25755	,	-10.128936	,	0
16,26	,	33471	,	-27394	,	-25756	,	-8.712799	,	0
16,26	,	33503	,	-27396	,	-25749	,	-5.799968	,	1
16,26	,	33519	,	-27376	,	-25738	,	-1.6928267	,	3
16,26	,	33551	,	-27372	,	-25753	,	3.1574297	,	7
16,26	,	33567	,	-27364	,	-25735	,	8.335388	,	11
16,26	,	33583	,	-27365	,	-25739	,	13.3527975	,	16
16,26	,	33615	,	-27371	,	-25744	,	17.613777	,	21
16,26	,	33631	,	-27358	,	-25737	,	20.585266	,	25
16,26	,	33647	,	-27366	,	-25738	,	22.040981	,	27
16,26	,	33679	,	-27370	,	-25736	,	21.99218	,	28
16,26	,	33695	,	-27360	,	-25741	,	20.5653	,	27
16,26	,	33727	,	-27361	,	-25745	,	18.12151	,	25
16,26	,	33743	,	-27376	,	-25725	,	15.095855	,	21
16,26	,	33759	,	-27367	,	-25728	,	11.731494	,	17
16,26	,	33791	,	-27367	,	-25733	,	8.249979	,	12
16,26	,	33807	,	-27369	,	-25744	,	4.9841685	,	7
16,26	,	33823	,	-27370	,	-25729	,	2.1993728	,	3
16,26	,	33855	,	-27360	,	-25732	,	0.05358076	,	1
16,26	,	33871	,	-27362	,	-25730	,	-1.30813	,	0
16,26	,	33903	,	-27370	,	-25749	,	-1.8695662	,	0
16,26	,	33919	,	-27368	,	-25737	,	-1.8647194	,	0
16,26	,	33935	,	-27374	,	-25743	,	-1.6248965	,	0
16,26	,	33967	,	-27375	,	-25764	,	-1.4237041	,	0
16,26	,	33983	,	-27379	,	-25734	,	-1.4518566	,	0
16,26	,	33998	,	-27383	,	-25758	,	-1.8041675	,	0
16,26	,	34031	,	-27384	,	-25749	,	-2.4817367	,	0
16,26	,	34047	,	-27387	,	-25747	,	-3.4008205	,	0
16,26	,	34079	,	-27397	,	-25751	,	-4.4678555	,	0
16,26	,	34095	,	-27399	,	-25758	,	-5.667018	,	0
16,26	,	34111	,	-27403	,	-25757	,	-6.997819	,	0
16,26	,	34143	,	-27397	,	-25768	,	-8.342737	,	0
16,26	,	34158	,	-27408	,	-25750	,	-9.488487	,	0
16,26	,	34174	,	-27412	,	-25768	,	-10.3275385	,	0
16,26	,	34206	,	-27409	,	-25734	,	-10.89432	,	0
16,26	,	34222	,	-27383	,	-25753	,	-11.050777	,	0
16,26	,	34238	,	-27368	,	-25744	,	-10.270855	,	0
16,26	,	34271	,	-27365	,	-25740	,	-7.9869723	,	0
16,26	,	34287	,	-27361	,	-25741	,	-4.1378345	,	2
16,27	,	34318	,	-27352	,	-25732	,	0.79153585	,	5
16,27	,	34335	,	-27353	,	-25730	,	6.110528	,	9
16,27	,	34350	,	-27352	,	-25731	,	11.113497	,	14
16,27	,	34382	,	-27349	,	-25722	,	15.179622	,	19
16,27	,	34398	,	-27339	,	-25726	,	17.965683	,	23
16,27	,	34414	,	-27342	,	-25728	,	19.463942	,	25
16,27	,	34447	,	-27336	,	-25702	,	19.831707	,	26
16,27	,	34463	,	-27343	,	-25718	,	19.236885	,	26
16,27	,	34494	,	-27333	,	-25722	,	17.849365	,	24
16,27	,	34510	,	-27345	,	-25721	,	15.872375	,	21
16,27	,	34526	,	-27339	,	-25718	,	13.491738	,	17
16,27	,	34559	,	-27340	,	-25714	,	10.88168	,	12
16,27	,	34574	,	-27337	,	-25702	,	8.273409	,	7
16,27	,	34590	,	-27332	,	-25708	,	5.926797	,	3
16,27	,	34622	,	-27336	,	-25711	,	4.052961	,	1
16,27	,	34639	,	-27331	,	-25709	,	2.7369778	,	0
16,27	,	34655	,	-27330	,	-25712	,	1.9587724	,	0
16,27	,	34686	,	-27328	,	-25685	,	1.6700077	,	0
16,27	,	34702	,	-27335	,	-25702	,	1.751623	,	0
16,27	,	34734	,	-27339	,	-25712	,	1.9492183	,	0
16,27	,	34750	,	-27346	,	-25710	,	1.93395	,	0
16,27	,	34766	,	-27345	,	-25707	,	1.4619586	,	0
16,27	,	34798	,	-27350	,	-25695	,	0.4904824	,	0
16,27	,	34814	,	-27357	,	-25708	,	-0.8881809	,	0
16,27	,	34831	,	-27347	,	-25705	,	-2.518744	,	0
16,27	,	34862	,	-27366	,	-25717	,	-4.1932316	,	0
16,27	,	34878	,	-27377	,	-25718	,	-5.8622036	,	0
16,27	,	34910	,	-27366	,	-25737	,	-7.62968	,	0
16,27	,	34926	,	-27383	,	-25698	,	-9.43676	,	0
16,27	,	34942	,	-27383	,	-25720	,	-11.132351	,	0
16,27	,	34974	,	-27398	,	-25725	,	-12.691658	,	0
16,27	,	34990	,	-27398	,	-25722	,	-14.163975	,	0
16,27	,	35006	,	-27385	,	-25717	,	-15.45981	,	0
16,27	,	35038	,	-27391	,	-25717	,	-16.239117	,	0
16,27	,	35054	,	-27374	,	-25713	,	-16.109713	,	0
16,27	,	35070	,	-27375	,	-25717	,	-14.813107	,	0
16,27	,	35102	,	-27357	,	-25713	,	-12.25395	,	1
16,27	,	35118	,	-27345	,	-25711	,	-8.45895	,	3
16,27	,	35150	,	-27347	,	-25724	,	-3.5935235	,	6
16,27	,	35166	,	-27339	,	-25689	,	1.8971882	,	10
16,27	,	35182	,	-27343	,	-25710	,	7.345001	,	15
16,27	,	35214	,	-27336	,	-25702	,	12.094519	,	20
16,27	,	35230	,	-27341	,	-25696	,	15.664768	,	24
16,27	,	35246	,	-27337	,	-25712	,	17.797441	,	27
16,27	,	35278	,	-27343	,	-25713	,	18.435085	,	29
16,27	,	35294	,	-27340	,	-25702	,	17.690872	,	28
16,28	,	35326	,	-27338	,	-25711	,	15.837987	,	26
16,28	,	35342	,	-27348	,	-25709	,	13.235856	,	23
16,28	,	35358	,	-27349	,	-25710	,	10.172392	,	19
16,28	,	35390	,	-27346	,	-25720	,	6.882071	,	14
16,28	,	35406	,	-27350	,	-25702	,	3.6640105	,	9
16,28	,	35422	,	-27351	,	-25714	,	0.8009515	,	5
16,28	,	35454	,	-27354	,	-25712	,	-1.5583732	,	2
16,28	,	35470	,	-27353	,	-25711	,	-3.3740306	,	0
16,28	,	35486	,	-27362	,	-25710	,	-4.680393	,	0
16,28	,	35518	,	-27367	,	-25712	,	-5.621591	,	0
16,28	,	35534	,	-27371	,	-25718	,	-6.4142566	,	0
16,28	,	35566	,	-27352	,	-25724	,	-7.117884	,	0
16,28	,	35582	,	-27362	,	-25725	,	-7.5117426	,	0
16,28	,	35598	,	-27369	,	-25723	,	-7.423917	,	0
16,28	,	35630	,	-27375	,	-25734	,	-7.0302353	,	0
16,28	,	35646	,	-27376	,	-25716	,	-6.655013	,	0
16,28	,	35662	,	-27378	,	-25729	,	-6.4850597	,	0
16,28	,	35694	,	-27384	,	-25744	,	-6.553727	,	0
16,28	,	35710	,	-27406	,	-25743	,	-6.9459248	,	0
16,28	,	35742	,	-27391	,	-25754	,	-7.822813	,	0
16,28	,	35758	,	-27404	,	-25754	,	-9.125398	,	0
16,28	,	35774	,	-27403	,	-25746	,	-10.571545	,	0
16,28	,	35806	,	-27408	,	-25761	,	-11.909405	,	0
16,28	,	35822	,	-27415	,	-25754	,	-12.990213	,	0
16,28	,	35838	,	-27414	,	-25759	,	-13.763454	,	0
16,28	,	35870	,	-27415	,	-25766	,	-14.19811	,	0
16,28	,	35886	,	-27409	,	-25743	,	-14.19055	,	0
16,28	,	35918	,	-27386	,	-25746	,	-13.490022	,	0
16,28	,	35934	,	-27389	,	-25750	,	-11.725691	,	0
16,28	,	35950	,	-27391	,	-25741	,	-8.787136	,	1
16,28	,	35982	,	-27377	,	-25744	,	-5.0067086	,	3
16,28	,	35998	,	-27379	,	-25742	,	-0.83601	,	6
16,28	,	36014	,	-27394	,	-25745	,	3.2266612	,	10
16,28	,	36046	,	-27378	,	-25750	,	6.5852365	,	14
16,28	,	36062	,	-27391	,	-25764	,	8.844629	,	17
16,28	,	36078	,	-27393	,	-25742	,	9.874235	,	19
16,28	,	36110	,	-27400	,	-25753	,	9.628974	,	20
16,28	,	36126	,	-27402	,	-25748	,	8.183286	,	20
16,28	,	36158	,	-27391	,	-25752	,	5.848483	,	19
16,28	,	36174	,	-27398	,	-25754	,	3.1570969	,	17
16,28	,	36190	,	-27400	,	-25752	,	0.60134006	,	14
16,28	,	36222	,	-27405	,	-25743	,	-1.5868051	,	10
16,28	,	36238	,	-27400	,	-25744	,	-3.3389955	,	6
16,28	,	36254	,	-27388	,	-25740	,	-4.5252013	,	3
16,28	,	36286	,	-27399	,	-25749	,	-4.9561443	,	1
16,28	,	36302	,	-27405	,	-25740	,	-4.691408	,	0
16,29	,	36334	,	-27400	,	-25750	,	-4.0748167	,	0
16,29	,	36350	,	-27414	,	-25751	,	-3.4457183	,	0
16,29	,	36366	,	-27427	,	-25747	,	-3.1421893	,	0
16,29	,	36398	,	-27415	,	-25756	,	-3.474717	,	0
16,29	,	36414	,	-27426	,	-25763	,	-4.4288483	,	0
16,29	,	36430	,	-27428	,	-25764	,	-5.7401457	,	0
16,29	,	36461	,	-27429	,	-25763	,	-7.169882	,	0
16,29	,	36477	,	-27442	,	-25767	,	-8.564588	,	0
16,29	,	36493	,	-27432	,	-25766	,	-9.833707	,	0
16,29	,	36526	,	-27441	,	-25764	,	-10.852238	,	0
16,29	,	36542	,	-27443	,	-25773	,	-11.496892	,	0
16,29	,	36574	,	-27442	,	-25771	,	-11.75691	,	0
16,29	,	36590	,	-27432	,	-25775	,	-11.600788	,	0
16,29	,	36606	,	-27433	,	-25765	,	-10.884989	,	0
16,29	,	36638	,	-27421	,	-25767	,	-9.469649	,	0
16,29	,	36653	,	-27423	,	-25765	,	-7.3212123	,	1
16,29	,	36670	,	-27423	,	-25761	,	-4.599708	,	3
16,29	,	36701	,	-27419	,	-25763	,	-1.6530628	,	5
16,29	,	36718	,	-27419	,	-25765	,	1.1600468	,	7
16,29	,	36749	,	-27429	,	-25758	,	3.5264175	,	9
16,29	,	36765	,	-27438	,	-25762	,	5.080056	,	11
16,29	,	36781	,	-27434	,	-25760	,	5.508384	,	12
16,29	,	36813	,	-27431	,	-25762	,	4.8370266	,	12
16,29	,	36829	,	-27438	,	-25761	,	3.420358	,	12
16,29	,	36846	,	-27433	,	-25754	,	1.65587	,	11
16,29	,	36878	,	-27432	,	-25760	,	-0.11656451	,	9
16,29	,	36894	,	-27438	,	-25760	,	-1.6264982	,	7
16,29	,	36910	,	-27437	,	-25767	,	-2.760706	,	5
16,29	,	36941	,	-27432	,	-25768	,	-3.4953697	,	3
16,29	,	36957	,	-27439	,	-25763	,	-3.8066163	,	1
16,29	,	36990	,	-27448	,	-25772	,	-3.8003378	,	0
16,29	,	37006	,	-27441	,	-25770	,	-3.721281	,	0
16,29	,	37022	,	-27462	,	-25774	,	-3.7916794	,	0
16,29	,	37053	,	-27460	,	-25770	,	-4.224198	,	0
16,29	,	37069	,	-27459	,	-25766	,	-5.1315384	,	0
16,29	,	37085	,	-27462	,	-25768	,	-6.3470364	,	0
16,29	,	37117	,	-27460	,	-25762	,	-7.5570235	,	0
16,29	,	37133	,	-27469	,	-25774	,	-8.522022	,	0
16,29	,	37166	,	-27475	,	-25787	,	-9.194664	,	0
16,29	,	37182	,	-27483	,	-25789	,	-9.722889	,	0
16,29	,	37197	,	-27485	,	-25783	,	-10.296428	,	0
16,29	,	37229	,	-27481	,	-25778	,	-10.950171	,	0
16,29	,	37245	,	-27486	,	-25792	,	-11.523161	,	0
16,29	,	37261	,	-27467	,	-25780	,	-11.741299	,	0
16,29	,	37294	,	-27470	,	-25771	,	-11.269682	,	0
16,30	,	37310	,	-27461	,	-25784	,	-9.8742895	,	0
16,30	,	37325	,	-27461	,	-25791	,	-7.578618	,	1
16,30	,	37357	,	-27459	,	-25762	,	-4.6243386	,	3
16,30	,	37373	,	-27447	,	-25775	,	-1.3359685	,	5
16,30	,	37405	,	-27441	,	-25784	,	2.0541592	,	8
16,30	,	37421	,	-27438	,	-25784	,	5.4138803	,	11
16,30	,	37438	,	-27442	,	-25772	,	8.535312	,	14
16,30	,	37469	,	-27447	,	-25764	,	11.059325	,	17
16,30	,	37485	,	-27447	,	-25776	,	12.600585	,	19
16,30	,	37501	,	-27462	,	-25783	,	12.8866625	,	20
16,30	,	37533	,	-27450	,	-25774	,	11.833994	,	19
16,30	,	37549	,	-27457	,	-25770	,	9.670189	,	17
16,30	,	37581	,	-27454	,	-25788	,	6.874487	,	15
16,30	,	37597	,	-27455	,	-25765	,	3.939622	,	12
16,30	,	37613	,	-27457	,	-25779	,	1.2517438	,	9
16,30	,	37645	,	-27467	,	-25771	,	-1.0032809	,	6
16,30	,	37661	,	-27457	,	-25779	,	-2.8256202	,	3
16,30	,	37677	,	-27470	,	-25785	,	-4.2388735	,	1
16,30	,	37709	,	-27476	,	-25784	,	-5.3269053	,	0
16,30	,	37725	,	-27479	,	-25780	,	-6.2935495	,	0
16,30	,	37741	,	-27475	,	-25776	,	-7.257703	,	0
16,30	,	37773	,	-27477	,	-25789	,	-8.119757	,	0
16,30	,	37789	,	-27467	,	-25787	,	-8.646704	,	0
16,30	,	37821	,	-27476	,	-25781	,	-8.622089	,	0
16,30	,	37837	,	-27481	,	-25768	,	-8.049774	,	0
16,30	,	37853	,	-27468	,	-25783	,	-7.12741	,	0
16,30	,	37885	,	-27486	,	-25788	,	-6.027586	,	0
16,30	,	37901	,	-27486	,	-25782	,	-4.966898	,	1
16,30	,	37917	,	-27487	,	-25789	,	-4.2272305	,	2
16,30	,	37949	,	-27485	,	-25790	,	-3.9113503	,	2
16,30	,	37965	,	-27471	,	-25774	,	-3.8356194	,	2
16,30	,	37997	,	-27463	,	-25777	,	-3.5826428	,	2
16,30	,	38013	,	-27454	,	-25776	,	-2.688408	,	2
16,30	,	38029	,	-27459	,	-25787	,	-0.9420527	,	2
16,30	,	38061	,	-27453	,	-25785	,	1.473555	,	3
16,30	,	38077	,	-27445	,	-25759	,	4.1843853	,	5
16,30	,	38093	,	-27435	,	-25768	,	6.9303703	,	6
16,30	,	38125	,	-27440	,	-25763	,	9.569336	,	7
16,30	,	38141	,	-27434	,	-25766	,	11.901507	,	9
16,30	,	38157	,	-27441	,	-25757	,	13.656794	,	11
16,30	,	38189	,	-27440	,	-25763	,	14.578765	,	12
16,30	,	38205	,	-27436	,	-25761	,	14.533962	,	12
16,30	,	38237	,	-27452	,	-25762	,	13.549101	,	12
16,30	,	38253	,	-27440	,	-25760	,	11.724815	,	11
16,30	,	38269	,	-27430	,	-25765	,	9.3578205	,	9
16,30	,	38301	,	-27437	,	-25777	,	6.9741087	,	7
16,31	,	38317	,	-27443	,	-25750	,	4.928197	,	5
16,31	,	38333	,	-27434	,	-25762	,	3.2605777	,	3
16,31	,	38365	,	-27435	,	-25755	,	1.975416	,	1
16,31	,	38381	,	-27434	,	-25747	,	1.1211796	,	0
16,31	,	38413	,	-27446	,	-25755	,	0.63237417	,	0
16,31	,	38429	,	-27447	,	-25754	,	0.2689526	,	0
16,31	,	38445	,	-27440	,	-25753	,	-0.19008332	,	0
16,31	,	38477	,	-27442	,	-25748	,	-0.732954	,	0
16,31	,	38493	,	-27438	,	-25758	,	-1.1943069	,	0
16,31	,	38509	,	-27430	,	-25757	,	-1.3932652	,	0
16,31	,	38541	,	-27439	,	-25778	,	-1.1994479	,	0
16,31	,	38557	,	-27458	,	-25743	,	-0.7639403	,	0
16,31	,	38573	,	-27450	,	-25758	,	-0.5457979	,	0
16,31	,	38605	,	-27451	,	-25762	,	-0.84861654	,	0
16,31	,	38621	,	-27452	,	-25757	,	-1.5810859	,	0
16,31	,	38653	,	-27457	,	-25759	,	-2.518588	,	0
16,31	,	38669	,	-27462	,	-25763	,	-3.5310624	,	0
16,31	,	38685	,	-27483	,	-25768	,	-4.673018	,	0
16,31	,	38717	,	-27463	,	-25771	,	-6.0740547	,	0
16,31	,	38733	,	-27475	,	-25768	,	-7.6191373	,	0
16,31	,	38749	,	-27466	,	-25762	,	-8.969725	,	0
16,31	,	38781	,	-27485	,	-25772	,	-9.903004	,	0
16,31	,	38797	,	-27461	,	-25739	,	-10.358564	,	0
16,31	,	38829	,	-27450	,	-25764	,	-10.128392	,	0
16,31	,	38845	,	-27431	,	-25759	,	-8.751789	,	0
16,31	,	38861	,	-27426	,	-25749	,	-5.856407	,	1
16,31	,	38893	,	-27420	,	-25748	,	-1.4988847	,	3
16,31	,	38909	,	-27420	,	-25744	,	3.7938905	,	7
16,31	,	38925	,	-27417	,	-25740	,	9.228918	,	12
16,31	,	38957	,	-27408	,	-25731	,	14.06927	,	17
16,31	,	38973	,	-27408	,	-25736	,	17.854471	,	21
16,31	,	39005	,	-27401	,	-25740	,	20.39138	,	24
16,31	,	39021	,	-27408	,	-25760	,	21.636787	,	26
16,31	,	39037	,	-27407	,	-25721	,	21.598358	,	27
16,31	,	39069	,	-27411	,	-25742	,	20.331297	,	26
16,31	,	39085	,	-27411	,	-25740	,	18.006699	,	24
16,31	,	39101	,	-27417	,	-25730	,	14.897596	,	20
16,31	,	39133	,	-27416	,	-25738	,	11.310263	,	15
16,31	,	39149	,	-27410	,	-25739	,	7.6013203	,	10
16,31	,	39165	,	-27407	,	-25742	,	4.210128	,	6
16,31	,	39196	,	-27395	,	-25733	,	1.5908456	,	3
16,31	,	39213	,	-27405	,	-25734	,	0.049791336	,	1
16,31	,	39245	,	-27405	,	-25738	,	-0.45772266	,	0
16,31	,	39261	,	-27413	,	-25749	,	-0.3196823	,	0
16,31	,	39277	,	-27408	,	-25718	,	0.012644237	,	0
16,32	,	39309	,	-27419	,	-25740	,	0.22268927	,	0
16,32	,	39325	,	-27414	,	-25746	,	0.12865755	,	0
16,32	,	39341	,	-27430	,	-25747	,	-0.36321777	,	0
16,32	,	39372	,	-27422	,	-25748	,	-1.282665	,	0
16,32	,	39388	,	-27417	,	-25747	,	-2.4930184	,	0
16,32	,	39420	,	-27422	,	-25748	,	-3.6656625	,	0
16,32	,	39437	,	-27434	,	-25742	,	-4.5850415	,	0
16,32	,	39453	,	-27427	,	-25743	,	-5.2986116	,	0
16,32	,	39484	,	-27430	,	-25756	,	-5.8673677	,	0
16,32	,	39501	,	-27439	,	-25765	,	-6.282057	,	0
16,32	,	39517	,	-27443	,	-25725	,	-6.6262507	,	0
16,32	,	39548	,	-27448	,	-25755	,	-7.058009	,	0
16,32	,	39564	,	-27445	,	-25755	,	-7.6429667	,	0
16,32	,	39580	,	-27452	,	-25765	,	-8.300225	,	0
16,32	,	39613	,	-27457	,	-25760	,	-8.930195	,	0
16,32	,	39629	,	-27466	,	-25768	,	-9.552917	,	0
16,32	,	39661	,	-27467	,	-25770	,	-10.255518	,	0
16,32	,	39676	,	-27476	,	-25766	,	-11.071308	,	0
16,32	,	39693	,	-27475	,	-25771	,	-11.959688	,	0
16,32	,	39724	,	-27459	,	-25764	,	-12.7253065	,	0
16,32	,	39740	,	-27445	,	-25774	,	-12.878609	,	0
16,32	,	39756	,	-27451	,	-25746	,	-11.880351	,	0
16,32	,	39788	,	-27435	,	-25761	,	-9.56505	,	0
16,32	,	39804	,	-27429	,	-25761	,	-6.099122	,	2
16,32	,	39836	,	-27426	,	-25756	,	-1.7856479	,	5
16,32	,	39853	,	-27430	,	-25759	,	2.8835988	,	9
16,32	,	39869	,	-27427	,	-25758	,	7.260378	,	13
16,32	,	39900	,	-27425	,	-25758	,	10.784406	,	17
16,32	,	39917	,	-27422	,	-25756	,	13.16985	,	20
16,32	,	39932	,	-27427	,	-25756	,	14.363782	,	22
16,32	,	39965	,	-27440	,	-25759	,	14.348255	,	23
16,32	,	39980	,	-27442	,	-25776	,	13.057001	,	23
16,32	,	39996	,	-27441	,	-25744	,	10.56624	,	21
16,32	,	40029	,	-27445	,	-25755	,	7.236267	,	18
16,32	,	40044	,	-27440	,	-25754	,	3.5901742	,	14
16,32	,	40076	,	-27435	,	-25760	,	0.19264174	,	10
16,32	,	40092	,	-27443	,	-25763	,	-2.483975	,	6
16,32	,	40108	,	-27441	,	-25766	,	-4.251069	,	3
16,32	,	40140	,	-27429	,	-25763	,	-5.116563	,	1
16,32	,	40157	,	-27439	,	-25763	,	-5.1095448	,	0
16,32	,	40172	,	-27443	,	-25775	,	-4.4154315	,	0
16,32	,	40204	,	-27448	,	-25768	,	-3.4473436	,	0
16,32	,	40220	,	-27457	,	-25775	,	-2.6619034	,	0
16,32	,	40252	,	-27453	,	-25755	,	-2.384081	,	0
16,32	,	40268	,	-27459	,	-25771	,	-2.6901443	,	0
16,32	,	40284	,	-27467	,	-25761	,	-3.4850628	,	0
16,33	,	40316	,	-27455	,	-25769	,	-4.6147356	,	0
16,33	,	40332	,	-27464	,	-25762	,	-5.808847	,	0
16,33	,	40348	,	-27459	,	-25764	,	-6.769319	,	0
16,33	,	40380	,	-27459	,	-25776	,	-7.299666	,	0
16,33	,	40396	,	-27475	,	-25785	,	-7.370829	,	0
16,33	,	40412	,	-27480	,	-25780	,	-7.23964	,	0
16,33	,	40444	,	-27486	,	-25783	,	-7.3014226	,	0
16,33	,	40460	,	-27481	,	-25795	,	-7.747286	,	0
16,33	,	40492	,	-27484	,	-25770	,	-8.456673	,	0
16,33	,	40508	,	-27505	,	-25781	,	-9.261182	,	0
16,33	,	40524	,	-27508	,	-25794	,	-10.233938	,	0
16,33	,	40556	,	-27499	,	-25786	,	-11.460604	,	0
16,33	,	40572	,	-27488	,	-25792	,	-12.631723	,	0
16,33	,	40588	,	-27486	,	-25791	,	-13.157789	,	0
16,33	,	40620	,	-27476	,	-25784	,	-12.5769825	,	0
16,33	,	40637	,	-27473	,	-25782	,	-10.727364	,	0
16,33	,	40668	,	-27479	,	-25779	,	-7.7799206	,	1
16,33	,	40684	,	-27467	,	-25780	,	-4.1906586	,	3
16,33	,	40700	,	-27465	,	-25789	,	-0.425272	,	6
16,33	,	40732	,	-27467	,	-25771	,	3.1752312	,	9
16,33	,	40748	,	-27482	,	-25777	,	6.2056494	,	12
16,33	,	40764	,	-27477	,	-25790	,	8.178	,	15
16,33	,	40796	,	-27483	,	-25776	,	8.812276	,	16
16,33	,	40812	,	-27474	,	-25786	,	8.208467	,	16
16,33	,	40828	,	-27474	,	-25780	,	6.7645464	,	16
16,33	,	40860	,	-27475	,	-25778	,	4.9682436	,	15
16,33	,	40876	,	-27490	,	-25780	,	3.1176198	,	13
16,33	,	40908	,	-27481	,	-25774	,	1.2611704	,	10
16,33	,	40924	,	-27484	,	-25784	,	-0.5402994	,	7
16,33	,	40940	,	-27476	,	-25799	,	-2.0712657	,	4
16,33	,	40972	,	-27496	,	-25771	,	-3.173967	,	1
16,33	,	40988	,	-27480	,	-25780	,	-3.909294	,	0
16,33	,	41004	,	-27481	,	-25786	,	-4.3295197	,	0
16,33	,	41036	,	-27496	,	-25794	,	-4.4153366	,	0
16,33	,	41052	,	-27490	,	-25797	,	-4.313803	,	0
16,33	,	41084	,	-27496	,	-25793	,	-4.2365046	,	0
16,33	,	41100	,	-27504	,	-25793	,	-4.3055964	,	0
16,33	,	41116	,	-27504	,	-25798	,	-4.6250787	,	0
16,33	,	41148	,	-27508	,	-25789	,	-5.229495	,	0
16,33	,	41164	,	-27508	,	-25793	,	-6.0274086	,	0
16,33	,	41180	,	-27517	,	-25805	,	-6.8966103	,	0
16,33	,	41212	,	-27525	,	-25791	,	-7.815194	,	0
16,33	,	41228	,	-27522	,	-25809	,	-8.828795	,	0
16,33	,	41244	,	-27524	,	-25807	,	-9.860446	,	0
16,33	,	41276	,	-27524	,	-25808	,	-10.698248	,	0
16,33	,	41292	,	-27533	,	-25808	,	-11.193563	,	0
16,34	,	41324	,	-27536	,	-25814	,	-11.38158	,	0
16,34	,	41340	,	-27531	,	-25812	,	-11.360007	,	0
16,34	,	41356	,	-27511	,	-25804	,	-11.007788	,	0
16,34	,	41388	,	-27522	,	-25806	,	-9.998499	,	0
16,34	,	41404	,	-27505	,	-25797	,	-8.158834	,	1
16,34	,	41419	,	-27508	,	-25802	,	-5.5695763	,	2
16,34	,	41452	,	-27499	,	-25790	,	-2.4356236	,	4
16,34	,	41468	,	-27495	,	-25793	,	0.9732251	,	7
16,34	,	41500	,	-27495	,	-25792	,	4.36545	,	10
16,34	,	41516	,	-27501	,	-25782	,	7.3927236	,	13
16,34	,	41532	,	-27496	,	-25783	,	9.671152	,	16
16,34	,	41563	,	-27502	,	-25806	,	10.949819	,	18
16,34	,	41580	,	-27504	,	-25790	,	11.161386	,	19
16,34	,	41596	,	-27497	,	-25794	,	10.396973	,	18
16,34	,	41628	,	-27504	,	-25792	,	8.913271	,	17
16,34	,	41644	,	-27495	,	-25785	,	7.050085	,	15
16,34	,	41660	,	-27505	,	-25798	,	5.11513	,	12
16,34	,	41692	,	-27509	,	-25791	,	3.2671685	,	9
16,34	,	41708	,	-27505	,	-25795	,	1.5211966	,	6
16,34	,	41739	,	-27505	,	-25798	,	-0.063394785	,	3
16,34	,	41755	,	-27516	,	-25799	,	-1.3994592	,	1
16,34	,	41771	,	-27507	,	-25801	,	-2.5016	,	0
16,34	,	41804	,	-27513	,	-25801	,	-3.3866277	,	0
16,34	,	41820	,	-27522	,	-25793	,	-4.0637074	,	0
16,34	,	41836	,	-27515	,	-25798	,	-4.614874	,	0
16,34	,	41868	,	-27516	,	-25793	,	-5.0518894	,	0
16,34	,	41884	,	-27526	,	-25800	,	-5.3180265	,	0
16,34	,	41916	,	-27534	,	-25794	,	-5.521598	,	0
16,34	,	41932	,	-27536	,	-25784	,	-5.907465	,	0
16,34	,	41947	,	-27536	,	-25797	,	-6.5953836	,	0
16,34	,	41980	,	-27547	,	-25803	,	-7.5231643	,	0
16,34	,	41995	,	-27555	,	-25803	,	-8.640407	,	0
16,34	,	42011	,	-27543	,	-25808	,	-9.89861	,	0
16,34	,	42043	,	-27542	,	-25791	,	-11.0161495	,	0
16,34	,	42059	,	-27539	,	-25805	,	-11.56282	,	0
16,34	,	42091	,	-27551	,	-25800	,	-11.333256	,	0
16,34	,	42108	,	-27529	,	-25793	,	-10.398083	,	0
16,34	,	42123	,	-27516	,	-25807	,	-8.7286625	,	0
16,34	,	42155	,	-27522	,	-25798	,	-6.155432	,	1
16,34	,	42171	,	-27502	,	-25784	,	-2.720037	,	3
16,34	,	42188	,	-27508	,	-25777	,	1.3053136	,	6
16,34	,	42220	,	-27497	,	-25776	,	5.54797	,	10
16,34	,	42236	,	-27489	,	-25776	,	9.62414	,	14
16,34	,	42252	,	-27496	,	-25774	,	13.2235	,	18
16,34	,	42284	,	-27501	,	-25782	,	15.973471	,	21
16,34	,	42300	,	-27482	,	-25781	,	17.534334	,	23
16,35	,	42332	,	-27495	,	-25775	,	17.900866	,	24
16,35	,	42347	,	-27493	,	-25779	,	17.243109	,	23
16,35	,	42363	,	-27497	,	-25777	,	15.679165	,	21
16,35	,	42395	,	-27495	,	-25792	,	13.376866	,	18
16,35	,	42411	,	-27500	,	-25782	,	10.597148	,	14
16,35	,	42427	,	-27499	,	-25772	,	7.6156645	,	10
16,35	,	42459	,	-27499	,	-25774	,	4.696962	,	6
16,35	,	42475	,	-27487	,	-25776	,	2.1410246	,	3
16,35	,	42507	,	-27481	,	-25772	,	0.31569147	,	1
16,35	,	42523	,	-27490	,	-25774	,	-0.5264709	,	0
16,35	,	42539	,	-27502	,	-25779	,	-0.5553509	,	0
16,35	,	42571	,	-27489	,	-25764	,	-0.2527633	,	0
16,35	,	42587	,	-27496	,	-25772	,	0.045629323	,	0
16,35	,	42603	,	-27502	,	-25777	,	0.20965317	,	0
16,35	,	42636	,	-27497	,	-25778	,	0.13512819	,	0
16,35	,	42652	,	-27506	,	-25776	,	-0.2148147	,	0
16,35	,	42668	,	-27503	,	-25769	,	-0.8040131	,	0
16,35	,	42699	,	-27515	,	-25781	,	-1.6073287	,	0
16,35	,	42715	,	-27520	,	-25776	,	-2.6633792	,	0
16,35	,	42747	,	-27528	,	-25783	,	-4.0617766	,	0
16,35	,	42763	,	-27529	,	-25789	,	-5.8204565	,	0
16,35	,	42779	,	-27537	,	-25788	,	-7.820965	,	0
16,35	,	42812	,	-27541	,	-25789	,	-9.883533	,	0
16,35	,	42827	,	-27537	,	-25787	,	-11.800613	,	0
16,35	,	42843	,	-27543	,	-25791	,	-13.318981	,	0
16,35	,	42875	,	-27547	,	-25797	,	-14.257898	,	0
16,35	,	42891	,	-27560	,	-25803	,	-14.6634655	,	0
16,35	,	42923	,	-27552	,	-25791	,	-14.728169	,	0
16,35	,	42939	,	-27554	,	-25790	,	-14.529617	,	0
16,35	,	42955	,	-27534	,	-25782	,	-13.891834	,	0
16,35	,	42987	,	-27528	,	-25788	,	-12.458696	,	0
16,35	,	43003	,	-27528	,	-25776	,	-9.9706135	,	1
16,35	,	43019	,	-27514	,	-25777	,	-6.494268	,	3
16,35	,	43051	,	-27513	,	-25774	,	-2.3092737	,	6
16,35	,	43067	,	-27511	,	-25774	,	2.1997972	,	10
16,35	,	43083	,	-27513	,	-25780	,	6.518406	,	14
16,35	,	43115	,	-27502	,	-25770	,	10.161508	,	18
16,35	,	43131	,	-27491	,	-25780	,	12.942544	,	21
16,35	,	43163	,	-27491	,	-25749	,	14.975915	,	23
16,35	,	43179	,	-27480	,	-25753	,	16.430353	,	25
16,35	,	43195	,	-27486	,	-25745	,	17.390833	,	25
16,35	,	43227	,	-27492	,	-25752	,	17.78706	,	23
16,35	,	43243	,	-27484	,	-25743	,	17.439636	,	20
16,35	,	43259	,	-27479	,	-25739	,	16.34946	,	16
16,35	,	43291	,	-27479	,	-25756	,	14.777621	,	12
16,35	,	43307	,	-27477	,	-25754	,	13.017016	,	8
16,36	,	43339	,	-27476	,	-25745	,	11.267626	,	5
16,36	,	43355	,	-27481	,	-25742	,	9.630056	,	3
16,36	,	43371	,	-27490	,	-25764	,	8.0501995	,	1
16,36	,	43403	,	-27482	,	-25727	,	6.381051	,	0
16,36	,	43419	,	-27481	,	-25741	,	4.6187882	,	0
16,36	,	43435	,	-27471	,	-25736	,	2.9931657	,	0
16,36	,	43467	,	-27487	,	-25733	,	1.748729	,	0
16,36	,	43483	,	-27483	,	-25732	,	0.88349724	,	0
16,36	,	43499	,	-27485	,	-25733	,	0.22788894	,	0
16,36	,	43531	,	-27490	,	-25742	,	-0.3492719	,	0
16,36	,	43548	,	-27489	,	-25735	,	-0.9394191	,	0
16,36	,	43579	,	-27497	,	-25733	,	-1.6133052	,	0
16,36	,	43595	,	-27502	,	-25736	,	-2.435066	,	0
16,36	,	43611	,	-27518	,	-25751	,	-3.5344622	,	0
16,36	,	43643	,	-27517	,	-25728	,	-5.071054	,	0
16,36	,	43659	,	-27505	,	-25747	,	-6.9723897	,	0
16,36	,	43675	,	-27514	,	-25756	,	-8.819362	,	0
16,36	,	43707	,	-27520	,	-25747	,	-10.221714	,	0
16,36	,	43723	,	-27526	,	-25749	,	-11.127922	,	0
16,36	,	43755	,	-27530	,	-25747	,	-11.693026	,	0
16,36	,	43771	,	-27536	,	-25748	,	-12.082224	,	0
16,36	,	43787	,	-27537	,	-25739	,	-12.399286	,	0
16,36	,	43819	,	-27543	,	-25755	,	-12.674759	,	0
16,36	,	43835	,	-27537	,	-25754	,	-12.862473	,	0
16,36	,	43851	,	-27531	,	-25770	,	-12.787088	,	0
16,36	,	43883	,	-27529	,	-25725	,	-12.17847	,	0
16,36	,	43899	,	-27515	,	-25748	,	-10.809328	,	0
16,36	,	43915	,	-27513	,	-25749	,	-8.557196	,	1
16,36	,	43947	,	-27507	,	-25743	,	-5.466319	,	3
16,36	,	43963	,	-27502	,	-25735	,	-1.7827134	,	6
16,36	,	43995	,	-27501	,	-25750	,	2.131425	,	9
16,36	,	44011	,	-27517	,	-25747	,	5.7916994	,	12
16,36	,	44027	,	-27504	,	-25736	,	8.630524	,	15
16,36	,	44059	,	-27500	,	-25744	,	10.345945	,	17
16,36	,	44075	,	-27495	,	-25737	,	11.081012	,	18
16,36	,	44091	,	-27504	,	-25757	,	11.123039	,	18
16,36	,	44123	,	-27492	,	-25735	,	10.6635685	,	17
16,36	,	44139	,	-27504	,	-25742	,	9.837727	,	15
16,36	,	44171	,	-27506	,	-25740	,	8.696196	,	12
16,36	,	44187	,	-27501	,	-25745	,	7.2252746	,	9
16,36	,	44203	,	-27503	,	-25737	,	5.528499	,	6
16,36	,	44235	,	-27508	,	-25743	,	3.7927313	,	3
16,36	,	44251	,	-27494	,	-25740	,	2.1886652	,	1
16,36	,	44267	,	-27506	,	-25740	,	0.9044578	,	0
16,36	,	44299	,	-27494	,	-25738	,	0.06728506	,	0
16,37	,	44315	,	-27504	,	-25744	,	-0.3262396	,	0
16,37	,	44330	,	-27512	,	-25751	,	-0.43869355	,	0
16,37	,	44363	,	-27517	,	-25729	,	-0.60198754	,	0
16,37	,	44379	,	-27516	,	-25733	,	-1.1041888	,	0
16,37	,	44411	,	-27524	,	-25738	,	-2.0147445	,	0
16,37	,	44427	,	-27524	,	-25743	,	-3.2626896	,	0
16,37	,	44443	,	-27521	,	-25747	,	-4.682372	,	0
16,37	,	44474	,	-27533	,	-25749	,	-6.0499215	,	0
16,37	,	44490	,	-27532	,	-25755	,	-7.2462273	,	0
16,37	,	44507	,	-27539	,	-25749	,	-8.277108	,	0
16,37	,	44539	,	-27535	,	-25761	,	-9.136025	,	0
16,37	,	44555	,	-27539	,	-25757	,	-9.746666	,	0
16,37	,	44587	,	-27558	,	-25772	,	-10.109826	,	0
16,37	,	44603	,	-27561	,	-25740	,	-10.470776	,	0
16,37	,	44619	,	-27553	,	-25767	,	-11.059357	,	0
16,37	,	44651	,	-27561	,	-25768	,	-11.772818	,	0
16,37	,	44667	,	-27568	,	-25764	,	-12.394225	,	0
16,37	,	44683	,	-27577	,	-25775	,	-12.895664	,	0
16,37	,	44714	,	-27569	,	-25777	,	-13.328327	,	0
16,37	,	44731	,	-27550	,	-25764	,	-13.49234	,	0
16,37	,	44746	,	-27537	,	-25776	,	-12.84038	,	0
16,37	,	44778	,	-27543	,	-25777	,	-10.882746	,	0
16,37	,	44794	,	-27537	,	-25768	,	-7.651385	,	1
16,37	,	44826	,	-27547	,	-25777	,	-3.6757765	,	4
16,37	,	44842	,	-27525	,	-25745	,	0.4063382	,	7
16,37	,	44858	,	-27541	,	-25768	,	4.1499915	,	11
16,37	,	44891	,	-27534	,	-25756	,	7.2319365	,	14
16,37	,	44907	,	-27548	,	-25762	,	9.317223	,	17
16,37	,	44922	,	-27539	,	-25770	,	10.172649	,	19
16,37	,	44954	,	-27540	,	-25765	,	9.840123	,	19
16,37	,	44970	,	-27540	,	-25768	,	8.622674	,	19
16,37	,	45003	,	-27556	,	-25760	,	6.8201375	,	18
16,37	,	45018	,	-27539	,	-25768	,	4.6235566	,	15
16,37	,	45035	,	-27546	,	-25771	,	2.324273	,	12
16,37	,	45067	,	-27556	,	-25778	,	0.23530293	,	8
16,37	,	45083	,	-27557	,	-25757	,	-1.5879865	,	5
16,37	,	45098	,	-27567	,	-25782	,	-3.2703571	,	2
16,37	,	45130	,	-27554	,	-25776	,	-4.8647985	,	0
16,37	,	45146	,	-27571	,	-25776	,	-6.2803817	,	0
16,37	,	45162	,	-27566	,	-25785	,	-7.4385624	,	0
16,37	,	45194	,	-27565	,	-25788	,	-8.3090315	,	0
16,37	,	45210	,	-27566	,	-25788	,	-8.792064	,	0
16,37	,	45242	,	-27565	,	-25792	,	-8.791918	,	0
16,37	,	45258	,	-27565	,	-25793	,	-8.303032	,	0
16,37	,	45274	,	-27571	,	-25789	,	-7.4153514	,	0
16,37	,	45306	,	-27578	,	-25804	,	-6.3624916	,	0
16,38	,	45323	,	-27581	,	-25770	,	-5.476128	,	1
16,38	,	45338	,	-27579	,	-25792	,	-4.986765	,	1
16,38	,	45370	,	-27593	,	-25801	,	-4.9500036	,	1
16,38	,	45386	,	-27583	,	-25796	,	-5.3350196	,	1
16,38	,	45418	,	-27596	,	-25799	,	-6.022643	,	1
16,38	,	45435	,	-27610	,	-25793	,	-6.9296074	,	1
16,38	,	45450	,	-27604	,	-25801	,	-8.118328	,	1
16,38	,	45482	,	-27613	,	-25797	,	-9.560792	,	1
16,38	,	45498	,	-27594	,	-25802	,	-10.966542	,	1
16,38	,	45514	,	-27580	,	-25794	,	-11.7753525	,	0
16,38	,	45546	,	-27581	,	-25806	,	-11.358805	,	0
16,38	,	45562	,	-27582	,	-25778	,	-9.5013485	,	0
16,38	,	45594	,	-27564	,	-25802	,	-6.469474	,	1
16,38	,	45610	,	-27579	,	-25794	,	-2.696723	,	4
16,38	,	45626	,	-27571	,	-25789	,	1.2608066	,	7
16,38	,	45658	,	-27567	,	-25799	,	4.8309107	,	10
16,38	,	45674	,	-27581	,	-25800	,	7.6260757	,	13
16,38	,	45690	,	-27565	,	-25791	,	9.413256	,	15
16,38	,	45722	,	-27571	,	-25797	,	10.172941	,	16
16,38	,	45738	,	-27572	,	-25799	,	10.070784	,	16
16,38	,	45754	,	-27567	,	-25791	,	9.291843	,	16
16,38	,	45786	,	-27573	,	-25801	,	8.04994	,	15
16,38	,	45802	,	-27583	,	-25782	,	6.499223	,	12
16,38	,	45834	,	-27576	,	-25800	,	4.6696563	,	9
16,38	,	45850	,	-27579	,	-25795	,	2.6661456	,	6
16,38	,	45866	,	-27581	,	-25800	,	0.71169615	,	3
16,38	,	45898	,	-27580	,	-25799	,	-1.0091305	,	1
16,38	,	45914	,	-27595	,	-25804	,	-2.4491115	,	0
16,38	,	45946	,	-27584	,	-25800	,	-3.6816216	,	0
16,38	,	45962	,	-27596	,	-25795	,	-4.750973	,	0
16,38	,	45978	,	-27587	,	-25805	,	-5.619083	,	0
16,38	,	46010	,	-27605	,	-25804	,	-6.276191	,	0
16,38	,	46026	,	-27595	,	-25807	,	-6.787881	,	0
16,38	,	46042	,	-27597	,	-25798	,	-7.167424	,	0
16,38	,	46074	,	-27603	,	-25823	,	-7.335827	,	0
16,38	,	46090	,	-27604	,	-25820	,	-7.296746	,	0
16,38	,	46106	,	-27603	,	-25809	,	-7.1335654	,	0
16,38	,	46138	,	-27629	,	-25812	,	-6.9863987	,	0
16,38	,	46154	,	-27626	,	-25813	,	-7.166267	,	0
16,38	,	46186	,	-27630	,	-25818	,	-7.9244556	,	0
16,38	,	46202	,	-27622	,	-25813	,	-9.122115	,	0
16,38	,	46218	,	-27599	,	-25811	,	-10.20612	,	0
16,38	,	46250	,	-27605	,	-25813	,	-10.444228	,	0
16,38	,	46266	,	-27584	,	-25785	,	-9.335617	,	0
16,38	,	46282	,	-27586	,	-25802	,	-6.7823544	,	1
16,39	,	46314	,	-27588	,	-25807	,	-3.072729	,	3
16,39	,	46330	,	-27581	,	-25800	,	1.1714101	,	6
16,39	,	46362	,	-27574	,	-25801	,	5.324754	,	10
16,39	,	46378	,	-27586	,	-25804	,	8.942705	,	14
16,39	,	46394	,	-27565	,	-25798	,	11.705354	,	17
16,39	,	46426	,	-27582	,	-25791	,	13.478031	,	19
16,39	,	46442	,	-27580	,	-25803	,	14.212903	,	20
16,39	,	46458	,	-27576	,	-25788	,	13.8758545	,	20
16,39	,	46490	,	-27589	,	-25810	,	12.569878	,	19
16,39	,	46506	,	-27576	,	-25785	,	10.506031	,	17
16,39	,	46522	,	-27575	,	-25796	,	8.0316515	,	14
16,39	,	46554	,	-27572	,	-25802	,	5.6294985	,	10
16,39	,	46570	,	-27576	,	-25800	,	3.661416	,	6
16,39	,	46602	,	-27568	,	-25799	,	2.2603233	,	3
16,39	,	46618	,	-27582	,	-25799	,	1.3961365	,	1
16,39	,	46634	,	-27576	,	-25792	,	0.88605607	,	0
16,39	,	46666	,	-27570	,	-25795	,	0.55285	,	0
16,39	,	46682	,	-27579	,	-25797	,	0.36970973	,	0
16,39	,	46698	,	-27581	,	-25803	,	0.28039813	,	0
16,39	,	46730	,	-27576	,	-25808	,	0.14536533	,	0
16,39	,	46746	,	-27578	,	-25783	,	-0.0734697	,	0
16,39	,	46778	,	-27581	,	-25803	,	-0.32772338	,	0
16,39	,	46793	,	-27581	,	-25793	,	-0.6022936	,	0
16,39	,	46810	,	-27584	,	-25808	,	-0.90951335	,	0
16,39	,	46842	,	-27592	,	-25804	,	-1.2951002	,	0
16,39	,	46858	,	-27601	,	-25805	,	-1.8995898	,	0
16,39	,	46874	,	-27588	,	-25814	,	-2.8259776	,	0
16,39	,	46906	,	-27586	,	-25811	,	-3.8864877	,	0
16,39	,	46922	,	-27611	,	-25805	,	-4.815317	,	0
16,39	,	46938	,	-27593	,	-25814	,	-5.6228228	,	0
16,39	,	46970	,	-27582	,	-25806	,	-6.2617326	,	0
16,39	,	46985	,	-27563	,	-25784	,	-6.263511	,	0
16,39	,	47018	,	-27550	,	-25800	,	-5.0124874	,	0
16,39	,	47034	,	-27555	,	-25792	,	-2.2268364	,	1
16,39	,	47049	,	-27552	,	-25784	,	1.7624264	,	3
16,39	,	47081	,	-27548	,	-25778	,	6.207903	,	6
16,39	,	47098	,	-27534	,	-25778	,	10.441548	,	10
16,39	,	47114	,	-27533	,	-25776	,	14.118111	,	14
16,39	,	47146	,	-27532	,	-25774	,	17.064987	,	17
16,39	,	47162	,	-27523	,	-25780	,	19.135555	,	19
16,39	,	47193	,	-27523	,	-25771	,	20.28278	,	21
16,39	,	47210	,	-27523	,	-25787	,	20.554724	,	22
16,39	,	47226	,	-27528	,	-25764	,	19.978188	,	21
16,39	,	47258	,	-27514	,	-25776	,	18.616827	,	19
16,39	,	47274	,	-27511	,	-25777	,	16.74591	,	16
16,39	,	47290	,	-27515	,	-25766	,	14.752068	,	12
16,40	,	47321	,	-27531	,	-25771	,	12.766368	,	8
16,40	,	47337	,	-27516	,	-25769	,	10.648281	,	5
16,40	,	47354	,	-27522	,	-25769	,	8.378641	,	3
16,40	,	47386	,	-27520	,	-25773	,	6.14253	,	1
16,40	,	47402	,	-27520	,	-25771	,	4.1061506	,	0
16,40	,	47434	,	-27519	,	-25769	,	2.3742278	,	0
16,40	,	47450	,	-27513	,	-25767	,	1.0546541	,	0
16,40	,	47465	,	-27512	,	-25759	,	0.26429415	,	0
16,40	,	47498	,	-27513	,	-25759	,	0.044944644	,	0
16,40	,	47514	,	-27517	,	-25766	,	0.27401826	,	0
16,40	,	47530	,	-27524	,	-25751	,	0.6755966	,	0
16,40	,	47562	,	-27516	,	-25756	,	0.9552218	,	0
16,40	,	47577	,	-27518	,	-25769	,	1.0004493	,	0
16,40	,	47609	,	-27527	,	-25768	,	0.8367412	,	0
16,40	,	47625	,	-27531	,	-25773	,	0.4057926	,	0
16,40	,	47642	,	-27531	,	-25772	,	-0.39336798	,	0
16,40	,	47673	,	-27524	,	-25772	,	-1.4875053	,	0
16,40	,	47689	,	-27527	,	-25768	,	-2.6046915	,	0
16,40	,	47706	,	-27530	,	-25773	,	-3.485176	,	0
16,40	,	47737	,	-27546	,	-25778	,	-4.1168127	,	0
16,40	,	47753	,	-27526	,	-25776	,	-4.6522536	,	0
16,40	,	47785	,	-27530	,	-25768	,	-5.060174	,	0
16,40	,	47802	,	-27508	,	-25766	,	-5.0375824	,	0
16,40	,	47817	,	-27488	,	-25748	,	-4.1146245	,	0
16,40	,	47849	,	-27503	,	-25760	,	-1.9168854	,	0
16,40	,	47865	,	-27486	,	-25748	,	1.4189427	,	2
16,40	,	47882	,	-27491	,	-25749	,	5.3397017	,	5
16,40	,	47914	,	-27471	,	-25752	,	9.307853	,	8
16,40	,	47930	,	-27464	,	-25748	,	13.027138	,	11
16,40	,	47945	,	-27463	,	-25746	,	16.38083	,	14
16,40	,	47977	,	-27461	,	-25743	,	19.186407	,	17
16,40	,	47993	,	-27452	,	-25742	,	21.207651	,	19
16,40	,	48025	,	-27464	,	-25739	,	22.29277	,	21
16,40	,	48042	,	-27462	,	-25740	,	22.297838	,	22
16,40	,	48057	,	-27457	,	-25745	,	21.149984	,	20
16,40	,	48089	,	-27454	,	-25737	,	19.056362	,	17
16,40	,	48105	,	-27438	,	-25741	,	16.502666	,	14
16,40	,	48121	,	-27454	,	-25744	,	14.014894	,	11
16,40	,	48153	,	-27437	,	-25748	,	11.889222	,	8
16,40	,	48169	,	-27441	,	-25744	,	10.227577	,	5
16,40	,	48201	,	-27443	,	-25738	,	9.037317	,	3
16,40	,	48217	,	-27445	,	-25738	,	8.158674	,	1
16,40	,	48233	,	-27455	,	-25734	,	7.307563	,	0
16,40	,	48265	,	-27450	,	-25739	,	6.2259274	,	0
16,40	,	48281	,	-27454	,	-25746	,	4.8276634	,	0
16,40	,	48297	,	-27458	,	-25754	,	3.1870387	,	0
16,41	,	48329	,	-27463	,	-25752	,	1.3830492	,	0
16,41	,	48345	,	-27461	,	-25747	,	-0.516021	,	0
16,41	,	48361	,	-27466	,	-25749	,	-2.3842964	,	0
16,41	,	48393	,	-27463	,	-25747	,	-4.059184	,	0
16,41	,	48409	,	-27469	,	-25751	,	-5.407144	,	0
16,41	,	48441	,	-27469	,	-25766	,	-6.3733296	,	0
16,41	,	48457	,	-27481	,	-25753	,	-7.021537	,	0
16,41	,	48473	,	-27474	,	-25750	,	-7.4951086	,	0
16,41	,	48505	,	-27484	,	-25769	,	-7.884345	,	0
16,41	,	48521	,	-27484	,	-25753	,	-8.213142	,	0
16,41	,	48537	,	-27477	,	-25755	,	-8.461786	,	0
16,41	,	48569	,	-27489	,	-25754	,	-8.545639	,	0
16,41	,	48585	,	-27499	,	-25751	,	-8.499376	,	0
16,41	,	48617	,	-27507	,	-25759	,	-8.58824	,	0
16,41	,	48633	,	-27503	,	-25755	,	-9.042215	,	0
16,41	,	48649	,	-27513	,	-25762	,	-9.838762	,	0
16,41	,	48681	,	-27504	,	-25766	,	-10.774824	,	0
16,41	,	48697	,	-27489	,	-25751	,	-11.474498	,	0
16,41	,	48713	,	-27471	,	-25755	,	-11.329458	,	0
16,41	,	48745	,	-27467	,	-25740	,	-9.749855	,	0
16,41	,	48761	,	-27459	,	-25753	,	-6.5533953	,	1
16,41	,	48777	,	-27449	,	-25737	,	-2.0193343	,	4
16,41	,	48809	,	-27457	,	-25746	,	3.269422	,	8
16,41	,	48825	,	-27450	,	-25743	,	8.531529	,	13
16,41	,	48857	,	-27444	,	-25746	,	13.053526	,	18
16,41	,	48873	,	-27442	,	-25738	,	16.457428	,	22
16,41	,	48889	,	-27440	,	-25735	,	18.633657	,	25
16,41	,	48921	,	-27445	,	-25745	,	19.56433	,	27
16,41	,	48937	,	-27450	,	-25728	,	19.239252	,	27
16,41	,	48953	,	-27445	,	-25739	,	17.715992	,	26
16,41	,	48985	,	-27439	,	-25741	,	15.280907	,	23
16,41	,	49001	,	-27444	,	-25732	,	12.410342	,	19
16,41	,	49033	,	-27451	,	-25736	,	9.476724	,	14
16,41	,	49049	,	-27448	,	-25736	,	6.629897	,	9
16,41	,	49065	,	-27444	,	-25729	,	3.9942775	,	5
16,41	,	49097	,	-27440	,	-25721	,	1.7950215	,	2
16,41	,	49113	,	-27442	,	-25738	,	0.24741006	,	0
16,41	,	49129	,	-27450	,	-25736	,	-0.6303581	,	0
16,41	,	49161	,	-27464	,	-25750	,	-1.1271111	,	0
16,41	,	49177	,	-27451	,	-25722	,	-1.6466895	,	0
16,41	,	49193	,	-27460	,	-25741	,	-2.345355	,	0
16,41	,	49225	,	-27461	,	-25746	,	-3.1472635	,	0
16,41	,	49241	,	-27481	,	-25744	,	-4.0679207	,	0
16,41	,	49273	,	-27463	,	-25740	,	-5.2197046	,	0
16,41	,	49289	,	-27488	,	-25743	,	-6.5801244	,	0
16,41	,	49305	,	-27486	,	-25750	,	-8.078255	,	0
16,42	,	49337	,	-27496	,	-25762	,	-9.717637	,	0
16,42	,	49353	,	-27493	,	-25753	,	-11.426981	,	0
16,42	,	49369	,	-27486	,	-25762	,	-12.946938	,	0
16,42	,	49401	,	-27512	,	-25773	,	-14.0047245	,	0
16,42	,	49417	,	-27492	,	-25742	,	-14.557383	,	0
16,42	,	49449	,	-27506	,	-25758	,	-14.64542	,	0
16,42	,	49465	,	-27521	,	-25767	,	-14.355083	,	0
16,42	,	49481	,	-27514	,	-25766	,	-13.961882	,	0
16,42	,	49513	,	-27513	,	-25765	,	-13.61911	,	0
16,42	,	49529	,	-27515	,	-25771	,	-13.188396	,	0
16,42	,	49545	,	-27525	,	-25778	,	-12.560654	,	0
16,42	,	49577	,	-27515	,	-25772	,	-11.786456	,	0
16,42	,	49593	,	-27509	,	-25773	,	-10.8403	,	0
16,42	,	49609	,	-27497	,	-25756	,	-9.491081	,	0
16,42	,	49641	,	-27492	,	-25783	,	-7.4584765	,	1
16,42	,	49657	,	-27496	,	-25754	,	-4.6734953	,	3
16,42	,	49689	,	-27499	,	-25761	,	-1.4451361	,	5
16,42	,	49705	,	-27489	,	-25774	,	1.7223213	,	8
16,42	,	49721	,	-27489	,	-25769	,	4.482934	,	11
16,42	,	49753	,	-27493	,	-25777	,	6.6713076	,	13
16,42	,	49769	,	-27492	,	-25772	,	8.134947	,	15
16,42	,	49784	,	-27504	,	-25769	,	8.719618	,	16
16,42	,	49816	,	-27510	,	-25776	,	8.283962	,	16
16,42	,	49833	,	-27510	,	-25775	,	6.771702	,	15
16,42	,	49865	,	-27509	,	-25778	,	4.3838506	,	13
16,42	,	49881	,	-27494	,	-25797	,	1.6398644	,	11
16,42	,	49897	,	-27512	,	-25762	,	-0.8441479	,	8
16,42	,	49928	,	-27511	,	-25775	,	-2.7652175	,	5
16,42	,	49945	,	-27505	,	-25783	,	-4.142606	,	3
16,42	,	49961	,	-27518	,	-25788	,	-5.0320635	,	1
16,42	,	49993	,	-27514	,	-25789	,	-5.5325236	,	0
16,42	,	50009	,	-27520	,	-25790	,	-5.798497	,	0
16,42	,	50025	,	-27529	,	-25792	,	-5.9827895	,	0
16,42	,	50056	,	-27522	,	-25793	,	-6.2307744	,	0
16,42	,	50072	,	-27526	,	-25796	,	-6.55173	,	0
16,42	,	50104	,	-27524	,	-25791	,	-6.810356	,	0
16,42	,	50120	,	-27516	,	-25818	,	-6.8343945	,	0
16,42	,	50136	,	-27522	,	-25778	,	-6.4609365	,	0
16,42	,	50169	,	-27540	,	-25804	,	-5.752413	,	0
16,42	,	50185	,	-27536	,	-25809	,	-5.0964613	,	0
16,42	,	50201	,	-27539	,	-25806	,	-4.838066	,	0
16,42	,	50232	,	-27545	,	-25806	,	-5.0347633	,	0
16,42	,	50248	,	-27561	,	-25810	,	-5.6765137	,	0
16,42	,	50280	,	-27563	,	-25819	,	-6.8445315	,	0
16,42	,	50296	,	-27560	,	-25815	,	-8.508931	,	0
16,43	,	50313	,	-27563	,	-25817	,	-10.36042	,	0
16,43	,	50345	,	-27559	,	-25823	,	-11.963789	,	0
16,43	,	50361	,	-27555	,	-25836	,	-12.936509	,	0
16,43	,	50376	,	-27544	,	-25799	,	-12.966024	,	0
16,43	,	50408	,	-27540	,	-25813	,	-11.826708	,	0
16,43	,	50424	,	-27541	,	-25814	,	-9.5143175	,	1
16,43	,	50456	,	-27547	,	-25809	,	-6.378424	,	3
16,43	,	50473	,	-27530	,	-25808	,	-2.9450922	,	6
16,43	,	50488	,	-27534	,	-25805	,	0.41675758	,	9
16,43	,	50520	,	-27522	,	-25814	,	3.53399	,	12
16,43	,	50536	,	-27532	,	-25810	,	6.270251	,	15
16,43	,	50552	,	-27529	,	-25810	,	8.421258	,	17
16,43	,	50584	,	-27540	,	-25802	,	9.724371	,	19
16,43	,	50600	,	-27544	,	-25832	,	9.949567	,	20
16,43	,	50617	,	-27547	,	-25794	,	8.998509	,	19
16,43	,	50648	,	-27539	,	-25812	,	7.039849	,	17
16,43	,	50664	,	-27546	,	-25812	,	4.5083632	,	14
16,43	,	50696	,	-27543	,	-25812	,	1.87398	,	11
16,43	,	50713	,	-27545	,	-25814	,	-0.5099852	,	8
16,43	,	50729	,	-27561	,	-25816	,	-2.4858098	,	5
16,43	,	50760	,	-27553	,	-25810	,	-4.1299973	,	3
16,43	,	50776	,	-27559	,	-25823	,	-5.5330567	,	1
16,43	,	50792	,	-27552	,	-25813	,	-6.6324077	,	0
16,43	,	50824	,	-27552	,	-25813	,	-7.287297	,	0
16,43	,	50840	,	-27557	,	-25836	,	-7.401517	,	0
16,43	,	50872	,	-27557	,	-25804	,	-7.0323005	,	0
16,43	,	50888	,	-27555	,	-25812	,	-6.336096	,	0
16,43	,	50904	,	-27564	,	-25823	,	-5.4767456	,	0
16,43	,	50936	,	-27564	,	-25829	,	-4.6596327	,	0
16,43	,	50952	,	-27562	,	-25814	,	-4.0565767	,	0
16,43	,	50968	,	-27571	,	-25830	,	-3.713884	,	0
16,43	,	51000	,	-27586	,	-25824	,	-3.7197447	,	0
16,43	,	51016	,	-27595	,	-25829	,	-4.328826	,	0
16,43	,	51032	,	-27576	,	-25822	,	-5.6471434	,	0
16,43	,	51064	,	-27566	,	-25818	,	-7.2271423	,	0
16,43	,	51080	,	-27561	,	-25836	,	-8.256339	,	0
16,43	,	51112	,	-27549	,	-25803	,	-8.098691	,	0
16,43	,	51128	,	-27551	,	-25817	,	-6.5379	,	0
16,43	,	51144	,	-27549	,	-25814	,	-3.789631	,	1
16,43	,	51176	,	-27556	,	-25812	,	-0.42589784	,	3
16,43	,	51192	,	-27553	,	-25807	,	2.851096	,	6
16,43	,	51208	,	-27549	,	-25812	,	5.508313	,	9
16,43	,	51240	,	-27547	,	-25814	,	7.344642	,	11
16,43	,	51256	,	-27547	,	-25803	,	8.391746	,	12
16,43	,	51288	,	-27559	,	-25807	,	8.695079	,	13
16,43	,	51304	,	-27546	,	-25817	,	8.265431	,	13
16,44	,	51320	,	-27549	,	-25827	,	7.2512646	,	13
16,44	,	51352	,	-27558	,	-25797	,	5.8986716	,	12
16,44	,	51368	,	-27547	,	-25810	,	4.374181	,	10
16,44	,	51384	,	-27551	,	-25817	,	2.8538837	,	7
16,44	,	51416	,	-27554	,	-25811	,	1.5245602	,	4
16,44	,	51432	,	-27546	,	-25819	,	0.47138047	,	2
16,44	,	51448	,	-27540	,	-25817	,	-0.20401049	,	1
16,44	,	51480	,	-27544	,	-25817	,	-0.35852504	,	0
16,44	,	51496	,	-27564	,	-25818	,	-0.09934564	,	0
16,44	,	51528	,	-27565	,	-25803	,	0.09603765	,	0
16,44	,	51544	,	-27535	,	-25815	,	-0.09591231	,	0
16,44	,	51560	,	-27552	,	-25812	,	-0.42211637	,	0
16,44	,	51592	,	-27547	,	-25799	,	-0.5269692	,	0
16,44	,	51608	,	-27558	,	-25808	,	-0.41734385	,	0
16,44	,	51624	,	-27564	,	-25808	,	-0.34987375	,	0
16,44	,	51656	,	-27579	,	-25815	,	-0.6830078	,	0
16,44	,	51672	,	-27578	,	-25826	,	-1.7286596	,	0
16,44	,	51704	,	-27578	,	-25824	,	-3.5028675	,	0
16,44	,	51720	,	-27582	,	-25825	,	-5.6861367	,	0
16,44	,	51736	,	-27584	,	-25827	,	-7.871771	,	0
16,44	,	51768	,	-27573	,	-25821	,	-9.699434	,	0
16,44	,	51785	,	-27560	,	-25817	,	-10.742435	,	0
16,44	,	51800	,	-27547	,	-25831	,	-10.497215	,	0
16,44	,	51832	,	-27543	,	-25789	,	-8.625916	,	0
16,44	,	51848	,	-27533	,	-25808	,	-5.186145	,	1
16,44	,	51864	,	-27528	,	-25802	,	-0.5846319	,	4
16,44	,	51896	,	-27513	,	-25805	,	4.6517487	,	8
16,44	,	51912	,	-27527	,	-25792	,	9.957475	,	13
16,44	,	51944	,	-27535	,	-25802	,	14.586299	,	18
16,44	,	51960	,	-27527	,	-25793	,	17.754034	,	22
16,44	,	51976	,	-27519	,	-25800	,	19.14046	,	25
16,44	,	52008	,	-27520	,	-25798	,	18.996922	,	26
16,44	,	52024	,	-27529	,	-25797	,	17.726984	,	26
16,44	,	52040	,	-27528	,	-25806	,	15.594771	,	25
16,44	,	52072	,	-27518	,	-25781	,	12.865178	,	22
16,44	,	52088	,	-27528	,	-25791	,	9.930127	,	18
16,44	,	52120	,	-27520	,	-25799	,	7.141111	,	13
16,44	,	52136	,	-27510	,	-25804	,	4.781101	,	8
16,44	,	52152	,	-27519	,	-25795	,	3.1085868	,	4
16,44	,	52184	,	-27523	,	-25804	,	2.1367872	,	1
16,44	,	52200	,	-27517	,	-25797	,	1.6209526	,	0
16,44	,	52216	,	-27518	,	-25800	,	1.3548036	,	0
16,44	,	52247	,	-27528	,	-25799	,	1.2064596	,	0
16,44	,	52264	,	-27527	,	-25799	,	0.98446995	,	0
16,44	,	52295	,	-27532	,	-25814	,	0.51108474	,	0
16,45	,	52312	,	-27534	,	-25790	,	-0.2768461	,	0
16,45	,	52327	,	-27546	,	-25798	,	-1.3939734	,	0
16,45	,	52360	,	-27533	,	-25806	,	-2.8068857	,	0
16,45	,	52376	,	-27547	,	-25814	,	-4.340946	,	0
16,45	,	52392	,	-27551	,	-25822	,	-5.820246	,	0
16,45	,	52424	,	-27552	,	-25824	,	-7.2059617	,	0
16,45	,	52440	,	-27552	,	-25830	,	-8.44922	,	0
16,45	,	52455	,	-27564	,	-25817	,	-9.467759	,	0
16,45	,	52488	,	-27563	,	-25830	,	-10.276946	,	0
16,45	,	52504	,	-27541	,	-25815	,	-10.804255	,	0
16,45	,	52536	,	-27535	,	-25833	,	-10.641575	,	0
16,45	,	52552	,	-27518	,	-25812	,	-9.265308	,	0
16,45	,	52568	,	-27527	,	-25848	,	-6.47224	,	1
16,45	,	52600	,	-27541	,	-25872	,	-2.6816478	,	3
16,45	,	52616	,	-27542	,	-25871	,	1.1625233	,	6
16,45	,	52632	,	-27522	,	-25865	,	4.2623897	,	9
16,45	,	52663	,	-27521	,	-25864	,	6.479231	,	12
16,45	,	52680	,	-27523	,	-25850	,	8.042065	,	14
16,45	,	52712	,	-27517	,	-25851	,	9.093606	,	15
16,45	,	52728	,	-27495	,	-25828	,	9.796263	,	16
16,45	,	52744	,	-27487	,	-25813	,	10.557559	,	16
16,45	,	52775	,	-27482	,	-25801	,	11.791042	,	15
16,45	,	52791	,	-27474	,	-25757	,	13.592416	,	14
16,45	,	52808	,	-27455	,	-25762	,	15.840811	,	12
16,45	,	52840	,	-27440	,	-25738	,	18.475733	,	11
16,45	,	52856	,	-27456	,	-25735	,	21.379171	,	10
16,45	,	52873	,	-27437	,	-25725	,	24.118748	,	10
16,45	,	52903	,	-27441	,	-25724	,	26.193104	,	11
16,45	,	52919	,	-27448	,	-25724	,	27.2594	,	12
16,45	,	52952	,	-27436	,	-25720	,	27.079819	,	13
16,45	,	52967	,	-27446	,	-25735	,	25.63522	,	13
16,45	,	52983	,	-27442	,	-25729	,	23.118189	,	12
16,45	,	53015	,	-27447	,	-25741	,	19.788815	,	11
16,45	,	53031	,	-27455	,	-25713	,	15.912398	,	9
16,45	,	53047	,	-27459	,	-25735	,	11.687561	,	7
16,45	,	53079	,	-27456	,	-25739	,	7.316245	,	5
16,45	,	53096	,	-27467	,	-25737	,	3.075426	,	3
16,45	,	53127	,	-27460	,	-25729	,	-0.77195215	,	1
16,45	,	53144	,	-27476	,	-25726	,	-4.04685	,	0
16,45	,	53159	,	-27472	,	-25724	,	-6.7013373	,	0
16,45	,	53191	,	-27477	,	-25733	,	-8.766497	,	0
16,45	,	53207	,	-27474	,	-25733	,	-10.227704	,	0
16,45	,	53223	,	-27474	,	-25737	,	-11.021417	,	0
16,45	,	53255	,	-27479	,	-25748	,	-11.127199	,	0
16,45	,	53271	,	-27479	,	-25714	,	-10.655126	,	0
16,45	,	53288	,	-27473	,	-25726	,	-9.769014	,	0
16,46	,	53319	,	-27447	,	-25719	,	-8.424362	,	0
16,46	,	53335	,	-27449	,	-25720	,	-6.3148556	,	1
16,46	,	53367	,	-27441	,	-25717	,	-3.2525353	,	3
16,46	,	53383	,	-27448	,	-25720	,	0.52005386	,	6
16,46	,	53399	,	-27441	,	-25716	,	4.4461794	,	9
16,46	,	53431	,	-27445	,	-25708	,	7.9403625	,	12
16,46	,	53447	,	-27426	,	-25719	,	10.654582	,	15
16,46	,	53463	,	-27425	,	-25716	,	12.610967	,	17
16,46	,	53495	,	-27427	,	-25720	,	13.9865	,	18
16,46	,	53511	,	-27428	,	-25699	,	14.797761	,	19
16,46	,	53543	,	-27425	,	-25717	,	14.94207	,	18
16,46	,	53559	,	-27435	,	-25713	,	14.35674	,	16
16,46	,	53575	,	-27438	,	-25723	,	12.999139	,	13
16,46	,	53607	,	-27443	,	-25715	,	10.858854	,	10
16,46	,	53623	,	-27439	,	-25717	,	8.076979	,	7
16,46	,	53639	,	-27434	,	-25719	,	5.017316	,	4
16,46	,	53671	,	-27438	,	-25720	,	2.1545587	,	2
16,46	,	53687	,	-27436	,	-25719	,	-0.16299152	,	1
16,46	,	53703	,	-27445	,	-25719	,	-1.8397048	,	0
16,46	,	53735	,	-27430	,	-25737	,	-2.9202619	,	0
16,46	,	53751	,	-27443	,	-25705	,	-3.4304526	,	0
16,46	,	53783	,	-27446	,	-25721	,	-3.4803467	,	0
16,46	,	53799	,	-27451	,	-25732	,	-3.3641393	,	0
16,46	,	53815	,	-27456	,	-25723	,	-3.3927503	,	0
16,46	,	53847	,	-27454	,	-25730	,	-3.7320995	,	0
16,46	,	53863	,	-27466	,	-25733	,	-4.396197	,	0
16,46	,	53879	,	-27456	,	-25738	,	-5.3026476	,	0
16,46	,	53911	,	-27473	,	-25742	,	-6.3160496	,	0
16,46	,	53927	,	-27479	,	-25746	,	-7.3918114	,	0
16,46	,	53959	,	-27475	,	-25745	,	-8.584834	,	0
16,46	,	53975	,	-27466	,	-25745	,	-9.754463	,	0
16,46	,	53991	,	-27466	,	-25728	,	-10.513399	,	0
16,46	,	54023	,	-27461	,	-25739	,	-10.515239	,	0
16,46	,	54039	,	-27448	,	-25737	,	-9.571319	,	0
16,46	,	54055	,	-27439	,	-25729	,	-7.5563827	,	0
16,46	,	54087	,	-27443	,	-25737	,	-4.4956384	,	2
16,46	,	54103	,	-27443	,	-25729	,	-0.76735353	,	5
16,46	,	54119	,	-27439	,	-25734	,	3.0179627	,	8
16,46	,	54151	,	-27449	,	-25734	,	6.2955904	,	11
16,46	,	54167	,	-27436	,	-25728	,	8.673006	,	14
16,46	,	54199	,	-27444	,	-25741	,	10.014165	,	16
16,46	,	54215	,	-27436	,	-25739	,	10.410029	,	17
16,46	,	54231	,	-27439	,	-25721	,	10.053997	,	17
16,46	,	54263	,	-27434	,	-25735	,	9.185454	,	17
16,46	,	54279	,	-27450	,	-25723	,	7.979566	,	15
16,46	,	54295	,	-27441	,	-25729	,	6.472676	,	12
16,47	,	54327	,	-27447	,	-25734	,	4.7122064	,	9
16,47	,	54343	,	-27438	,	-25722	,	2.8851578	,	6
16,47	,	54375	,	-27443	,	-25729	,	1.2465286	,	3
16,47	,	54391	,	-27449	,	-25740	,	-0.051550865	,	1
16,47	,	54407	,	-27435	,	-25727	,	-0.98717797	,	0
16,47	,	54439	,	-27436	,	-25732	,	-1.4848559	,	0
16,47	,	54455	,	-27452	,	-25739	,	-1.5175359	,	0
16,47	,	54471	,	-27447	,	-25730	,	-1.3402022	,	0
16,47	,	54503	,	-27459	,	-25735	,	-1.3032467	,	0
16,47	,	54519	,	-27452	,	-25742	,	-1.6042662	,	0
16,47	,	54535	,	-27459	,	-25743	,	-2.2490532	,	0
16,47	,	54567	,	-27462	,	-25744	,	-3.1351721	,	0
16,47	,	54583	,	-27466	,	-25756	,	-4.175291	,	0
16,47	,	54615	,	-27471	,	-25755	,	-5.313938	,	0
16,47	,	54631	,	-27476	,	-25757	,	-6.511812	,	0
16,47	,	54647	,	-27480	,	-25754	,	-7.742017	,	0
16,47	,	54679	,	-27477	,	-25751	,	-8.929682	,	0
16,47	,	54695	,	-27488	,	-25753	,	-9.95018	,	0
16,47	,	54711	,	-27483	,	-25754	,	-10.7170925	,	0
16,47	,	54743	,	-27477	,	-25757	,	-11.129803	,	0
16,47	,	54759	,	-27460	,	-25744	,	-10.922136	,	0
16,47	,	54791	,	-27444	,	-25742	,	-9.664227	,	0
16,47	,	54807	,	-27437	,	-25751	,	-6.981723	,	1
16,47	,	54823	,	-27436	,	-25745	,	-2.8812637	,	3
16,47	,	54855	,	-27430	,	-25747	,	2.1563096	,	7
16,47	,	54871	,	-27431	,	-25748	,	7.4070225	,	12
16,47	,	54887	,	-27427	,	-25752	,	12.160203	,	17
16,47	,	54919	,	-27434	,	-25745	,	15.839177	,	21
16,47	,	54935	,	-27436	,	-25755	,	18.02716	,	24
16,47	,	54951	,	-27444	,	-25752	,	18.490206	,	26
16,47	,	54983	,	-27446	,	-25743	,	17.22099	,	26
16,47	,	54999	,	-27438	,	-25752	,	14.509972	,	25
16,47	,	55030	,	-27446	,	-25747	,	10.922204	,	23
16,47	,	55047	,	-27438	,	-25743	,	7.078925	,	19
16,47	,	55063	,	-27440	,	-25752	,	3.5062485	,	14
16,47	,	55095	,	-27443	,	-25750	,	0.5753536	,	9
16,47	,	55111	,	-27443	,	-25756	,	-1.5677106	,	5
16,47	,	55126	,	-27455	,	-25748	,	-3.0013804	,	2
16,47	,	55158	,	-27428	,	-25762	,	-3.8586414	,	0
16,47	,	55175	,	-27445	,	-25760	,	-4.1116624	,	0
16,47	,	55207	,	-27446	,	-25768	,	-3.7755804	,	0
16,47	,	55223	,	-27455	,	-25750	,	-3.166311	,	0
16,47	,	55239	,	-27453	,	-25757	,	-2.6810782	,	0
16,47	,	55270	,	-27464	,	-25749	,	-2.5737894	,	0
16,47	,	55287	,	-27465	,	-25757	,	-2.9709208	,	0
16,47	,	55302	,	-27461	,	-25755	,	-3.839614	,	0
16,48	,	55334	,	-27467	,	-25758	,	-4.951595	,	0
16,48	,	55351	,	-27469	,	-25757	,	-6.051768	,	0
16,48	,	55383	,	-27487	,	-25765	,	-7.076593	,	0
16,48	,	55399	,	-27480	,	-25767	,	-8.137447	,	0
16,48	,	55415	,	-27470	,	-25775	,	-9.196384	,	0
16,48	,	55446	,	-27459	,	-25773	,	-9.84794	,	0
16,48	,	55462	,	-27459	,	-25741	,	-9.588287	,	0
16,48	,	55478	,	-27447	,	-25760	,	-8.168949	,	0
16,48	,	55510	,	-27443	,	-25757	,	-5.6265745	,	1
16,48	,	55526	,	-27437	,	-25756	,	-2.1916075	,	3
16,48	,	55543	,	-27438	,	-25746	,	1.7367601	,	6
16,48	,	55574	,	-27427	,	-25753	,	5.6906986	,	9
16,48	,	55591	,	-27452	,	-25753	,	9.185665	,	12
16,48	,	55622	,	-27425	,	-25745	,	11.740446	,	15
16,48	,	55638	,	-27426	,	-25745	,	13.1973295	,	17
16,48	,	55654	,	-27433	,	-25754	,	13.757038	,	18
16,48	,	55686	,	-27437	,	-25770	,	13.535671	,	18
16,48	,	55702	,	-27430	,	-25741	,	12.53656	,	17
16,48	,	55718	,	-27441	,	-25755	,	10.87668	,	15
16,48	,	55751	,	-27431	,	-25752	,	8.759857	,	12
16,48	,	55767	,	-27432	,	-25752	,	6.4635243	,	9
16,48	,	55798	,	-27432	,	-25749	,	4.3083124	,	6
16,48	,	55814	,	-27437	,	-25751	,	2.4915404	,	3
16,48	,	55830	,	-27430	,	-25751	,	1.0661633	,	1
16,48	,	55862	,	-27436	,	-25754	,	0.045114994	,	0
16,48	,	55878	,	-27442	,	-25753	,	-0.6428076	,	0
16,48	,	55895	,	-27450	,	-25753	,	-1.226837	,	0
16,48	,	55926	,	-27450	,	-25772	,	-1.9682512	,	0
16,48	,	55942	,	-27442	,	-25738	,	-2.923172	,	0
16,48	,	55958	,	-27456	,	-25765	,	-3.9341202	,	0
16,48	,	55990	,	-27468	,	-25757	,	-4.9552364	,	0
16,48	,	56006	,	-27466	,	-25765	,	-6.14781	,	0
16,48	,	56038	,	-27466	,	-25764	,	-7.5448575	,	0
16,48	,	56055	,	-27464	,	-25769	,	-8.905207	,	0
16,48	,	56070	,	-27470	,	-25762	,	-9.932437	,	0
16,48	,	56102	,	-27479	,	-25757	,	-10.523128	,	0
16,48	,	56118	,	-27476	,	-25756	,	-10.784767	,	0
16,48	,	56134	,	-27474	,	-25771	,	-10.802743	,	0
16,48	,	56166	,	-27470	,	-25795	,	-10.503065	,	0
16,48	,	56182	,	-27464	,	-25750	,	-9.738115	,	0
16,48	,	56214	,	-27448	,	-25762	,	-8.322272	,	0
16,48	,	56230	,	-27442	,	-25764	,	-6.0393057	,	1
16,48	,	56246	,	-27447	,	-25760	,	-2.869061	,	3
16,48	,	56278	,	-27425	,	-25760	,	0.9043422	,	6
16,48	,	56294	,	-27425	,	-25762	,	4.9669724	,	9
16,49	,	56310	,	-27417	,	-25759	,	9.079416	,	13
16,49	,	56342	,	-27423	,	-25756	,	12.907308	,	17
16,49	,	56358	,	-27404	,	-25763	,	16.080978	,	20
16,49	,	56374	,	-27417	,	-25752	,	18.376303	,	23
16,49	,	56406	,	-27418	,	-25772	,	19.61588	,	25
16,49	,	56422	,	-27413	,	-25746	,	19.626873	,	25
16,49	,	56454	,	-27427	,	-25757	,	18.405119	,	23
16,49	,	56470	,	-27413	,	-25760	,	16.127132	,	20
16,49	,	56486	,	-27421	,	-25773	,	13.142773	,	17
16,49	,	56518	,	-27428	,	-25778	,	9.855875	,	13
16,49	,	56534	,	-27434	,	-25778	,	6.4780736	,	9
16,49	,	56550	,	-27434	,	-25785	,	3.0862145	,	6
16,49	,	56582	,	-27427	,	-25783	,	-0.13789034	,	3
16,49	,	56598	,	-27424	,	-25771	,	-2.8405123	,	1
16,49	,	56630	,	-27433	,	-25775	,	-4.713972	,	0
16,49	,	56646	,	-27440	,	-25786	,	-5.773307	,	0
16,49	,	56662	,	-27424	,	-25761	,	-6.2362094	,	0
16,49	,	56694	,	-27445	,	-25778	,	-6.257411	,	0
16,49	,	56710	,	-27439	,	-25781	,	-6.0165615	,	0
16,49	,	56726	,	-27447	,	-25784	,	-5.758665	,	0
16,49	,	56758	,	-27435	,	-25788	,	-5.5877285	,	0
16,49	,	56774	,	-27445	,	-25800	,	-5.428884	,	0
16,49	,	56790	,	-27444	,	-25782	,	-5.212928	,	0
16,49	,	56822	,	-27454	,	-25794	,	-5.00675	,	0
16,49	,	56838	,	-27455	,	-25792	,	-4.957648	,	0
16,49	,	56870	,	-27454	,	-25802	,	-5.1460614	,	0
16,49	,	56886	,	-27467	,	-25819	,	-5.5556006	,	0
16,49	,	56902	,	-27472	,	-25779	,	-6.223181	,	0
16,49	,	56934	,	-27477	,	-25811	,	-7.2418213	,	0
16,49	,	56950	,	-27469	,	-25806	,	-8.534014	,	0
16,49	,	56966	,	-27473	,	-25806	,	-9.779263	,	0
16,49	,	56998	,	-27478	,	-25801	,	-10.655221	,	0
16,49	,	57014	,	-27498	,	-25817	,	-11.149195	,	0
16,49	,	57046	,	-27492	,	-25816	,	-11.538501	,	0
16,49	,	57062	,	-27485	,	-25810	,	-11.961575	,	0
16,49	,	57078	,	-27465	,	-25811	,	-12.093985	,	0
16,49	,	57110	,	-27457	,	-25802	,	-11.320543	,	0
16,49	,	57126	,	-27461	,	-25832	,	-9.231183	,	0
16,49	,	57142	,	-27451	,	-25789	,	-5.939996	,	2
16,49	,	57174	,	-27452	,	-25802	,	-1.9136448	,	5
16,49	,	57190	,	-27441	,	-25792	,	2.338953	,	9
16,49	,	57206	,	-27436	,	-25801	,	6.425004	,	13
16,49	,	57238	,	-27441	,	-25802	,	10.053803	,	17
16,49	,	57254	,	-27440	,	-25795	,	12.905218	,	20
16,49	,	57286	,	-27430	,	-25791	,	14.7278595	,	22
16,49	,	57302	,	-27436	,	-25798	,	15.519426	,	23
16,50	,	57318	,	-27433	,	-25802	,	15.405964	,	23
16,50	,	57350	,	-27443	,	-25803	,	14.475597	,	21
16,50	,	57366	,	-27432	,	-25816	,	12.828255	,	18
16,50	,	57382	,	-27432	,	-25792	,	10.71203	,	14
16,50	,	57414	,	-27440	,	-25800	,	8.450315	,	10
16,50	,	57430	,	-27441	,	-25802	,	6.2165155	,	6
16,50	,	57462	,	-27437	,	-25806	,	4.0716906	,	3
16,50	,	57478	,	-27447	,	-25811	,	2.0950058	,	1
16,50	,	57494	,	-27448	,	-25803	,	0.30644894	,	0
16,50	,	57526	,	-27447	,	-25802	,	-1.3265547	,	0
16,50	,	57542	,	-27454	,	-25802	,	-2.785736	,	0
16,50	,	57558	,	-27459	,	-25807	,	-4.0670137	,	0
16,50	,	57590	,	-27446	,	-25809	,	-5.165546	,	0
16,50	,	57606	,	-27453	,	-25830	,	-5.9419513	,	0
16,50	,	57622	,	-27475	,	-25803	,	-6.3555017	,	0
16,50	,	57654	,	-27466	,	-25814	,	-6.6883955	,	0
16,50	,	57670	,	-27482	,	-25826	,	-7.2421703	,	0
16,50	,	57702	,	-27480	,	-25830	,	-8.116691	,	0
16,50	,	57718	,	-27481	,	-25833	,	-9.247992	,	0
16,50	,	57734	,	-27495	,	-25840	,	-10.474758	,	0
16,50	,	57765	,	-27486	,	-25843	,	-11.656826	,	0
16,50	,	57782	,	-27503	,	-25842	,	-12.682591	,	0
16,50	,	57798	,	-27503	,	-25840	,	-13.508179	,	0
16,50	,	57829	,	-27504	,	-25841	,	-14.155238	,	0
16,50	,	57845	,	-27508	,	-25861	,	-14.575294	,	0
16,50	,	57877	,	-27493	,	-25834	,	-14.612488	,	0
16,50	,	57894	,	-27507	,	-25851	,	-14.075911	,	0
16,50	,	57910	,	-27511	,	-25849	,	-12.976142	,	0
16,50	,	57942	,	-27498	,	-25851	,	-11.536616	,	1
16,50	,	57958	,	-27492	,	-25843	,	-9.830494	,	2
16,50	,	57974	,	-27485	,	-25843	,	-7.7188077	,	3
16,50	,	58005	,	-27492	,	-25833	,	-5.156206	,	5
16,50	,	58022	,	-27480	,	-25835	,	-2.328186	,	7
16,50	,	58053	,	-27482	,	-25835	,	0.5134914	,	9
16,50	,	58069	,	-27472	,	-25839	,	3.1975813	,	11
16,50	,	58085	,	-27473	,	-25843	,	5.622891	,	13
16,50	,	58118	,	-27484	,	-25823	,	7.6339025	,	15
16,50	,	58134	,	-27491	,	-25834	,	8.8987255	,	16
16,50	,	58150	,	-27482	,	-25830	,	9.114935	,	16
16,50	,	58181	,	-27494	,	-25845	,	8.28745	,	15
16,50	,	58197	,	-27495	,	-25844	,	6.609393	,	13
16,50	,	58229	,	-27494	,	-25834	,	4.3172417	,	11
16,50	,	58246	,	-27486	,	-25837	,	1.7860994	,	9
16,50	,	58261	,	-27492	,	-25843	,	-0.5167222	,	7
16,50	,	58294	,	-27501	,	-25838	,	-2.3166175	,	5
16,51	,	58310	,	-27485	,	-25845	,	-3.5826194	,	3
16,51	,	58326	,	-27498	,	-25842	,	-4.306126	,	1
16,51	,	58357	,	-27499	,	-25849	,	-4.544073	,	0
16,51	,	58373	,	-27505	,	-25864	,	-4.5345793	,	0
16,51	,	58389	,	-27510	,	-25854	,	-4.558605	,	0
16,51	,	58421	,	-27508	,	-25854	,	-4.7929726	,	0
16,51	,	58437	,	-27512	,	-25851	,	-5.2452765	,	0
16,51	,	58469	,	-27518	,	-25849	,	-5.8294144	,	0
16,51	,	58485	,	-27533	,	-25840	,	-6.55941	,	0
16,51	,	58501	,	-27521	,	-25853	,	-7.520708	,	0
16,51	,	58533	,	-27522	,	-25851	,	-8.589411	,	0
16,51	,	58549	,	-27530	,	-25860	,	-9.462233	,	0
16,51	,	58565	,	-27535	,	-25874	,	-10.003475	,	0
16,51	,	58597	,	-27527	,	-25868	,	-10.245573	,	0
16,51	,	58613	,	-27548	,	-25866	,	-10.235022	,	0
16,51	,	58645	,	-27555	,	-25874	,	-10.182623	,	0
16,51	,	58661	,	-27563	,	-25874	,	-10.458429	,	0
16,51	,	58678	,	-27562	,	-25876	,	-11.2571125	,	0
16,51	,	58709	,	-27570	,	-25878	,	-12.464365	,	0
16,51	,	58725	,	-27570	,	-25880	,	-13.816456	,	0
16,51	,	58741	,	-27561	,	-25885	,	-14.983002	,	0
16,51	,	58773	,	-27550	,	-25884	,	-15.507389	,	0
16,51	,	58790	,	-27548	,	-25879	,	-14.923476	,	0
16,51	,	58821	,	-27551	,	-25879	,	-13.072575	,	0
16,51	,	58837	,	-27558	,	-25873	,	-10.264716	,	1
16,51	,	58854	,	-27541	,	-25881	,	-7.0333304	,	3
16,51	,	58885	,	-27551	,	-25879	,	-3.775535	,	6
16,51	,	58901	,	-27549	,	-25877	,	-0.7774563	,	9
16,51	,	58917	,	-27545	,	-25884	,	1.6889868	,	11
16,51	,	58949	,	-27540	,	-25879	,	3.5220304	,	13
16,51	,	58965	,	-27550	,	-25872	,	4.770601	,	14
16,51	,	58981	,	-27554	,	-25878	,	5.4058867	,	15
16,51	,	59013	,	-27545	,	-25876	,	5.362968	,	15
16,51	,	59029	,	-27555	,	-25882	,	4.729788	,	14
16,51	,	59061	,	-27553	,	-25891	,	3.6732557	,	12
16,51	,	59077	,	-27555	,	-25884	,	2.34057	,	9
16,51	,	59093	,	-27551	,	-25875	,	0.91516924	,	6
16,51	,	59125	,	-27558	,	-25882	,	-0.41286933	,	4
16,51	,	59141	,	-27547	,	-25884	,	-1.5022115	,	2
16,51	,	59157	,	-27548	,	-25879	,	-2.2071881	,	1
16,51	,	59189	,	-27566	,	-25885	,	-2.4933562	,	0
16,51	,	59205	,	-27561	,	-25880	,	-2.6038811	,	0
16,51	,	59237	,	-27558	,	-25891	,	-2.789688	,	0
16,51	,	59253	,	-27574	,	-25887	,	-3.1058588	,	0
16,51	,	59269	,	-27565	,	-25893	,	-3.5847821	,	0
16,51	,	59301	,	-27579	,	-25896	,	-4.2515984	,	0
16,52	,	59317	,	-27565	,	-25891	,	-5.0349827	,	0
16,52	,	59333	,	-27571	,	-25897	,	-5.75036	,	0
16,52	,	59365	,	-27581	,	-25892	,	-6.2303643	,	0
16,52	,	59381	,	-27579	,	-25898	,	-6.5105915	,	0
16,52	,	59397	,	-27589	,	-25899	,	-6.7383623	,	0
16,52	,	59429	,	-27604	,	-25902	,	-7.1080656	,	0
16,52	,	59445	,	-27608	,	-25908	,	-7.894809	,	0
16,52	,	59477	,	-27604	,	-25903	,	-9.212877	,	0
16,52	,	59493	,	-27593	,	-25900	,	-10.75536	,	0
16,52	,	59509	,	-27586	,	-25906	,	-11.888276	,	0
16,52	,	59541	,	-27589	,	-25918	,	-12.040287	,	0
16,52	,	59557	,	-27583	,	-25900	,	-11.023617	,	0
16,52	,	59573	,	-27564	,	-25899	,	-8.908258	,	1
16,52	,	59605	,	-27583	,	-25891	,	-5.8538575	,	3
16,52	,	59621	,	-27574	,	-25889	,	-2.286759	,	6
16,52	,	59653	,	-27569	,	-25897	,	1.213542	,	9
16,52	,	59669	,	-27560	,	-25879	,	4.320792	,	12
16,52	,	59685	,	-27574	,	-25893	,	6.915659	,	15
16,52	,	59717	,	-27589	,	-25898	,	8.711586	,	17
16,52	,	59733	,	-27591	,	-25891	,	9.235702	,	18
16,52	,	59749	,	-27589	,	-25887	,	8.260927	,	18
16,52	,	59781	,	-27587	,	-25901	,	6.068762	,	17
16,52	,	59797	,	-27588	,	-25888	,	3.2511063	,	15
16,52	,	59813	,	-27596	,	-25908	,	0.35733318	,	12
16,52	,	59845	,	-27593	,	-25898	,	-2.2837064	,	9
16,52	,	59861	,	-27576	,	-25898	,	-4.391094	,	6
16,52	,	59893	,	-27588	,	-25901	,	-5.61656	,	3
16,52	,	59909	,	-27591	,	-25909	,	-5.8615637	,	1
16,52	,	59925	,	-27603	,	-25900	,	-5.4711275	,	0
16,52	,	59957	,	-27592	,	-25907	,	-4.926868	,	0
16,52	,	59973	,	-27606	,	-25905	,	-4.5175266	,	0
16,52	,	59989	,	-27605	,	-25905	,	-4.3697643	,	0
16,52	,	60021	,	-27599	,	-25908	,	-4.5053744	,	0
16,52	,	60037	,	-27614	,	-25901	,	-4.8268466	,	0
16,52	,	60069	,	-27622	,	-25900	,	-5.333308	,	0
16,52	,	60085	,	-27606	,	-25906	,	-6.0899696	,	0
16,52	,	60101	,	-27617	,	-25908	,	-6.92093	,	0
16,52	,	60133	,	-27628	,	-25901	,	-7.613449	,	0
16,52	,	60149	,	-27626	,	-25902	,	-8.218133	,	0
16,52	,	60164	,	-27624	,	-25903	,	-8.80893	,	0
16,52	,	60197	,	-27610	,	-25898	,	-9.200122	,	0
16,52	,	60213	,	-27600	,	-25906	,	-8.972639	,	0
16,52	,	60245	,	-27601	,	-25898	,	-7.7405634	,	0
16,52	,	60261	,	-27592	,	-25902	,	-5.440716	,	1
16,52	,	60277	,	-27580	,	-25873	,	-2.2704153	,	3
16,53	,	60308	,	-27582	,	-25879	,	1.500206	,	6
16,53	,	60324	,	-27580	,	-25884	,	5.4789834	,	9
16,53	,	60341	,	-27574	,	-25883	,	9.179463	,	12
16,53	,	60373	,	-27583	,	-25878	,	12.177769	,	15
16,53	,	60388	,	-27580	,	-25869	,	14.130694	,	17
16,53	,	60404	,	-27570	,	-25870	,	14.887182	,	18
16,53	,	60437	,	-27588	,	-25873	,	14.5574465	,	18
16,53	,	60453	,	-27583	,	-25878	,	13.277771	,	17
16,53	,	60485	,	-27583	,	-25884	,	11.19388	,	15
16,53	,	60501	,	-27582	,	-25881	,	8.626024	,	12
16,53	,	60517	,	-27583	,	-25876	,	5.961665	,	9
16,53	,	60549	,	-27583	,	-25878	,	3.5056868	,	6
16,53	,	60564	,	-27586	,	-25881	,	1.4422445	,	3
16,53	,	60580	,	-27576	,	-25881	,	-0.12964606	,	1
16,53	,	60613	,	-27579	,	-25878	,	-1.1163619	,	0
16,53	,	60629	,	-27588	,	-25874	,	-1.5281124	,	0
16,53	,	60661	,	-27588	,	-25878	,	-1.6002407	,	0
16,53	,	60676	,	-27587	,	-25871	,	-1.6111174	,	0
16,53	,	60692	,	-27590	,	-25873	,	-1.6830273	,	0
16,53	,	60724	,	-27592	,	-25887	,	-1.8404057	,	0
16,53	,	60741	,	-27601	,	-25893	,	-2.135414	,	0
16,53	,	60757	,	-27594	,	-25866	,	-2.6276674	,	0
16,53	,	60788	,	-27601	,	-25887	,	-3.2720354	,	0
16,53	,	60804	,	-27604	,	-25888	,	-3.9718857	,	0
16,53	,	60820	,	-27613	,	-25887	,	-4.7262735	,	0
16,53	,	60852	,	-27607	,	-25885	,	-5.577162	,	0
16,53	,	60868	,	-27606	,	-25891	,	-6.427679	,	0
16,53	,	60900	,	-27612	,	-25890	,	-7.071907	,	0
16,53	,	60917	,	-27591	,	-25885	,	-7.310607	,	0
16,53	,	60933	,	-27582	,	-25885	,	-6.8425817	,	0
16,53	,	60965	,	-27573	,	-25883	,	-5.309717	,	0
16,53	,	60980	,	-27576	,	-25895	,	-2.6319408	,	1
16,53	,	60996	,	-27563	,	-25850	,	0.89677596	,	3
16,53	,	61028	,	-27557	,	-25861	,	4.860935	,	6
16,53	,	61044	,	-27553	,	-25859	,	8.898455	,	9
16,53	,	61076	,	-27562	,	-25864	,	12.601425	,	13
16,53	,	61092	,	-27559	,	-25862	,	15.460095	,	16
16,53	,	61109	,	-27553	,	-25865	,	17.102962	,	18
16,53	,	61140	,	-27550	,	-25860	,	17.526512	,	19
16,53	,	61156	,	-27558	,	-25861	,	16.951523	,	19
16,53	,	61172	,	-27550	,	-25853	,	15.592974	,	18
16,53	,	61205	,	-27555	,	-25858	,	13.667859	,	16
16,53	,	61220	,	-27552	,	-25869	,	11.419447	,	13
16,53	,	61236	,	-27563	,	-25844	,	9.028958	,	10
16,53	,	61268	,	-27544	,	-25851	,	6.6457014	,	6
16,53	,	61284	,	-27554	,	-25844	,	4.5095572	,	3
16,54	,	61316	,	-27564	,	-25849	,	2.7736058	,	1
16,54	,	61332	,	-27553	,	-25850	,	1.3471861	,	0
16,54	,	61348	,	-27559	,	-25851	,	0.1522677	,	0
16,54	,	61380	,	-27557	,	-25856	,	-0.77270055	,	0
16,54	,	61396	,	-27558	,	-25855	,	-1.4085093	,	0
16,54	,	61412	,	-27562	,	-25853	,	-1.7887083	,	0
16,54	,	61444	,	-27545	,	-25851	,	-1.9218228	,	0
16,54	,	61460	,	-27557	,	-25874	,	-1.7279109	,	0
16,54	,	61492	,	-27559	,	-25832	,	-1.226435	,	0
16,54	,	61508	,	-27574	,	-25850	,	-0.7153881	,	0
16,54	,	61524	,	-27566	,	-25852	,	-0.579565	,	0
16,54	,	61556	,	-27581	,	-25846	,	-1.0230111	,	0
16,54	,	61572	,	-27577	,	-25854	,	-2.0535457	,	0
16,54	,	61588	,	-27573	,	-25857	,	-3.4958766	,	0
16,54	,	61620	,	-27581	,	-25850	,	-5.0109	,	0
16,54	,	61636	,	-27578	,	-25854	,	-6.3066435	,	0
16,54	,	61652	,	-27601	,	-25857	,	-7.327752	,	0
16,54	,	61684	,	-27580	,	-25858	,	-8.18699	,	0
16,54	,	61700	,	-27567	,	-25862	,	-8.761483	,	0
16,54	,	61732	,	-27564	,	-25819	,	-8.566369	,	0
16,54	,	61749	,	-27562	,	-25851	,	-7.252885	,	0
16,54	,	61764	,	-27560	,	-25840	,	-4.9135475	,	1
16,54	,	61796	,	-27543	,	-25825	,	-1.8507371	,	3
16,54	,	61812	,	-27539	,	-25830	,	1.7042849	,	6
16,54	,	61828	,	-27535	,	-25834	,	5.5480313	,	9
16,54	,	61860	,	-27534	,	-25822	,	9.349318	,	12
16,54	,	61876	,	-27523	,	-25824	,	12.740051	,	15
16,54	,	61908	,	-27525	,	-25802	,	15.473589	,	18
16,54	,	61924	,	-27515	,	-25812	,	17.429977	,	20
16,54	,	61940	,	-27516	,	-25828	,	18.590143	,	21
16,54	,	61972	,	-27531	,	-25794	,	18.91975	,	21
16,54	,	61988	,	-27526	,	-25805	,	18.25426	,	19
16,54	,	62004	,	-27529	,	-25814	,	16.511223	,	16
16,54	,	62036	,	-27524	,	-25814	,	13.907242	,	13
16,54	,	62052	,	-27510	,	-25812	,	10.931942	,	10
16,54	,	62068	,	-27516	,	-25809	,	8.189589	,	7
16,54	,	62100	,	-27520	,	-25809	,	6.053991	,	4
16,54	,	62116	,	-27525	,	-25813	,	4.48162	,	2
16,54	,	62148	,	-27524	,	-25815	,	3.228947	,	1
16,54	,	62164	,	-27518	,	-25815	,	2.14812	,	0
16,54	,	62180	,	-27529	,	-25829	,	1.2271049	,	0
16,54	,	62212	,	-27533	,	-25794	,	0.39026678	,	0
16,54	,	62228	,	-27541	,	-25815	,	-0.56228316	,	0
16,54	,	62244	,	-27537	,	-25819	,	-1.7721046	,	0
16,54	,	62276	,	-27531	,	-25815	,	-3.1414564	,	0
16,54	,	62292	,	-27544	,	-25829	,	-4.4108834	,	0
16,55	,	62324	,	-27549	,	-25818	,	-5.4713507	,	0
16,55	,	62340	,	-27543	,	-25830	,	-6.3877544	,	0
16,55	,	62356	,	-27552	,	-25830	,	-7.1632223	,	0
16,55	,	62388	,	-27557	,	-25823	,	-7.7809477	,	0
16,55	,	62404	,	-27551	,	-25824	,	-8.275512	,	0
16,55	,	62420	,	-27564	,	-25839	,	-8.6481085	,	0
16,55	,	62452	,	-27565	,	-25807	,	-8.935617	,	0
16,55	,	62468	,	-27563	,	-25837	,	-9.206917	,	0
16,55	,	62484	,	-27546	,	-25833	,	-9.329372	,	0
16,55	,	62516	,	-27551	,	-25829	,	-8.958141	,	0
16,55	,	62532	,	-27553	,	-25822	,	-7.896503	,	0
16,55	,	62564	,	-27543	,	-25829	,	-6.254287	,	1
16,55	,	62580	,	-27539	,	-25814	,	-4.1882496	,	2
16,55	,	62596	,	-27538	,	-25820	,	-1.7981827	,	4
16,55	,	62628	,	-27538	,	-25810	,	0.7297685	,	6
16,55	,	62644	,	-27526	,	-25817	,	3.168823	,	8
16,55	,	62660	,	-27533	,	-25831	,	5.378514	,	10
16,55	,	62692	,	-27522	,	-25801	,	7.260224	,	12
16,55	,	62708	,	-27551	,	-25822	,	8.616368	,	13
16,55	,	62740	,	-27536	,	-25812	,	9.10709	,	14
16,55	,	62756	,	-27540	,	-25806	,	8.558235	,	13
16,55	,	62772	,	-27536	,	-25815	,	7.2003365	,	12
16,55	,	62803	,	-27554	,	-25816	,	5.3626432	,	10
16,55	,	62819	,	-27552	,	-25824	,	3.1746325	,	8
16,55	,	62836	,	-27547	,	-25819	,	0.74351215	,	6
16,55	,	62868	,	-27554	,	-25836	,	-1.6498222	,	4
16,55	,	62884	,	-27546	,	-25822	,	-3.693789	,	2
16,55	,	62900	,	-27553	,	-25850	,	-5.18006	,	1
16,55	,	62932	,	-27548	,	-25819	,	-6.0169926	,	0
16,55	,	62947	,	-27565	,	-25831	,	-6.294779	,	0
16,55	,	62980	,	-27576	,	-25837	,	-6.3655577	,	0
16,55	,	62996	,	-27566	,	-25837	,	-6.6473494	,	0
16,55	,	63012	,	-27572	,	-25845	,	-7.230679	,	0
16,55	,	63044	,	-27566	,	-25847	,	-7.881136	,	0
16,55	,	63059	,	-27576	,	-25842	,	-8.3470335	,	0
16,55	,	63076	,	-27576	,	-25847	,	-8.54516	,	0
16,55	,	63108	,	-27581	,	-25852	,	-8.548571	,	0
16,55	,	63124	,	-27576	,	-25861	,	-8.436033	,	0
16,55	,	63155	,	-27590	,	-25870	,	-8.246108	,	0
16,55	,	63171	,	-27592	,	-25837	,	-8.089514	,	0
16,55	,	63188	,	-27588	,	-25858	,	-8.089045	,	0
16,55	,	63220	,	-27606	,	-25851	,	-8.270288	,	0
16,55	,	63236	,	-27586	,	-25863	,	-8.599896	,	0
16,55	,	63252	,	-27589	,	-25850	,	-8.87989	,	0
16,55	,	63283	,	-27584	,	-25846	,	-8.768358	,	0
16,55	,	63300	,	-27580	,	-25843	,	-8.036074	,	0
16,56	,	63315	,	-27580	,	-25847	,	-6.6440763	,	0
16,56	,	63347	,	-27579	,	-25848	,	-4.726698	,	1
16,56	,	63364	,	-27580	,	-25846	,	-2.5572808	,	2
16,56	,	63395	,	-27557	,	-25856	,	-0.33858585	,	4
16,56	,	63411	,	-27570	,	-25818	,	1.9264433	,	6
16,56	,	63427	,	-27574	,	-25847	,	4.1370077	,	8
16,56	,	63460	,	-27564	,	-25848	,	5.9678154	,	10
16,56	,	63476	,	-27574	,	-25849	,	7.183294	,	11
16,56	,	63492	,	-27573	,	-25844	,	7.6948185	,	12
16,56	,	63524	,	-27572	,	-25841	,	7.478101	,	12
16,56	,	63540	,	-27566	,	-25846	,	6.6705313	,	11
16,56	,	63571	,	-27584	,	-25839	,	5.4826093	,	10
16,56	,	63587	,	-27572	,	-25838	,	4.017492	,	8
16,56	,	63604	,	-27568	,	-25836	,	2.424613	,	6
16,56	,	63636	,	-27583	,	-25853	,	0.95170474	,	4
16,56	,	63652	,	-27584	,	-25844	,	-0.35036778	,	2
16,56	,	63668	,	-27576	,	-25845	,	-1.5673904	,	1
16,56	,	63700	,	-27588	,	-25844	,	-2.666616	,	0
16,56	,	63715	,	-27597	,	-25842	,	-3.6551647	,	0
16,56	,	63731	,	-27601	,	-25857	,	-4.71385	,	0
16,56	,	63763	,	-27590	,	-25860	,	-5.926778	,	0
16,56	,	63779	,	-27597	,	-25860	,	-7.088249	,	0
16,56	,	63811	,	-27589	,	-25850	,	-7.8903713	,	0
16,56	,	63827	,	-27603	,	-25848	,	-8.175532	,	0
16,56	,	63843	,	-27611	,	-25852	,	-8.076544	,	0
16,56	,	63875	,	-27608	,	-25865	,	-7.918686	,	0
16,56	,	63891	,	-27614	,	-25857	,	-7.9095945	,	0
16,56	,	63907	,	-27622	,	-25872	,	-8.096545	,	0
16,56	,	63939	,	-27619	,	-25865	,	-8.496843	,	0
16,56	,	63955	,	-27615	,	-25863	,	-9.002838	,	0
16,56	,	63987	,	-27608	,	-25866	,	-9.306541	,	0
16,56	,	64003	,	-27604	,	-25871	,	-9.054733	,	0
16,56	,	64019	,	-27591	,	-25876	,	-7.9908724	,	0
16,56	,	64051	,	-27600	,	-25866	,	-6.0340815	,	1
16,56	,	64067	,	-27588	,	-25862	,	-3.3670502	,	2
16,56	,	64083	,	-27588	,	-25861	,	-0.328264	,	4
16,56	,	64115	,	-27584	,	-25866	,	2.7647	,	7
16,56	,	64131	,	-27584	,	-25853	,	5.621724	,	10
16,56	,	64147	,	-27586	,	-25857	,	7.959596	,	12
16,56	,	64179	,	-27582	,	-25852	,	9.555201	,	14
16,56	,	64195	,	-27581	,	-25858	,	10.338876	,	15
16,56	,	64227	,	-27588	,	-25851	,	10.365529	,	15
16,56	,	64243	,	-27592	,	-25859	,	9.667578	,	14
16,56	,	64259	,	-27591	,	-25855	,	8.269596	,	13
16,56	,	64291	,	-27587	,	-25860	,	6.3431625	,	11
16,57	,	64307	,	-27583	,	-25858	,	4.2419577	,	8
16,57	,	64323	,	-27597	,	-25855	,	2.2997503	,	5
16,57	,	64355	,	-27598	,	-25862	,	0.5894964	,	3
16,57	,	64371	,	-27602	,	-25858	,	-1.0029469	,	1
16,57	,	64403	,	-27602	,	-25852	,	-2.535049	,	0
16,57	,	64419	,	-27604	,	-25860	,	-3.9481769	,	0
16,57	,	64435	,	-27605	,	-25870	,	-5.139712	,	0
16,57	,	64467	,	-27619	,	-25868	,	-6.0899506	,	0
16,57	,	64483	,	-27606	,	-25874	,	-6.8822393	,	0
16,57	,	64499	,	-27621	,	-25865	,	-7.5448647	,	0
16,57	,	64531	,	-27621	,	-25880	,	-8.075259	,	0
16,57	,	64547	,	-27620	,	-25876	,	-8.513291	,	0
16,57	,	64563	,	-27624	,	-25875	,	-8.840032	,	0
16,57	,	64595	,	-27629	,	-25877	,	-9.016054	,	0
16,57	,	64611	,	-27628	,	-25884	,	-9.062165	,	0
16,57	,	64643	,	-27628	,	-25873	,	-8.981167	,	0
16,57	,	64659	,	-27622	,	-25879	,	-8.695354	,	0
16,57	,	64675	,	-27608	,	-25870	,	-8.020107	,	0
16,57	,	64707	,	-27603	,	-25866	,	-6.6787047	,	0
16,57	,	64723	,	-27598	,	-25868	,	-4.483571	,	1
16,57	,	64739	,	-27590	,	-25860	,	-1.493022	,	3
16,57	,	64771	,	-27590	,	-25858	,	2.0275576	,	5
16,57	,	64787	,	-27573	,	-25850	,	5.744095	,	8
16,57	,	64819	,	-27582	,	-25857	,	9.3565035	,	11
16,57	,	64835	,	-27576	,	-25865	,	12.534145	,	14
16,57	,	64851	,	-27582	,	-25864	,	14.893975	,	17
16,57	,	64883	,	-27578	,	-25843	,	16.151812	,	19
16,57	,	64899	,	-27581	,	-25853	,	16.22995	,	20
16,57	,	64915	,	-27582	,	-25859	,	15.234515	,	19
16,57	,	64947	,	-27583	,	-25851	,	13.375092	,	17
16,57	,	64963	,	-27567	,	-25851	,	11.000377	,	15
16,57	,	64995	,	-27576	,	-25851	,	8.59926	,	12
16,57	,	65011	,	-27581	,	-25857	,	6.5012894	,	9
16,57	,	65027	,	-27575	,	-25854	,	4.7340865	,	6
16,57	,	65059	,	-27577	,	-25862	,	3.2651367	,	3
16,57	,	65075	,	-27583	,	-25867	,	2.0809886	,	1
16,57	,	65091	,	-27581	,	-25869	,	1.0978189	,	0
16,57	,	65123	,	-27576	,	-25864	,	0.25851715	,	0
16,57	,	65139	,	-27583	,	-25868	,	-0.40089262	,	0
16,57	,	65155	,	-27587	,	-25880	,	-0.89949936	,	0
16,57	,	65187	,	-27580	,	-25869	,	-1.3320721	,	0
16,57	,	65203	,	-27584	,	-25871	,	-1.7054528	,	0
16,57	,	65235	,	-27582	,	-25875	,	-1.9526231	,	0
16,57	,	65251	,	-27599	,	-25878	,	-2.1177492	,	0
16,57	,	65267	,	-27603	,	-25873	,	-2.4446237	,	0
16,57	,	65299	,	-27601	,	-25872	,	-3.181946	,	0
16,58	,	65315	,	-27596	,	-25874	,	-4.2825017	,	0
16,58	,	65331	,	-27608	,	-25890	,	-5.4647045	,	0
16,58	,	65363	,	-27604	,	-25862	,	-6.5175514	,	0
16,58	,	65379	,	-27614	,	-25877	,	-7.382731	,	0
16,58	,	65411	,	-27616	,	-25874	,	-8.091375	,	0
16,58	,	65427	,	-27603	,	-25881	,	-8.639544	,	0
16,58	,	65443	,	-27602	,	-25876	,	-8.828777	,	0
16,58	,	65475	,	-27596	,	-25863	,	-8.375529	,	0
16,58	,	65491	,	-27582	,	-25861	,	-7.0837116	,	0
16,58	,	65507	,	-27578	,	-25863	,	-4.842497	,	1
16,58	,	65539	,	-27578	,	-25865	,	-1.7323315	,	3
16,58	,	65555	,	-27560	,	-25855	,	1.9399405	,	6
16,58	,	65571	,	-27567	,	-25862	,	5.822586	,	9
16,58	,	65603	,	-27561	,	-25838	,	9.536738	,	12
16,58	,	65619	,	-27543	,	-25847	,	12.756997	,	15
16,58	,	65651	,	-27538	,	-25847	,	15.449507	,	18
16,58	,	65667	,	-27531	,	-25841	,	17.748596	,	20
16,58	,	65683	,	-27532	,	-25835	,	19.667503	,	22
16,58	,	65715	,	-27539	,	-25841	,	21.00732	,	22
16,58	,	65731	,	-27538	,	-25845	,	21.437534	,	21
16,58	,	65747	,	-27545	,	-25830	,	20.70253	,	18
16,58	,	65780	,	-27534	,	-25843	,	18.810904	,	15
16,58	,	65795	,	-27528	,	-25837	,	16.128088	,	12
16,58	,	65827	,	-27521	,	-25860	,	13.269835	,	9
16,58	,	65843	,	-27539	,	-25822	,	10.716829	,	6
16,58	,	65859	,	-27543	,	-25842	,	8.483583	,	4
16,58	,	65891	,	-27531	,	-25843	,	6.3473377	,	2
16,58	,	65907	,	-27540	,	-25843	,	4.2854686	,	1
16,58	,	65923	,	-27542	,	-25844	,	2.399931	,	0
16,58	,	65954	,	-27541	,	-25839	,	0.71694565	,	0
16,58	,	65970	,	-27550	,	-25841	,	-0.7720542	,	0
16,58	,	65986	,	-27553	,	-25844	,	-2.130455	,	0
16,58	,	66019	,	-27545	,	-25846	,	-3.4118547	,	0
16,58	,	66035	,	-27546	,	-25850	,	-4.4924355	,	0
16,58	,	66066	,	-27554	,	-25872	,	-5.1999393	,	0
16,58	,	66082	,	-27557	,	-25844	,	-5.560441	,	0
16,58	,	66098	,	-27558	,	-25856	,	-5.744582	,	0
16,58	,	66131	,	-27569	,	-25860	,	-5.924356	,	0
16,58	,	66147	,	-27570	,	-25874	,	-6.2694635	,	0
16,58	,	66162	,	-27574	,	-25878	,	-6.8831687	,	0
16,58	,	66195	,	-27582	,	-25868	,	-7.747308	,	0
16,58	,	66211	,	-27586	,	-25870	,	-8.808609	,	0
16,58	,	66242	,	-27582	,	-25870	,	-9.970766	,	0
16,58	,	66258	,	-27572	,	-25868	,	-10.959242	,	0
16,58	,	66274	,	-27586	,	-25867	,	-11.420407	,	0
16,58	,	66307	,	-27579	,	-25886	,	-11.222656	,	0
16,59	,	66322	,	-27596	,	-25852	,	-10.526108	,	0
16,59	,	66339	,	-27605	,	-25874	,	-9.713396	,	0
16,59	,	66370	,	-27594	,	-25877	,	-9.181425	,	0
16,59	,	66386	,	-27593	,	-25874	,	-8.957493	,	0
16,59	,	66402	,	-27588	,	-25872	,	-8.721383	,	0
16,59	,	66435	,	-27566	,	-25865	,	-8.061304	,	0
16,59	,	66451	,	-27569	,	-25852	,	-6.566796	,	0
16,59	,	66482	,	-27573	,	-25856	,	-4.1146955	,	1
16,59	,	66498	,	-27561	,	-25856	,	-1.0216651	,	3
16,59	,	66515	,	-27568	,	-25858	,	2.253972	,	6
16,59	,	66546	,	-27558	,	-25874	,	5.3164034	,	9
16,59	,	66562	,	-27552	,	-25838	,	7.917016	,	12
16,59	,	66578	,	-27558	,	-25851	,	9.970683	,	14
16,59	,	66610	,	-27539	,	-25852	,	11.458958	,	16
16,59	,	66627	,	-27552	,	-25853	,	12.43223	,	17
16,59	,	66658	,	-27545	,	-25855	,	12.917318	,	17
16,59	,	66674	,	-27556	,	-25844	,	12.824919	,	16
16,59	,	66690	,	-27544	,	-25846	,	12.096582	,	14
16,59	,	66722	,	-27557	,	-25850	,	10.808813	,	11
16,59	,	66738	,	-27539	,	-25847	,	9.152182	,	8
16,59	,	66754	,	-27546	,	-25843	,	7.4216523	,	5
16,59	,	66786	,	-27547	,	-25864	,	5.8720336	,	3
16,59	,	66802	,	-27548	,	-25822	,	4.5542383	,	1
16,59	,	66818	,	-27551	,	-25852	,	3.4046113	,	0
16,59	,	66850	,	-27546	,	-25847	,	2.378225	,	0
16,59	,	66866	,	-27550	,	-25844	,	1.4802344	,	0
16,59	,	66898	,	-27543	,	-25847	,	0.7575401	,	0
16,59	,	66914	,	-27555	,	-25845	,	0.23248017	,	0
16,59	,	66930	,	-27555	,	-25841	,	-0.19074601	,	0
16,59	,	66962	,	-27552	,	-25847	,	-0.6494697	,	0
16,59	,	66978	,	-27565	,	-25851	,	-1.2040749	,	0
16,59	,	66994	,	-27567	,	-25848	,	-1.9348867	,	0
16,59	,	67026	,	-27573	,	-25869	,	-2.958198	,	0
16,59	,	67042	,	-27573	,	-25836	,	-4.2847743	,	0
16,59	,	67074	,	-27579	,	-25851	,	-5.7907987	,	0
16,59	,	67090	,	-27585	,	-25860	,	-7.3289223	,	0
16,59	,	67106	,	-27580	,	-25853	,	-8.779709	,	0
16,59	,	67138	,	-27586	,	-25857	,	-9.981336	,	0
16,59	,	67154	,	-27579	,	-25854	,	-10.742655	,	0
16,59	,	67170	,	-27598	,	-25864	,	-10.9914665	,	0
16,59	,	67202	,	-27596	,	-25877	,	-10.891157	,	0
16,59	,	67218	,	-27581	,	-25862	,	-10.612664	,	0
16,59	,	67234	,	-27578	,	-25858	,	-10.007631	,	0
16,59	,	67266	,	-27562	,	-25869	,	-8.730215	,	0
16,59	,	67282	,	-27567	,	-25838	,	-6.5543623	,	1
17,0	,	67314	,	-27552	,	-25849	,	-3.5182943	,	3
17,0	,	67330	,	-27553	,	-25850	,	0.13280821	,	6
17,0	,	67346	,	-27570	,	-25841	,	3.942956	,	9
17,0	,	67378	,	-27559	,	-25849	,	7.2399635	,	12
17,0	,	67394	,	-27547	,	-25847	,	9.571427	,	15
17,0	,	67410	,	-27563	,	-25840	,	10.933481	,	17
17,0	,	67442	,	-27556	,	-25850	,	11.395446	,	18
17,0	,	67458	,	-27568	,	-25839	,	10.938927	,	18
17,0	,	67490	,	-27546	,	-25839	,	9.685865	,	17
17,0	,	67506	,	-27557	,	-25856	,	8.017721	,	15
17,0	,	67522	,	-27561	,	-25821	,	6.303219	,	12
17,0	,	67554	,	-27554	,	-25833	,	4.6704383	,	9
17,0	,	67570	,	-27567	,	-25837	,	3.1446784	,	6
17,0	,	67586	,	-27564	,	-25845	,	1.7002807	,	3
17,0	,	67618	,	-27562	,	-25840	,	0.30865455	,	1
17,0	,	67634	,	-27558	,	-25836	,	-0.91001654	,	0
17,0	,	67650	,	-27556	,	-25854	,	-1.7506073	,	0
17,0	,	67682	,	-27562	,	-25832	,	-2.1056454	,	0
17,0	,	67698	,	-27565	,	-25844	,	-2.0703068	,	0
17,0	,	67730	,	-27565	,	-25844	,	-1.8751512	,	0
17,0	,	67746	,	-27570	,	-25854	,	-1.7266643	,	0
17,0	,	67762	,	-27566	,	-25830	,	-1.7329764	,	0
17,0	,	67794	,	-27571	,	-25841	,	-1.8975904	,	0
17,0	,	67810	,	-27574	,	-25842	,	-2.1875646	,	0
17,0	,	67826	,	-27578	,	-25833	,	-2.615664	,	0
17,0	,	67858	,	-27583	,	-25835	,	-3.2232082	,	0
17,0	,	67874	,	-27585	,	-25843	,	-4.0313244	,	0
17,0	,	67906	,	-27592	,	-25838	,	-5.021355	,	0
17,0	,	67922	,	-27602	,	-25844	,	-6.1859612	,	0
17,0	,	67938	,	-27613	,	-25839	,	-7.603392	,	0
17,0	,	67970	,	-27606	,	-25843	,	-9.32017	,	0
17,0	,	67986	,	-27602	,	-25858	,	-11.105404	,	0
17,0	,	68002	,	-27593	,	-25828	,	-12.45129	,	0
17,0	,	68034	,	-27583	,	-25839	,	-12.813652	,	0
17,0	,	68050	,	-27567	,	-25842	,	-11.766811	,	0
17,0	,	68066	,	-27571	,	-25834	,	-9.133544	,	1
17,0	,	68098	,	-27558	,	-25831	,	-5.135193	,	3
17,0	,	68114	,	-27571	,	-25835	,	-0.35463905	,	6
17,0	,	68146	,	-27561	,	-25830	,	4.4408407	,	10
17,0	,	68162	,	-27556	,	-25831	,	8.597712	,	14
17,0	,	68178	,	-27555	,	-25836	,	11.799642	,	18
17,0	,	68210	,	-27559	,	-25831	,	13.929898	,	21
17,0	,	68226	,	-27561	,	-25833	,	14.893381	,	23
17,0	,	68242	,	-27560	,	-25823	,	14.666595	,	23
17,0	,	68274	,	-27568	,	-25828	,	13.361039	,	22
17,0	,	68290	,	-27556	,	-25826	,	11.225636	,	20
17,1	,	68322	,	-27555	,	-25821	,	8.688637	,	17
17,1	,	68338	,	-27559	,	-25823	,	6.2285705	,	13
17,1	,	68354	,	-27552	,	-25829	,	4.1498504	,	9
17,1	,	68386	,	-27548	,	-25819	,	2.6291056	,	5
17,1	,	68402	,	-27562	,	-25819	,	1.7246923	,	2
17,1	,	68418	,	-27561	,	-25815	,	1.2350441	,	0
17,1	,	68450	,	-27560	,	-25812	,	0.8524332	,	0
17,1	,	68466	,	-27562	,	-25812	,	0.42270184	,	0
17,1	,	68482	,	-27571	,	-25812	,	-0.111221194	,	0
17,1	,	68513	,	-27578	,	-25822	,	-0.8704978	,	0
17,1	,	68530	,	-27570	,	-25818	,	-1.9469068	,	0
17,1	,	68562	,	-27585	,	-25822	,	-3.2622774	,	0
17,1	,	68578	,	-27588	,	-25816	,	-4.720357	,	0
17,1	,	68594	,	-27589	,	-25822	,	-6.294547	,	0
17,1	,	68625	,	-27587	,	-25826	,	-7.858549	,	0
17,1	,	68641	,	-27585	,	-25818	,	-9.14292	,	0
17,1	,	68658	,	-27591	,	-25822	,	-9.903965	,	0
17,1	,	68690	,	-27589	,	-25824	,	-10.073545	,	0
17,1	,	68706	,	-27610	,	-25831	,	-9.815788	,	0
17,1	,	68738	,	-27611	,	-25837	,	-9.518356	,	0
17,1	,	68753	,	-27606	,	-25840	,	-9.514246	,	0
17,1	,	68770	,	-27602	,	-25836	,	-9.740297	,	0
17,1	,	68801	,	-27600	,	-25834	,	-9.840168	,	0
17,1	,	68817	,	-27579	,	-25829	,	-9.407525	,	0
17,1	,	68834	,	-27574	,	-25827	,	-8.03538	,	0
17,1	,	68865	,	-27574	,	-25825	,	-5.506882	,	1
17,1	,	68881	,	-27582	,	-25823	,	-2.0914373	,	3
17,1	,	68913	,	-27560	,	-25826	,	1.6242759	,	6
17,1	,	68929	,	-27563	,	-25819	,	5.2221107	,	9
17,1	,	68946	,	-27560	,	-25822	,	8.4951725	,	12
17,1	,	68978	,	-27563	,	-25820	,	11.195419	,	15
17,1	,	68994	,	-27551	,	-25812	,	13.092905	,	17
17,1	,	69010	,	-27551	,	-25806	,	14.171399	,	18
17,1	,	69041	,	-27559	,	-25809	,	14.529301	,	19
17,1	,	69057	,	-27552	,	-25815	,	14.191239	,	18
17,1	,	69073	,	-27555	,	-25804	,	13.1923065	,	16
17,1	,	69105	,	-27565	,	-25827	,	11.624287	,	13
17,1	,	69121	,	-27563	,	-25811	,	9.540096	,	10
17,1	,	69153	,	-27559	,	-25809	,	7.0652294	,	7
17,1	,	69169	,	-27562	,	-25815	,	4.494	,	4
17,1	,	69185	,	-27557	,	-25820	,	2.1511073	,	2
17,1	,	69217	,	-27566	,	-25828	,	0.24589205	,	1
17,1	,	69233	,	-27558	,	-25814	,	-1.158483	,	0
17,1	,	69249	,	-27557	,	-25816	,	-2.0453238	,	0
17,1	,	69282	,	-27580	,	-25818	,	-2.4912722	,	0
17,1	,	69297	,	-27578	,	-25820	,	-2.8420224	,	0
17,2	,	69329	,	-27582	,	-25831	,	-3.4777894	,	0
17,2	,	69346	,	-27587	,	-25816	,	-4.5019083	,	0
17,2	,	69362	,	-27575	,	-25809	,	-5.757774	,	0
17,2	,	69393	,	-27590	,	-25812	,	-6.9543633	,	0
17,2	,	69409	,	-27590	,	-25813	,	-7.9062023	,	0
17,2	,	69425	,	-27589	,	-25827	,	-8.600468	,	0
17,2	,	69457	,	-27593	,	-25826	,	-9.018386	,	0
17,2	,	69473	,	-27596	,	-25811	,	-9.142082	,	0
17,2	,	69489	,	-27599	,	-25823	,	-9.035204	,	0
17,2	,	69521	,	-27609	,	-25835	,	-8.835466	,	0
17,2	,	69537	,	-27610	,	-25834	,	-8.731686	,	0
17,2	,	69569	,	-27612	,	-25828	,	-8.846538	,	0
17,2	,	69585	,	-27627	,	-25830	,	-9.203911	,	0
17,2	,	69602	,	-27627	,	-25830	,	-9.847909	,	0
17,2	,	69633	,	-27622	,	-25831	,	-10.741764	,	0
17,2	,	69649	,	-27613	,	-25831	,	-11.570066	,	0
17,2	,	69665	,	-27595	,	-25819	,	-11.778547	,	0
17,2	,	69697	,	-27595	,	-25830	,	-10.815712	,	0
17,2	,	69713	,	-27581	,	-25809	,	-8.431955	,	0
17,2	,	69745	,	-27588	,	-25823	,	-4.799721	,	2
17,2	,	69761	,	-27578	,	-25814	,	-0.41996336	,	5
17,2	,	69778	,	-27564	,	-25813	,	4.1578846	,	9
17,2	,	69809	,	-27574	,	-25813	,	8.53257	,	13
17,2	,	69825	,	-27587	,	-25828	,	12.219458	,	17
17,2	,	69841	,	-27574	,	-25821	,	14.623433	,	20
17,2	,	69873	,	-27582	,	-25820	,	15.466535	,	22
17,2	,	69889	,	-27580	,	-25822	,	14.876921	,	22
17,2	,	69921	,	-27580	,	-25808	,	13.162291	,	22
17,2	,	69937	,	-27587	,	-25828	,	10.691223	,	20
17,2	,	69953	,	-27575	,	-25792	,	7.852736	,	17
17,2	,	69985	,	-27574	,	-25813	,	5.0983777	,	13
17,2	,	70001	,	-27574	,	-25805	,	2.8623137	,	9
17,2	,	70017	,	-27582	,	-25810	,	1.3157377	,	5
17,2	,	70049	,	-27571	,	-25801	,	0.36884356	,	2
17,2	,	70065	,	-27585	,	-25803	,	-0.13120532	,	0
17,2	,	70097	,	-27570	,	-25809	,	-0.32680196	,	0
17,2	,	70113	,	-27579	,	-25804	,	-0.30815858	,	0
17,2	,	70129	,	-27582	,	-25810	,	-0.15263611	,	0
17,2	,	70161	,	-27573	,	-25808	,	0.021361828	,	0
17,2	,	70177	,	-27586	,	-25814	,	0.13334565	,	0
17,2	,	70193	,	-27579	,	-25784	,	0.114641614	,	0
17,2	,	70225	,	-27583	,	-25798	,	-0.085349485	,	0
17,2	,	70241	,	-27584	,	-25797	,	-0.43145564	,	0
17,2	,	70273	,	-27587	,	-25807	,	-0.87702376	,	0
17,2	,	70289	,	-27585	,	-25795	,	-1.3891516	,	0
17,2	,	70305	,	-27604	,	-25803	,	-1.983576	,	0
17,3	,	70337	,	-27586	,	-25795	,	-2.7439487	,	0
17,3	,	70353	,	-27597	,	-25797	,	-3.6270454	,	0
17,3	,	70369	,	-27593	,	-25809	,	-4.4429526	,	0
17,3	,	70401	,	-27592	,	-25807	,	-5.025836	,	0
17,3	,	70417	,	-27596	,	-25790	,	-5.275477	,	0
17,3	,	70433	,	-27605	,	-25808	,	-5.238407	,	0
17,3	,	70465	,	-27605	,	-25812	,	-5.1275916	,	0
17,3	,	70481	,	-27600	,	-25803	,	-5.098261	,	0
17,3	,	70513	,	-27598	,	-25799	,	-5.0810413	,	0
17,3	,	70529	,	-27588	,	-25803	,	-4.855617	,	0
17,3	,	70545	,	-27587	,	-25791	,	-4.1930985	,	0
17,3	,	70577	,	-27568	,	-25801	,	-2.903736	,	0
17,3	,	70593	,	-27575	,	-25785	,	-0.87492394	,	1
17,3	,	70609	,	-27570	,	-25793	,	1.7643275	,	3
17,3	,	70641	,	-27571	,	-25795	,	4.6150103	,	5
17,3	,	70657	,	-27569	,	-25774	,	7.228943	,	7
17,3	,	70689	,	-27569	,	-25792	,	9.268074	,	9
17,3	,	70705	,	-27567	,	-25791	,	10.5475855	,	11
17,3	,	70721	,	-27575	,	-25791	,	10.997392	,	12
17,3	,	70753	,	-27581	,	-25785	,	10.559589	,	12
17,3	,	70769	,	-27574	,	-25789	,	9.236147	,	12
17,3	,	70785	,	-27566	,	-25782	,	7.290269	,	11
17,3	,	70817	,	-27568	,	-25788	,	5.216922	,	9
17,3	,	70833	,	-27581	,	-25784	,	3.368554	,	7
17,3	,	70849	,	-27569	,	-25794	,	1.788115	,	5
17,3	,	70881	,	-27566	,	-25803	,	0.50739384	,	3
17,3	,	70897	,	-27577	,	-25779	,	-0.35526454	,	1
17,3	,	70929	,	-27572	,	-25803	,	-0.8339929	,	0
17,3	,	70945	,	-27583	,	-25804	,	-1.1199682	,	0
17,3	,	70961	,	-27576	,	-25807	,	-1.3933854	,	0
17,3	,	70993	,	-27588	,	-25823	,	-1.7593031	,	0
17,3	,	71009	,	-27590	,	-25828	,	-2.3033466	,	0
17,3	,	71025	,	-27598	,	-25827	,	-3.1318426	,	0
17,3	,	71056	,	-27615	,	-25832	,	-4.3699427	,	0
17,3	,	71073	,	-27607	,	-25853	,	-6.1120963	,	0
17,3	,	71105	,	-27621	,	-25861	,	-8.265102	,	0
17,3	,	71121	,	-27624	,	-25882	,	-10.596364	,	0
17,3	,	71137	,	-27642	,	-25865	,	-12.957148	,	0
17,3	,	71169	,	-27652	,	-25912	,	-15.35477	,	0
17,3	,	71184	,	-27674	,	-25920	,	-17.924007	,	0
17,3	,	71200	,	-27675	,	-25927	,	-20.79482	,	0
17,3	,	71232	,	-27678	,	-25943	,	-23.84064	,	0
17,3	,	71248	,	-27687	,	-25939	,	-26.65041	,	0
17,3	,	71265	,	-27679	,	-25959	,	-28.7567	,	0
17,3	,	71297	,	-27671	,	-25955	,	-29.696047	,	0
17,4	,	71313	,	-27671	,	-25959	,	-29.058987	,	0
17,4	,	71345	,	-27659	,	-25949	,	-26.68465	,	0
17,4	,	71361	,	-27662	,	-25957	,	-22.714985	,	2
17,4	,	71377	,	-27659	,	-25921	,	-17.57849	,	5
17,4	,	71409	,	-27650	,	-25931	,	-11.875877	,	10
17,4	,	71425	,	-27645	,	-25931	,	-6.121579	,	15
17,4	,	71441	,	-27645	,	-25920	,	-0.6844797	,	20
17,4	,	71473	,	-27640	,	-25898	,	4.11352	,	25
17,4	,	71489	,	-27614	,	-25870	,	8.136316	,	29
17,4	,	71520	,	-27595	,	-25849	,	11.674194	,	33
17,4	,	71537	,	-27582	,	-25829	,	15.26894	,	36
17,4	,	71553	,	-27569	,	-25805	,	19.261723	,	37
17,4	,	71585	,	-27550	,	-25790	,	23.66086	,	37
17,4	,	71600	,	-27543	,	-25804	,	28.277252	,	36
17,4	,	71616	,	-27548	,	-25744	,	32.697575	,	35
17,4	,	71648	,	-27545	,	-25761	,	36.24292	,	34
17,4	,	71665	,	-27546	,	-25770	,	38.231712	,	32
17,4	,	71681	,	-27541	,	-25752	,	38.306084	,	29
17,4	,	71713	,	-27539	,	-25754	,	36.530697	,	25
17,4	,	71729	,	-27534	,	-25760	,	33.29832	,	22
17,4	,	71760	,	-27518	,	-25759	,	29.231174	,	19
17,4	,	71776	,	-27540	,	-25759	,	24.972225	,	16
17,4	,	71793	,	-27539	,	-25764	,	20.795074	,	12
17,4	,	71824	,	-27540	,	-25768	,	16.64334	,	8
17,4	,	71840	,	-27550	,	-25784	,	12.490003	,	4
17,4	,	71857	,	-27550	,	-25744	,	8.375827	,	1
17,4	,	71888	,	-27534	,	-25744	,	4.469783	,	0
17,4	,	71905	,	-27543	,	-25741	,	1.1662245	,	0
17,4	,	71936	,	-27546	,	-25750	,	-1.2331054	,	0
17,4	,	71952	,	-27535	,	-25744	,	-2.714868	,	0
17,4	,	71968	,	-27525	,	-25749	,	-3.272355	,	0
17,4	,	72000	,	-27517	,	-25737	,	-2.7760944	,	0
17,4	,	72016	,	-27521	,	-25748	,	-1.2167983	,	0
17,4	,	72033	,	-27519	,	-25738	,	1.1020707	,	1
17,4	,	72064	,	-27499	,	-25736	,	3.766409	,	3
17,4	,	72080	,	-27502	,	-25741	,	6.5563927	,	5
17,4	,	72096	,	-27509	,	-25702	,	9.278118	,	7
17,4	,	72128	,	-27502	,	-25718	,	11.545454	,	9
17,4	,	72144	,	-27492	,	-25697	,	13.073095	,	11
17,4	,	72177	,	-27494	,	-25697	,	13.897378	,	12
17,4	,	72193	,	-27494	,	-25713	,	14.145142	,	12
17,4	,	72209	,	-27486	,	-25712	,	13.88966	,	12
17,4	,	72240	,	-27486	,	-25708	,	13.255739	,	11
17,4	,	72256	,	-27480	,	-25707	,	12.427511	,	9
17,4	,	72272	,	-27482	,	-25705	,	11.55769	,	7
17,4	,	72304	,	-27462	,	-25695	,	10.796938	,	5
17,5	,	72320	,	-27470	,	-25701	,	10.343866	,	3
17,5	,	72352	,	-27474	,	-25661	,	10.233757	,	1
17,5	,	72369	,	-27468	,	-25674	,	10.221315	,	0
17,5	,	72384	,	-27455	,	-25672	,	10.126743	,	0
17,5	,	72416	,	-27466	,	-25665	,	9.997835	,	0
17,5	,	72432	,	-27454	,	-25667	,	9.863859	,	0
17,5	,	72448	,	-27475	,	-25682	,	9.610624	,	0
17,5	,	72480	,	-27466	,	-25672	,	9.0153675	,	0
17,5	,	72496	,	-27477	,	-25669	,	7.8817215	,	0
17,5	,	72528	,	-27461	,	-25679	,	6.2433248	,	0
17,5	,	72544	,	-27475	,	-25679	,	4.364346	,	0
17,5	,	72560	,	-27477	,	-25690	,	2.4781492	,	0
17,5	,	72592	,	-27487	,	-25655	,	0.60049486	,	0
17,5	,	72608	,	-27481	,	-25683	,	-1.3250244	,	0
17,5	,	72624	,	-27472	,	-25682	,	-3.1569295	,	0
17,5	,	72656	,	-27470	,	-25674	,	-4.5238223	,	0
17,5	,	72672	,	-27470	,	-25671	,	-5.09743	,	0
17,5	,	72688	,	-27463	,	-25671	,	-4.792276	,	0
17,5	,	72720	,	-27459	,	-25666	,	-3.685779	,	0
17,5	,	72736	,	-27444	,	-25663	,	-1.8668444	,	1
17,5	,	72768	,	-27451	,	-25656	,	0.5680933	,	2
17,5	,	72784	,	-27439	,	-25662	,	3.3945417	,	4
17,5	,	72800	,	-27416	,	-25671	,	6.4114165	,	6
17,5	,	72832	,	-27430	,	-25654	,	9.579293	,	9
17,5	,	72848	,	-27427	,	-25664	,	12.675219	,	12
17,5	,	72864	,	-27422	,	-25661	,	15.223803	,	15
17,5	,	72896	,	-27440	,	-25672	,	16.802505	,	17
17,5	,	72912	,	-27447	,	-25694	,	17.032534	,	18
17,5	,	72944	,	-27448	,	-25710	,	15.637287	,	17
17,5	,	72960	,	-27464	,	-25722	,	12.655634	,	16
17,5	,	72976	,	-27473	,	-25745	,	8.333145	,	14
17,5	,	73008	,	-27486	,	-25780	,	2.9665937	,	12
17,5	,	73024	,	-27490	,	-25789	,	-3.0514703	,	9
17,5	,	73040	,	-27492	,	-25806	,	-9.1719265	,	6
17,5	,	73072	,	-27496	,	-25758	,	-14.743692	,	3
17,5	,	73088	,	-27499	,	-25786	,	-19.201012	,	1
17,5	,	73104	,	-27506	,	-25791	,	-22.233988	,	0
17,5	,	73136	,	-27499	,	-25807	,	-23.771713	,	0
17,5	,	73152	,	-27523	,	-25832	,	-23.944988	,	0
17,5	,	73184	,	-27560	,	-25873	,	-23.346157	,	0
17,5	,	73200	,	-27572	,	-25910	,	-23.062202	,	0
17,5	,	73216	,	-27603	,	-25940	,	-24.081804	,	0
17,5	,	73248	,	-27629	,	-25946	,	-26.914822	,	0
17,5	,	73264	,	-27610	,	-25934	,	-31.44989	,	0
17,5	,	73280	,	-27597	,	-25933	,	-36.62171	,	0
17,6	,	73312	,	-27583	,	-25878	,	-40.666435	,	0
17,6	,	73328	,	-27547	,	-25833	,	-41.89455	,	0
17,6	,	73360	,	-27520	,	-25797	,	-39.083138	,	0
17,6	,	73376	,	-27499	,	-25760	,	-31.707071	,	2
17,6	,	73392	,	-27463	,	-25726	,	-20.101976	,	9
17,6	,	73424	,	-27425	,	-25694	,	-5.164789	,	20
17,6	,	73440	,	-27415	,	-25653	,	11.911595	,	34
17,6	,	73456	,	-27392	,	-25635	,	29.56816	,	51
17,6	,	73488	,	-27368	,	-25607	,	46.12822	,	68
17,6	,	73504	,	-27364	,	-25590	,	60.225887	,	84
17,6	,	73535	,	-27333	,	-25577	,	70.94414	,	98
17,6	,	73552	,	-27322	,	-25533	,	77.93569	,	108
17,6	,	73568	,	-27313	,	-25523	,	81.35229	,	112
17,6	,	73600	,	-27306	,	-25508	,	81.52217	,	108
17,6	,	73616	,	-27300	,	-25496	,	78.848145	,	97
17,6	,	73632	,	-27283	,	-25496	,	73.90402	,	83
17,6	,	73664	,	-27287	,	-25492	,	67.42119	,	66
17,6	,	73680	,	-27270	,	-25490	,	60.11807	,	49
17,6	,	73696	,	-27276	,	-25488	,	52.594048	,	33
17,6	,	73728	,	-27279	,	-25484	,	45.23062	,	19
17,6	,	73744	,	-27276	,	-25488	,	38.14302	,	9
17,6	,	73776	,	-27281	,	-25514	,	31.36094	,	3
17,6	,	73792	,	-27288	,	-25475	,	24.914549	,	0
17,6	,	73808	,	-27288	,	-25506	,	18.811844	,	0
17,6	,	73840	,	-27299	,	-25508	,	13.082943	,	0
17,6	,	73856	,	-27309	,	-25513	,	7.72029	,	0
17,6	,	73872	,	-27302	,	-25513	,	2.7013311	,	0
17,6	,	73903	,	-27303	,	-25517	,	-1.7988105	,	0
17,6	,	73919	,	-27302	,	-25526	,	-5.4396095	,	0
17,6	,	73952	,	-27318	,	-25533	,	-8.044801	,	0
17,6	,	73968	,	-27320	,	-25548	,	-9.781358	,	0
17,6	,	73984	,	-27320	,	-25546	,	-10.946513	,	0
17,6	,	74016	,	-27335	,	-25573	,	-11.753351	,	0
17,6	,	74032	,	-27327	,	-25545	,	-12.358768	,	0
17,6	,	74048	,	-27354	,	-25562	,	-12.907432	,	0
17,6	,	74080	,	-27348	,	-25580	,	-13.580265	,	0
17,6	,	74096	,	-27349	,	-25581	,	-14.451551	,	0
17,6	,	74111	,	-27347	,	-25576	,	-15.292408	,	0
17,6	,	74144	,	-27333	,	-25570	,	-15.67738	,	0
17,6	,	74159	,	-27330	,	-25573	,	-15.155247	,	0
17,6	,	74191	,	-27329	,	-25573	,	-13.464304	,	0
17,6	,	74208	,	-27325	,	-25575	,	-10.703869	,	1
17,6	,	74224	,	-27333	,	-25571	,	-7.266073	,	3
17,6	,	74256	,	-27319	,	-25586	,	-3.648847	,	6
17,6	,	74272	,	-27320	,	-25553	,	-0.22186184	,	9
17,6	,	74288	,	-27318	,	-25578	,	2.8217213	,	12
17,7	,	74320	,	-27320	,	-25575	,	5.316578	,	15
17,7	,	74336	,	-27308	,	-25574	,	7.151462	,	17
17,7	,	74367	,	-27313	,	-25587	,	8.375577	,	18
17,7	,	74383	,	-27325	,	-25584	,	9.02251	,	19
17,7	,	74399	,	-27328	,	-25581	,	8.925615	,	18
17,7	,	74432	,	-27327	,	-25586	,	7.9298744	,	16
17,7	,	74448	,	-27325	,	-25595	,	6.1622014	,	13
17,7	,	74464	,	-27333	,	-25589	,	3.9500036	,	10
17,7	,	74496	,	-27313	,	-25608	,	1.6735728	,	7
17,7	,	74511	,	-27323	,	-25571	,	-0.23392105	,	4
17,7	,	74527	,	-27348	,	-25587	,	-1.593322	,	2
17,7	,	74559	,	-27329	,	-25595	,	-2.6808407	,	1
17,7	,	74575	,	-27342	,	-25592	,	-3.743994	,	0
17,7	,	74608	,	-27348	,	-25593	,	-4.806384	,	0
17,7	,	74624	,	-27358	,	-25602	,	-5.957331	,	0
17,7	,	74639	,	-27350	,	-25603	,	-7.288571	,	0
17,7	,	74671	,	-27349	,	-25609	,	-8.640786	,	0
17,7	,	74688	,	-27359	,	-25614	,	-9.713106	,	0
17,7	,	74703	,	-27357	,	-25616	,	-10.3641205	,	0
17,7	,	74736	,	-27360	,	-25631	,	-10.612089	,	0
17,7	,	74752	,	-27358	,	-25607	,	-10.481269	,	0
17,7	,	74783	,	-27369	,	-25625	,	-10.032547	,	0
17,7	,	74799	,	-27366	,	-25614	,	-9.425775	,	0
17,7	,	74815	,	-27372	,	-25633	,	-8.830248	,	0
17,7	,	74847	,	-27373	,	-25621	,	-8.341352	,	0
17,7	,	74863	,	-27363	,	-25619	,	-7.9405203	,	0
17,7	,	74879	,	-27360	,	-25626	,	-7.432618	,	0
17,7	,	74911	,	-27354	,	-25619	,	-6.5453587	,	0
17,7	,	74927	,	-27351	,	-25619	,	-5.109906	,	0
17,7	,	74943	,	-27343	,	-25626	,	-3.1002269	,	1
17,7	,	74975	,	-27336	,	-25624	,	-0.57887197	,	3
17,7	,	74991	,	-27339	,	-25594	,	2.2985497	,	5
17,7	,	75023	,	-27354	,	-25624	,	5.1422606	,	7
17,7	,	75039	,	-27342	,	-25614	,	7.3870406	,	9
17,7	,	75055	,	-27342	,	-25613	,	8.699925	,	11
17,7	,	75087	,	-27341	,	-25630	,	9.128223	,	12
17,7	,	75103	,	-27339	,	-25628	,	8.866318	,	12
17,7	,	75119	,	-27359	,	-25627	,	8.033962	,	12
17,7	,	75151	,	-27350	,	-25622	,	6.6123643	,	11
17,7	,	75167	,	-27345	,	-25623	,	4.6959257	,	9
17,7	,	75199	,	-27353	,	-25630	,	2.6281502	,	7
17,7	,	75215	,	-27342	,	-25638	,	0.75284696	,	5
17,7	,	75231	,	-27349	,	-25602	,	-0.7039001	,	3
17,7	,	75263	,	-27351	,	-25631	,	-1.656583	,	1
17,7	,	75279	,	-27357	,	-25639	,	-2.219689	,	0
17,7	,	75295	,	-27352	,	-25627	,	-2.581436	,	0
17,8	,	75327	,	-27352	,	-25634	,	-2.814405	,	0
17,8	,	75343	,	-27358	,	-25626	,	-2.9053383	,	0
17,8	,	75359	,	-27371	,	-25638	,	-2.9703674	,	0
17,8	,	75391	,	-27371	,	-25643	,	-3.285173	,	0
17,8	,	75407	,	-27368	,	-25635	,	-4.002884	,	0
17,8	,	75440	,	-27366	,	-25640	,	-4.957334	,	0
17,8	,	75455	,	-27380	,	-25643	,	-5.877678	,	0
17,8	,	75471	,	-27372	,	-25628	,	-6.6552515	,	0
17,8	,	75503	,	-27376	,	-25646	,	-7.2448473	,	0
17,8	,	75519	,	-27385	,	-25651	,	-7.5993643	,	0
17,8	,	75535	,	-27390	,	-25650	,	-7.8253336	,	0
17,8	,	75567	,	-27395	,	-25647	,	-8.1303215	,	0
17,8	,	75583	,	-27394	,	-25644	,	-8.614402	,	0
17,8	,	75615	,	-27408	,	-25651	,	-9.2598715	,	0
17,8	,	75631	,	-27405	,	-25656	,	-10.047432	,	0
17,8	,	75647	,	-27412	,	-25646	,	-10.936312	,	0
17,8	,	75679	,	-27414	,	-25656	,	-11.822282	,	0
17,8	,	75695	,	-27407	,	-25659	,	-12.54169	,	0
17,8	,	75711	,	-27412	,	-25636	,	-12.863573	,	0
17,8	,	75743	,	-27411	,	-25656	,	-12.624577	,	0
17,8	,	75759	,	-27399	,	-25659	,	-11.776552	,	0
17,8	,	75775	,	-27396	,	-25660	,	-10.248425	,	0
17,8	,	75807	,	-27386	,	-25652	,	-7.9679327	,	1
17,8	,	75823	,	-27390	,	-25652	,	-5.008972	,	3
17,8	,	75855	,	-27381	,	-25649	,	-1.635849	,	5
17,8	,	75871	,	-27378	,	-25649	,	1.8250525	,	8
17,8	,	75887	,	-27379	,	-25659	,	5.0921535	,	11
17,8	,	75919	,	-27382	,	-25649	,	7.8633637	,	14
17,8	,	75935	,	-27381	,	-25663	,	9.819168	,	16
17,8	,	75951	,	-27388	,	-25637	,	10.743954	,	17
17,8	,	75983	,	-27399	,	-25647	,	10.524794	,	17
17,8	,	75999	,	-27384	,	-25649	,	9.180874	,	16
17,8	,	76031	,	-27387	,	-25652	,	7.041327	,	14
17,8	,	76047	,	-27385	,	-25642	,	4.6467643	,	12
17,8	,	76063	,	-27384	,	-25654	,	2.4450998	,	9
17,8	,	76095	,	-27391	,	-25663	,	0.67079616	,	6
17,8	,	76111	,	-27380	,	-25663	,	-0.6088352	,	3
17,8	,	76127	,	-27397	,	-25661	,	-1.4176862	,	1
17,8	,	76159	,	-27383	,	-25652	,	-1.8636434	,	0
17,8	,	76175	,	-27390	,	-25667	,	-2.055077	,	0
17,8	,	76207	,	-27395	,	-25649	,	-2.072528	,	0
17,8	,	76223	,	-27399	,	-25664	,	-2.084002	,	0
17,8	,	76239	,	-27396	,	-25664	,	-2.2547174	,	0
17,8	,	76271	,	-27397	,	-25665	,	-2.5888631	,	0
17,8	,	76287	,	-27399	,	-25658	,	-2.9843535	,	0
17,8	,	76303	,	-27412	,	-25670	,	-3.4151986	,	0
17,9	,	76335	,	-27409	,	-25670	,	-3.9939847	,	0
17,9	,	76351	,	-27412	,	-25668	,	-4.7867823	,	0
17,9	,	76367	,	-27421	,	-25680	,	-5.732641	,	0
17,9	,	76399	,	-27423	,	-25673	,	-6.7867947	,	0
17,9	,	76415	,	-27428	,	-25682	,	-7.9307046	,	0
17,9	,	76447	,	-27446	,	-25667	,	-9.168246	,	0
17,9	,	76463	,	-27437	,	-25682	,	-10.555839	,	0
17,9	,	76479	,	-27438	,	-25688	,	-11.992434	,	0
17,9	,	76511	,	-27427	,	-25675	,	-13.100388	,	0
17,9	,	76527	,	-27426	,	-25679	,	-13.428668	,	0
17,9	,	76543	,	-27422	,	-25671	,	-12.698481	,	0
17,9	,	76575	,	-27415	,	-25681	,	-10.882749	,	0
17,9	,	76591	,	-27407	,	-25669	,	-8.104605	,	1
17,9	,	76623	,	-27418	,	-25672	,	-4.6344085	,	3
17,9	,	76639	,	-27411	,	-25673	,	-0.9693465	,	6
17,9	,	76655	,	-27399	,	-25674	,	2.4218624	,	9
17,9	,	76687	,	-27418	,	-25654	,	5.2960987	,	12
17,9	,	76703	,	-27413	,	-25673	,	7.3999467	,	14
17,9	,	76718	,	-27419	,	-25678	,	8.45451	,	16
17,9	,	76751	,	-27417	,	-25666	,	8.396488	,	17
17,9	,	76767	,	-27420	,	-25668	,	7.38953	,	17
17,9	,	76783	,	-27423	,	-25661	,	5.7002378	,	16
17,9	,	76815	,	-27422	,	-25668	,	3.6122093	,	14
17,9	,	76831	,	-27408	,	-25675	,	1.4813511	,	11
17,9	,	76862	,	-27420	,	-25668	,	-0.27067494	,	8
17,9	,	76878	,	-27405	,	-25670	,	-1.3616931	,	5
17,9	,	76895	,	-27433	,	-25672	,	-1.8045151	,	3
17,9	,	76927	,	-27431	,	-25656	,	-1.962719	,	1
17,9	,	76943	,	-27436	,	-25669	,	-2.3183446	,	0
17,9	,	76959	,	-27420	,	-25681	,	-3.019842	,	0
17,9	,	76991	,	-27434	,	-25675	,	-3.8382468	,	0
17,9	,	77006	,	-27424	,	-25683	,	-4.5089693	,	0
17,9	,	77039	,	-27433	,	-25678	,	-4.904127	,	0
17,9	,	77055	,	-27435	,	-25680	,	-5.0275726	,	0
17,9	,	77071	,	-27441	,	-25687	,	-5.015683	,	0
17,9	,	77103	,	-27442	,	-25687	,	-5.0479636	,	0
17,9	,	77118	,	-27442	,	-25681	,	-5.2134886	,	0
17,9	,	77134	,	-27444	,	-25689	,	-5.4761715	,	0
17,9	,	77166	,	-27452	,	-25684	,	-5.7822227	,	0
17,9	,	77182	,	-27461	,	-25691	,	-6.1967087	,	0
17,9	,	77199	,	-27468	,	-25697	,	-6.886509	,	0
17,9	,	77231	,	-27468	,	-25697	,	-7.954049	,	0
17,9	,	77247	,	-27449	,	-25685	,	-9.19986	,	0
17,9	,	77279	,	-27438	,	-25675	,	-10.021864	,	0
17,9	,	77295	,	-27432	,	-25685	,	-9.720643	,	0
17,9	,	77310	,	-27419	,	-25683	,	-7.91461	,	0
17,10	,	77342	,	-27416	,	-25681	,	-4.6312637	,	1
17,10	,	77358	,	-27426	,	-25684	,	-0.30836296	,	4
17,10	,	77375	,	-27416	,	-25682	,	4.2739925	,	8
17,10	,	77407	,	-27414	,	-25677	,	8.386398	,	12
17,10	,	77422	,	-27436	,	-25679	,	11.514188	,	16
17,10	,	77454	,	-27424	,	-25672	,	13.208815	,	19
17,10	,	77470	,	-27420	,	-25677	,	13.330185	,	20
17,10	,	77486	,	-27424	,	-25676	,	12.219278	,	20
17,10	,	77518	,	-27440	,	-25675	,	10.271446	,	20
17,10	,	77535	,	-27438	,	-25674	,	7.644366	,	19
17,10	,	77550	,	-27424	,	-25679	,	4.5582066	,	16
17,10	,	77582	,	-27437	,	-25687	,	1.5009742	,	12
17,10	,	77598	,	-27429	,	-25679	,	-1.0824358	,	8
17,10	,	77614	,	-27436	,	-25682	,	-2.9991913	,	4
17,10	,	77646	,	-27433	,	-25668	,	-4.2208834	,	1
17,10	,	77662	,	-27431	,	-25678	,	-4.7936344	,	0
17,10	,	77694	,	-27440	,	-25676	,	-4.8204184	,	0
17,10	,	77710	,	-27449	,	-25683	,	-4.5565233	,	0
17,10	,	77726	,	-27440	,	-25693	,	-4.331209	,	0
17,10	,	77758	,	-27441	,	-25684	,	-4.2528777	,	0
17,10	,	77774	,	-27442	,	-25692	,	-4.2012844	,	0
17,10	,	77790	,	-27455	,	-25689	,	-4.1267605	,	0
17,10	,	77822	,	-27456	,	-25691	,	-4.18451	,	0
17,10	,	77838	,	-27463	,	-25693	,	-4.5690866	,	0
17,10	,	77870	,	-27468	,	-25701	,	-5.3604894	,	0
17,10	,	77886	,	-27473	,	-25697	,	-6.5355997	,	0
17,10	,	77902	,	-27478	,	-25691	,	-8.003292	,	0
17,10	,	77934	,	-27481	,	-25705	,	-9.621899	,	0
17,10	,	77950	,	-27478	,	-25696	,	-11.183672	,	0
17,10	,	77966	,	-27471	,	-25694	,	-12.36562	,	0
17,10	,	77998	,	-27463	,	-25686	,	-12.768013	,	0
17,10	,	78014	,	-27450	,	-25682	,	-12.027945	,	0
17,10	,	78030	,	-27448	,	-25679	,	-9.947159	,	0
17,10	,	78062	,	-27451	,	-25684	,	-6.66768	,	2
17,10	,	78078	,	-27443	,	-25682	,	-2.681943	,	5
17,10	,	78110	,	-27433	,	-25684	,	1.481719	,	8
17,10	,	78126	,	-27441	,	-25681	,	5.4421062	,	12
17,10	,	78142	,	-27437	,	-25674	,	8.826038	,	15
17,10	,	78174	,	-27427	,	-25663	,	11.329642	,	18
17,10	,	78190	,	-27440	,	-25683	,	12.868312	,	20
17,10	,	78206	,	-27432	,	-25681	,	13.437138	,	21
17,10	,	78238	,	-27430	,	-25672	,	13.096672	,	21
17,10	,	78254	,	-27440	,	-25685	,	12.0320635	,	19
17,10	,	78286	,	-27433	,	-25669	,	10.420464	,	16
17,10	,	78302	,	-27434	,	-25676	,	8.452139	,	13
17,11	,	78318	,	-27429	,	-25674	,	6.4074693	,	9
17,11	,	78350	,	-27435	,	-25666	,	4.5474124	,	6
17,11	,	78366	,	-27444	,	-25687	,	2.9501898	,	3
17,11	,	78382	,	-27445	,	-25675	,	1.4800649	,	1
17,11	,	78414	,	-27431	,	-25681	,	0.054333687	,	0
17,11	,	78430	,	-27451	,	-25683	,	-1.2109559	,	0
17,11	,	78446	,	-27454	,	-25678	,	-2.308889	,	0
17,11	,	78478	,	-27464	,	-25680	,	-3.4674633	,	0
17,11	,	78494	,	-27470	,	-25680	,	-4.915597	,	0
17,11	,	78526	,	-27463	,	-25687	,	-6.681384	,	0
17,11	,	78542	,	-27442	,	-25684	,	-8.3957405	,	0
17,11	,	78558	,	-27454	,	-25676	,	-9.406246	,	0
17,11	,	78590	,	-27464	,	-25687	,	-9.395606	,	0
17,11	,	78606	,	-27468	,	-25694	,	-8.670646	,	0
17,11	,	78622	,	-27466	,	-25681	,	-7.736624	,	0
17,11	,	78654	,	-27472	,	-25693	,	-6.903817	,	0
17,11	,	78670	,	-27437	,	-25682	,	-6.1438355	,	0
17,11	,	78702	,	-27452	,	-25678	,	-5.0831404	,	0
17,11	,	78718	,	-27436	,	-25675	,	-3.3930986	,	1
17,11	,	78734	,	-27423	,	-25668	,	-1.0006409	,	2
17,11	,	78766	,	-27432	,	-25675	,	2.0335615	,	4
17,11	,	78782	,	-27427	,	-25663	,	5.388754	,	7
17,11	,	78798	,	-27427	,	-25673	,	8.534087	,	10
17,11	,	78830	,	-27421	,	-25670	,	11.057759	,	13
17,11	,	78846	,	-27417	,	-25685	,	12.797446	,	15
17,11	,	78862	,	-27413	,	-25649	,	13.795097	,	16
17,11	,	78894	,	-27396	,	-25657	,	14.257263	,	16
17,11	,	78910	,	-27418	,	-25662	,	14.415899	,	15
17,11	,	78942	,	-27412	,	-25659	,	14.242602	,	14
17,11	,	78958	,	-27421	,	-25651	,	13.495072	,	12
17,11	,	78974	,	-27414	,	-25653	,	12.052819	,	9
17,11	,	79006	,	-27406	,	-25653	,	10.087513	,	6
17,11	,	79022	,	-27414	,	-25659	,	7.971783	,	3
17,11	,	79038	,	-27414	,	-25650	,	5.9879365	,	1
17,11	,	79070	,	-27417	,	-25657	,	4.210297	,	0
17,11	,	79086	,	-27408	,	-25680	,	2.6706634	,	0
17,11	,	79118	,	-27420	,	-25646	,	1.4277446	,	0
17,11	,	79134	,	-27408	,	-25664	,	0.49359715	,	0
17,11	,	79150	,	-27419	,	-25657	,	-0.160676	,	0
17,11	,	79182	,	-27411	,	-25664	,	-0.5790783	,	0
17,11	,	79198	,	-27406	,	-25662	,	-0.7701212	,	0
17,11	,	79214	,	-27434	,	-25665	,	-0.7824011	,	0
17,11	,	79246	,	-27423	,	-25657	,	-0.8983222	,	0
17,11	,	79262	,	-27436	,	-25665	,	-1.4227533	,	0
17,11	,	79278	,	-27430	,	-25663	,	-2.4055223	,	0
17,12	,	79310	,	-27424	,	-25664	,	-3.6443255	,	0
17,12	,	79326	,	-27440	,	-25679	,	-4.8282123	,	0
17,12	,	79358	,	-27438	,	-25654	,	-5.8235736	,	0
17,12	,	79374	,	-27444	,	-25673	,	-6.6877875	,	0
17,12	,	79390	,	-27451	,	-25673	,	-7.491618	,	0
17,12	,	79422	,	-27458	,	-25669	,	-8.329439	,	0
17,12	,	79438	,	-27443	,	-25659	,	-9.216483	,	0
17,12	,	79454	,	-27451	,	-25662	,	-9.931807	,	0
17,12	,	79486	,	-27444	,	-25661	,	-10.189604	,	0
17,12	,	79502	,	-27432	,	-25658	,	-9.78468	,	0
17,12	,	79534	,	-27426	,	-25660	,	-8.512854	,	0
17,12	,	79550	,	-27426	,	-25660	,	-6.2779503	,	1
17,12	,	79566	,	-27405	,	-25681	,	-3.1876063	,	3
17,12	,	79598	,	-27405	,	-25635	,	0.59328985	,	6
17,12	,	79614	,	-27403	,	-25647	,	4.809709	,	9
17,12	,	79630	,	-27397	,	-25645	,	9.018315	,	13
17,12	,	79662	,	-27402	,	-25651	,	12.723675	,	17
17,12	,	79678	,	-27391	,	-25645	,	15.534158	,	20
17,12	,	79709	,	-27390	,	-25654	,	17.282623	,	22
17,12	,	79725	,	-27404	,	-25660	,	17.95763	,	23
17,12	,	79741	,	-27404	,	-25657	,	17.48361	,	22
17,12	,	79774	,	-27404	,	-25657	,	15.826143	,	20
17,12	,	79790	,	-27408	,	-25656	,	13.192252	,	17
17,12	,	79805	,	-27405	,	-25674	,	9.955123	,	14
17,12	,	79837	,	-27412	,	-25628	,	6.5115323	,	10
17,12	,	79853	,	-27405	,	-25663	,	3.2107515	,	6
17,12	,	79869	,	-27413	,	-25654	,	0.33024073	,	3
17,12	,	79902	,	-27417	,	-25653	,	-1.9904385	,	1
17,12	,	79918	,	-27413	,	-25659	,	-3.7601252	,	0
17,12	,	79950	,	-27409	,	-25675	,	-4.9721994	,	0
17,12	,	79966	,	-27414	,	-25660	,	-5.568584	,	0
17,12	,	79981	,	-27429	,	-25667	,	-5.6630654	,	0
17,12	,	80013	,	-27430	,	-25666	,	-5.6290836	,	0
17,12	,	80029	,	-27420	,	-25666	,	-5.770561	,	0
17,12	,	80046	,	-27446	,	-25686	,	-6.1369295	,	0
17,12	,	80077	,	-27437	,	-25648	,	-6.7676897	,	0
17,12	,	80093	,	-27451	,	-25674	,	-7.7193284	,	0
17,12	,	80126	,	-27444	,	-25682	,	-8.910416	,	0
17,12	,	80142	,	-27458	,	-25681	,	-10.171307	,	0
17,12	,	80158	,	-27452	,	-25690	,	-11.3382635	,	0
17,12	,	80189	,	-27463	,	-25687	,	-12.28799	,	0
17,12	,	80206	,	-27463	,	-25691	,	-12.9660015	,	0
17,12	,	80222	,	-27474	,	-25687	,	-13.407984	,	0
17,12	,	80253	,	-27479	,	-25703	,	-13.728182	,	0
17,12	,	80269	,	-27477	,	-25711	,	-14.027577	,	0
17,12	,	80285	,	-27470	,	-25714	,	-14.2170315	,	0
17,13	,	80317	,	-27472	,	-25674	,	-14.019611	,	0
17,13	,	80334	,	-27444	,	-25683	,	-13.095646	,	0
17,13	,	80365	,	-27438	,	-25686	,	-11.041902	,	0
17,13	,	80382	,	-27439	,	-25689	,	-7.627373	,	2
17,13	,	80397	,	-27431	,	-25685	,	-3.1130476	,	5
17,13	,	80429	,	-27428	,	-25684	,	1.9136271	,	9
17,13	,	80445	,	-27424	,	-25672	,	6.85101	,	14
17,13	,	80461	,	-27412	,	-25677	,	11.236623	,	18
17,13	,	80493	,	-27419	,	-25680	,	14.795661	,	22
17,13	,	80510	,	-27427	,	-25685	,	17.27454	,	25
17,13	,	80541	,	-27422	,	-25686	,	18.378857	,	27
17,13	,	80557	,	-27420	,	-25648	,	18.03307	,	28
17,13	,	80573	,	-27423	,	-25677	,	16.480549	,	26
17,13	,	80605	,	-27421	,	-25674	,	14.097618	,	23
