Data recorded on Mon Jul 24 08-32-35 CAT 2017
Time: 8:32:42
Time		Millis		IR PPG		Red PPG		Filtered		SSF
32,51	,	30468	,	-15096	,	-12203	,	-10.29298	,	0
32,51	,	30484	,	-15105	,	-12204	,	-10.9480295	,	0
32,51	,	30500	,	-15112	,	-12215	,	-11.86628	,	0
32,51	,	30532	,	-15120	,	-12216	,	-13.122197	,	0
32,51	,	30548	,	-15134	,	-12228	,	-14.704384	,	0
32,51	,	30564	,	-15148	,	-12218	,	-16.626987	,	0
32,51	,	30596	,	-15156	,	-12232	,	-18.924229	,	0
32,51	,	30612	,	-15169	,	-12231	,	-21.533928	,	0
32,51	,	30628	,	-15185	,	-12234	,	-24.324291	,	0
32,51	,	30660	,	-15186	,	-12233	,	-27.151714	,	0
32,51	,	30676	,	-15197	,	-12240	,	-29.773022	,	0
32,51	,	30708	,	-15210	,	-12247	,	-31.916868	,	0
32,51	,	30724	,	-15221	,	-12253	,	-33.488953	,	0
32,51	,	30740	,	-15219	,	-12252	,	-34.497604	,	0
32,51	,	30772	,	-15210	,	-12251	,	-34.780727	,	0
32,51	,	30788	,	-15168	,	-12239	,	-33.770798	,	0
32,51	,	30804	,	-15126	,	-12218	,	-30.413832	,	1
32,51	,	30836	,	-15094	,	-12206	,	-23.574142	,	4
32,51	,	30852	,	-15076	,	-12195	,	-12.824387	,	10
32,51	,	30884	,	-15061	,	-12189	,	1.1186752	,	20
32,51	,	30900	,	-15058	,	-12192	,	16.60421	,	33
32,51	,	30916	,	-15060	,	-12190	,	31.539127	,	48
32,51	,	30948	,	-15056	,	-12196	,	43.926327	,	62
32,51	,	30964	,	-15050	,	-12197	,	52.398853	,	74
32,51	,	30980	,	-15054	,	-12192	,	56.451233	,	82
32,51	,	31012	,	-15056	,	-12187	,	56.245766	,	85
32,51	,	31028	,	-15069	,	-12200	,	52.31363	,	82
32,51	,	31060	,	-15073	,	-12196	,	45.376144	,	76
32,51	,	31076	,	-15070	,	-12196	,	36.347492	,	66
32,51	,	31092	,	-15079	,	-12199	,	26.327301	,	53
32,51	,	31124	,	-15081	,	-12191	,	16.356567	,	38
32,51	,	31139	,	-15081	,	-12192	,	7.2358685	,	24
32,51	,	31155	,	-15078	,	-12201	,	-0.41887093	,	12
32,51	,	31188	,	-15074	,	-12205	,	-6.1446004	,	4
32,51	,	31204	,	-15087	,	-12203	,	-9.773802	,	0
32,51	,	31220	,	-15096	,	-12206	,	-11.6061125	,	0
32,51	,	31252	,	-15098	,	-12209	,	-12.264623	,	0
32,51	,	31268	,	-15105	,	-12214	,	-12.333023	,	0
32,51	,	31300	,	-15125	,	-12223	,	-12.284393	,	0
32,51	,	31316	,	-15131	,	-12220	,	-12.591812	,	0
32,51	,	31332	,	-15147	,	-12231	,	-13.620579	,	0
32,51	,	31364	,	-15158	,	-12233	,	-15.501886	,	0
32,51	,	31380	,	-15173	,	-12237	,	-18.181755	,	0
32,51	,	31396	,	-15181	,	-12242	,	-21.47507	,	0
32,51	,	31428	,	-15186	,	-12240	,	-25.044954	,	0
32,51	,	31444	,	-15197	,	-12253	,	-28.438747	,	0
32,52	,	31476	,	-15207	,	-12247	,	-31.270838	,	0
32,52	,	31492	,	-15206	,	-12259	,	-33.301254	,	0
32,52	,	31508	,	-15219	,	-12258	,	-34.37082	,	0
32,52	,	31539	,	-15228	,	-12261	,	-34.48029	,	0
32,52	,	31556	,	-15237	,	-12259	,	-33.85097	,	0
32,52	,	31572	,	-15249	,	-12265	,	-32.805847	,	0
32,52	,	31604	,	-15251	,	-12278	,	-31.629614	,	1
32,52	,	31620	,	-15213	,	-12252	,	-30.246014	,	2
32,52	,	31636	,	-15155	,	-12242	,	-27.730473	,	3
32,52	,	31667	,	-15127	,	-12225	,	-22.509583	,	5
32,52	,	31683	,	-15111	,	-12219	,	-13.525414	,	10
32,52	,	31715	,	-15102	,	-12216	,	-1.1291838	,	18
32,52	,	31732	,	-15097	,	-12216	,	13.113925	,	30
32,52	,	31748	,	-15097	,	-12210	,	27.138586	,	44
32,52	,	31780	,	-15094	,	-12216	,	39.016235	,	58
32,52	,	31796	,	-15087	,	-12209	,	47.416565	,	68
32,52	,	31812	,	-15097	,	-12217	,	51.760796	,	75
32,52	,	31844	,	-15104	,	-12216	,	52.014305	,	78
32,52	,	31860	,	-15120	,	-12223	,	48.449303	,	76
32,52	,	31891	,	-15111	,	-12222	,	41.65923	,	71
32,52	,	31907	,	-15114	,	-12219	,	32.684578	,	63
32,52	,	31923	,	-15114	,	-12215	,	22.851696	,	51
32,52	,	31956	,	-15106	,	-12216	,	13.415623	,	37
32,52	,	31971	,	-15113	,	-12220	,	5.346161	,	23
32,52	,	31987	,	-15114	,	-12225	,	-0.8325548	,	12
32,52	,	32019	,	-15113	,	-12231	,	-5.047392	,	4
32,52	,	32036	,	-15113	,	-12218	,	-7.462829	,	0
32,52	,	32052	,	-15128	,	-12228	,	-8.417458	,	0
32,52	,	32083	,	-15132	,	-12237	,	-8.482603	,	0
32,52	,	32099	,	-15144	,	-12231	,	-8.317425	,	0
32,52	,	32131	,	-15154	,	-12237	,	-8.464889	,	0
32,52	,	32147	,	-15161	,	-12240	,	-9.269823	,	0
32,52	,	32163	,	-15168	,	-12245	,	-10.821149	,	0
32,52	,	32195	,	-15180	,	-12246	,	-12.991156	,	0
32,52	,	32211	,	-15188	,	-12250	,	-15.578491	,	0
32,52	,	32227	,	-15198	,	-12250	,	-18.37254	,	0
32,52	,	32259	,	-15213	,	-12266	,	-21.184044	,	0
32,52	,	32276	,	-15219	,	-12256	,	-23.890493	,	0
32,52	,	32307	,	-15234	,	-12260	,	-26.408003	,	0
32,52	,	32323	,	-15239	,	-12269	,	-28.64997	,	0
32,52	,	32339	,	-15243	,	-12271	,	-30.4828	,	0
32,52	,	32371	,	-15248	,	-12271	,	-31.700314	,	0
32,52	,	32387	,	-15258	,	-12277	,	-32.14657	,	0
32,52	,	32403	,	-15242	,	-12268	,	-31.745663	,	0
32,52	,	32435	,	-15198	,	-12252	,	-30.11834	,	0
32,52	,	32451	,	-15158	,	-12236	,	-26.28703	,	1
32,53	,	32483	,	-15126	,	-12230	,	-19.153381	,	4
32,53	,	32499	,	-15119	,	-12218	,	-8.396205	,	11
32,53	,	32515	,	-15115	,	-12211	,	5.044984	,	21
32,53	,	32547	,	-15111	,	-12218	,	19.278183	,	34
32,53	,	32563	,	-15089	,	-12210	,	32.333187	,	48
32,53	,	32579	,	-15099	,	-12214	,	42.81156	,	61
32,53	,	32611	,	-15103	,	-12216	,	49.81876	,	71
32,53	,	32627	,	-15104	,	-12210	,	52.80909	,	78
32,53	,	32643	,	-15111	,	-12223	,	51.750008	,	79
32,53	,	32675	,	-15119	,	-12217	,	47.119125	,	76
32,53	,	32691	,	-15117	,	-12221	,	39.73092	,	69
32,53	,	32723	,	-15110	,	-12219	,	30.696733	,	59
32,53	,	32739	,	-15116	,	-12227	,	21.281319	,	46
32,53	,	32755	,	-15116	,	-12214	,	12.546541	,	32
32,53	,	32787	,	-15113	,	-12220	,	5.1754417	,	19
32,53	,	32803	,	-15119	,	-12215	,	-0.47814274	,	9
32,53	,	32819	,	-15126	,	-12225	,	-4.4052696	,	2
32,53	,	32851	,	-15125	,	-12224	,	-6.8873262	,	0
32,53	,	32867	,	-15142	,	-12230	,	-8.337271	,	0
32,53	,	32899	,	-15147	,	-12230	,	-9.255878	,	0
32,53	,	32915	,	-15151	,	-12239	,	-10.109903	,	0
32,53	,	32931	,	-15160	,	-12236	,	-11.140614	,	0
32,53	,	32963	,	-15166	,	-12244	,	-12.399487	,	0
32,53	,	32979	,	-15175	,	-12248	,	-13.864578	,	0
32,53	,	32995	,	-15187	,	-12243	,	-15.499777	,	0
32,53	,	33027	,	-15209	,	-12255	,	-17.362679	,	0
32,53	,	33043	,	-15217	,	-12263	,	-19.625736	,	0
32,53	,	33059	,	-15228	,	-12259	,	-22.364304	,	0
32,53	,	33091	,	-15232	,	-12263	,	-25.38602	,	0
32,53	,	33107	,	-15246	,	-12270	,	-28.334852	,	0
32,53	,	33139	,	-15247	,	-12275	,	-30.868544	,	0
32,53	,	33155	,	-15256	,	-12274	,	-32.705048	,	0
32,53	,	33171	,	-15264	,	-12283	,	-33.663425	,	0
32,53	,	33203	,	-15271	,	-12280	,	-33.74226	,	0
32,53	,	33219	,	-15267	,	-12284	,	-33.03409	,	0
32,53	,	33235	,	-15231	,	-12261	,	-31.387383	,	0
32,53	,	33267	,	-15175	,	-12244	,	-27.998379	,	1
32,53	,	33283	,	-15120	,	-12230	,	-21.463814	,	4
32,53	,	33315	,	-15116	,	-12220	,	-10.730583	,	10
32,53	,	33331	,	-15107	,	-12216	,	3.7504177	,	20
32,53	,	33347	,	-15100	,	-12218	,	20.023506	,	34
32,53	,	33379	,	-15100	,	-12212	,	35.634224	,	50
32,53	,	33395	,	-15093	,	-12213	,	48.472504	,	65
32,53	,	33411	,	-15089	,	-12210	,	57.199036	,	77
32,53	,	33443	,	-15084	,	-12211	,	61.36653	,	85
32,54	,	33459	,	-15107	,	-12215	,	61.141617	,	88
32,54	,	33475	,	-15102	,	-12214	,	56.944794	,	85
32,54	,	33507	,	-15104	,	-12214	,	49.500084	,	79
32,54	,	33523	,	-15098	,	-12221	,	39.971016	,	69
32,54	,	33554	,	-15097	,	-12219	,	29.726185	,	55
32,54	,	33571	,	-15107	,	-12215	,	19.943485	,	39
32,54	,	33587	,	-15102	,	-12216	,	11.372793	,	24
32,54	,	33619	,	-15105	,	-12212	,	4.405756	,	12
32,54	,	33635	,	-15106	,	-12213	,	-0.7940483	,	4
32,54	,	33651	,	-15113	,	-12217	,	-4.313779	,	0
32,54	,	33683	,	-15113	,	-12220	,	-6.4585514	,	0
32,54	,	33699	,	-15115	,	-12227	,	-7.5852175	,	0
32,54	,	33731	,	-15131	,	-12232	,	-8.054641	,	0
32,54	,	33747	,	-15139	,	-12232	,	-8.331812	,	0
32,54	,	33763	,	-15159	,	-12235	,	-8.949796	,	0
32,54	,	33795	,	-15161	,	-12236	,	-10.311829	,	0
32,54	,	33811	,	-15167	,	-12249	,	-12.47811	,	0
32,54	,	33827	,	-15181	,	-12248	,	-15.188286	,	0
32,54	,	33859	,	-15194	,	-12260	,	-18.162136	,	0
32,54	,	33874	,	-15199	,	-12252	,	-21.217312	,	0
32,54	,	33890	,	-15204	,	-12258	,	-24.12347	,	0
32,54	,	33922	,	-15201	,	-12258	,	-26.52206	,	0
32,54	,	33939	,	-15216	,	-12270	,	-28.059786	,	0
32,54	,	33971	,	-15221	,	-12269	,	-28.634295	,	0
32,54	,	33987	,	-15228	,	-12262	,	-28.411	,	0
32,54	,	34003	,	-15243	,	-12270	,	-27.672709	,	0
32,54	,	34034	,	-15257	,	-12275	,	-26.806223	,	0
32,54	,	34050	,	-15245	,	-12278	,	-26.12901	,	0
32,54	,	34066	,	-15216	,	-12258	,	-25.413559	,	0
32,54	,	34098	,	-15168	,	-12236	,	-23.63281	,	0
32,54	,	34114	,	-15126	,	-12222	,	-19.286425	,	1
32,54	,	34147	,	-15111	,	-12224	,	-11.254685	,	5
32,54	,	34163	,	-15098	,	-12223	,	0.361763	,	13
32,54	,	34179	,	-15095	,	-12217	,	14.176	,	24
32,54	,	34211	,	-15085	,	-12218	,	28.173748	,	37
32,54	,	34226	,	-15077	,	-12205	,	40.474438	,	50
32,54	,	34242	,	-15081	,	-12212	,	49.739174	,	62
32,54	,	34274	,	-15074	,	-12215	,	55.21648	,	71
32,54	,	34290	,	-15088	,	-12217	,	56.684692	,	76
32,54	,	34322	,	-15092	,	-12216	,	54.315147	,	76
32,54	,	34339	,	-15087	,	-12223	,	48.6362	,	72
32,54	,	34354	,	-15100	,	-12224	,	40.558525	,	64
32,54	,	34386	,	-15097	,	-12220	,	31.142998	,	53
32,54	,	34402	,	-15101	,	-12219	,	21.394802	,	40
32,54	,	34418	,	-15104	,	-12222	,	12.195538	,	27
32,54	,	34451	,	-15091	,	-12236	,	4.261812	,	15
32,55	,	34467	,	-15094	,	-12221	,	-1.8355532	,	6
32,55	,	34482	,	-15111	,	-12227	,	-5.8813553	,	1
32,55	,	34514	,	-15112	,	-12225	,	-8.218965	,	0
32,55	,	34530	,	-15117	,	-12233	,	-9.44767	,	0
32,55	,	34562	,	-15132	,	-12236	,	-10.107051	,	0
32,55	,	34578	,	-15135	,	-12238	,	-10.6748295	,	0
32,55	,	34594	,	-15146	,	-12241	,	-11.503352	,	0
32,55	,	34626	,	-15162	,	-12252	,	-12.784655	,	0
32,55	,	34642	,	-15175	,	-12252	,	-14.659487	,	0
32,55	,	34658	,	-15185	,	-12259	,	-17.192062	,	0
32,55	,	34690	,	-15199	,	-12271	,	-20.279087	,	0
32,55	,	34706	,	-15206	,	-12262	,	-23.678772	,	0
32,55	,	34738	,	-15217	,	-12275	,	-27.073261	,	0
32,55	,	34754	,	-15232	,	-12279	,	-30.166843	,	0
32,55	,	34770	,	-15246	,	-12286	,	-32.819603	,	0
32,55	,	34802	,	-15244	,	-12285	,	-34.977547	,	0
32,55	,	34818	,	-15256	,	-12293	,	-36.48935	,	0
32,55	,	34834	,	-15268	,	-12297	,	-37.209846	,	0
32,55	,	34866	,	-15277	,	-12300	,	-37.20006	,	0
32,55	,	34882	,	-15276	,	-12298	,	-36.610744	,	0
32,55	,	34898	,	-15286	,	-12297	,	-35.501312	,	0
32,55	,	34930	,	-15252	,	-12301	,	-33.73378	,	1
32,55	,	34946	,	-15203	,	-12266	,	-30.636179	,	2
32,55	,	34978	,	-15148	,	-12253	,	-24.877314	,	5
32,55	,	34994	,	-15126	,	-12246	,	-15.210688	,	10
32,55	,	35010	,	-15131	,	-12240	,	-1.637475	,	19
32,55	,	35042	,	-15123	,	-12239	,	14.193923	,	32
32,55	,	35058	,	-15122	,	-12240	,	29.806438	,	47
32,55	,	35074	,	-15118	,	-12236	,	42.97013	,	62
32,55	,	35106	,	-15124	,	-12238	,	52.175777	,	75
32,55	,	35122	,	-15123	,	-12239	,	56.688625	,	83
32,55	,	35154	,	-15128	,	-12240	,	56.50935	,	86
32,55	,	35170	,	-15139	,	-12252	,	52.2085	,	83
32,55	,	35186	,	-15147	,	-12239	,	44.649303	,	78
32,55	,	35218	,	-15136	,	-12242	,	34.91042	,	69
32,55	,	35234	,	-15129	,	-12236	,	24.369339	,	56
32,55	,	35250	,	-15132	,	-12242	,	14.468554	,	41
32,55	,	35282	,	-15144	,	-12244	,	6.1826344	,	26
32,55	,	35298	,	-15142	,	-12246	,	-0.19366074	,	13
32,55	,	35330	,	-15137	,	-12250	,	-4.7194104	,	4
32,55	,	35346	,	-15140	,	-12248	,	-7.4984713	,	0
32,55	,	35362	,	-15143	,	-12247	,	-8.731329	,	0
32,55	,	35394	,	-15160	,	-12251	,	-8.863148	,	0
32,55	,	35410	,	-15162	,	-12257	,	-8.548397	,	0
32,55	,	35426	,	-15164	,	-12250	,	-8.352796	,	0
32,56	,	35458	,	-15190	,	-12262	,	-8.609531	,	0
32,56	,	35474	,	-15194	,	-12271	,	-9.60227	,	0
32,56	,	35490	,	-15198	,	-12268	,	-11.474402	,	0
32,56	,	35522	,	-15211	,	-12275	,	-14.0357685	,	0
32,56	,	35538	,	-15228	,	-12277	,	-16.99488	,	0
32,56	,	35570	,	-15231	,	-12289	,	-20.15942	,	0
32,56	,	35586	,	-15237	,	-12281	,	-23.291655	,	0
32,56	,	35602	,	-15249	,	-12285	,	-26.067348	,	0
32,56	,	35634	,	-15261	,	-12284	,	-28.283731	,	0
32,56	,	35650	,	-15261	,	-12291	,	-29.900112	,	0
32,56	,	35666	,	-15277	,	-12290	,	-30.906425	,	0
32,56	,	35698	,	-15267	,	-12297	,	-31.27376	,	0
32,56	,	35714	,	-15199	,	-12266	,	-30.543663	,	0
32,56	,	35746	,	-15162	,	-12252	,	-27.377647	,	0
32,56	,	35762	,	-15138	,	-12250	,	-20.325151	,	3
32,56	,	35778	,	-15132	,	-12248	,	-9.144319	,	10
32,56	,	35810	,	-15132	,	-12243	,	4.866214	,	21
32,56	,	35826	,	-15120	,	-12239	,	19.536379	,	35
32,56	,	35842	,	-15117	,	-12242	,	32.762806	,	49
32,56	,	35874	,	-15108	,	-12233	,	43.079044	,	62
32,56	,	35890	,	-15109	,	-12243	,	49.734947	,	72
32,56	,	35906	,	-15108	,	-12235	,	52.55659	,	78
32,56	,	35938	,	-15114	,	-12236	,	51.76464	,	80
32,56	,	35954	,	-15128	,	-12241	,	47.7949	,	77
32,56	,	35986	,	-15135	,	-12240	,	41.169426	,	70
32,56	,	36002	,	-15124	,	-12239	,	32.610546	,	59
32,56	,	36018	,	-15134	,	-12243	,	23.157957	,	45
32,56	,	36050	,	-15122	,	-12242	,	13.938292	,	31
32,56	,	36066	,	-15133	,	-12250	,	5.8686323	,	18
32,56	,	36082	,	-15126	,	-12242	,	-0.49833488	,	8
32,56	,	36114	,	-15134	,	-12244	,	-4.992267	,	2
32,56	,	36130	,	-15136	,	-12243	,	-7.7434435	,	0
32,56	,	36162	,	-15144	,	-12248	,	-9.112872	,	0
32,56	,	36178	,	-15159	,	-12254	,	-9.638769	,	0
32,56	,	36194	,	-15164	,	-12260	,	-9.938702	,	0
32,56	,	36226	,	-15172	,	-12261	,	-10.498294	,	0
32,56	,	36242	,	-15186	,	-12267	,	-11.563311	,	0
32,56	,	36258	,	-15197	,	-12267	,	-13.2459955	,	0
32,56	,	36290	,	-15207	,	-12269	,	-15.561966	,	0
32,56	,	36306	,	-15208	,	-12278	,	-18.335413	,	0
32,56	,	36321	,	-15221	,	-12279	,	-21.205875	,	0
32,56	,	36354	,	-15231	,	-12289	,	-23.839888	,	0
32,56	,	36369	,	-15249	,	-12291	,	-26.123905	,	0
32,56	,	36402	,	-15252	,	-12294	,	-28.109629	,	0
32,56	,	36418	,	-15261	,	-12300	,	-29.804363	,	0
32,56	,	36434	,	-15281	,	-12292	,	-31.16687	,	0
32,57	,	36466	,	-15282	,	-12303	,	-32.242424	,	0
32,57	,	36482	,	-15295	,	-12311	,	-33.06797	,	0
32,57	,	36498	,	-15262	,	-12298	,	-33.411285	,	0
32,57	,	36530	,	-15208	,	-12273	,	-32.39167	,	0
32,57	,	36545	,	-15164	,	-12255	,	-28.445543	,	1
32,57	,	36577	,	-15141	,	-12254	,	-20.229692	,	4
32,57	,	36593	,	-15127	,	-12247	,	-7.6757984	,	12
32,57	,	36609	,	-15124	,	-12243	,	7.822773	,	24
32,57	,	36642	,	-15118	,	-12244	,	24.00253	,	39
32,57	,	36658	,	-15114	,	-12235	,	38.55519	,	55
32,57	,	36674	,	-15110	,	-12234	,	49.74829	,	69
32,57	,	36705	,	-15103	,	-12228	,	56.678467	,	80
32,57	,	36721	,	-15109	,	-12238	,	59.202705	,	86
32,57	,	36753	,	-15102	,	-12238	,	57.708878	,	87
32,57	,	36769	,	-15119	,	-12244	,	52.89653	,	84
32,57	,	36785	,	-15118	,	-12235	,	45.573437	,	76
32,57	,	36818	,	-15105	,	-12240	,	36.66799	,	64
32,57	,	36834	,	-15115	,	-12233	,	27.299408	,	49
32,57	,	36850	,	-15120	,	-12234	,	18.435974	,	33
32,57	,	36881	,	-15108	,	-12240	,	10.672926	,	19
32,57	,	36898	,	-15110	,	-12227	,	4.43762	,	8
32,57	,	36913	,	-15117	,	-12239	,	-0.03227234	,	2
32,57	,	36945	,	-15129	,	-12242	,	-2.921421	,	0
32,57	,	36961	,	-15132	,	-12245	,	-4.7583685	,	0
32,57	,	36993	,	-15141	,	-12250	,	-6.096734	,	0
32,57	,	37010	,	-15144	,	-12249	,	-7.320864	,	0
32,57	,	37025	,	-15151	,	-12251	,	-8.627716	,	0
32,57	,	37058	,	-15159	,	-12260	,	-10.078558	,	0
32,57	,	37073	,	-15165	,	-12255	,	-11.668603	,	0
32,57	,	37089	,	-15188	,	-12267	,	-13.429903	,	0
32,57	,	37121	,	-15188	,	-12272	,	-15.47958	,	0
32,57	,	37137	,	-15200	,	-12269	,	-17.847626	,	0
32,57	,	37169	,	-15216	,	-12264	,	-20.415829	,	0
32,57	,	37185	,	-15225	,	-12280	,	-23.090069	,	0
32,57	,	37201	,	-15231	,	-12285	,	-25.772243	,	0
32,57	,	37233	,	-15236	,	-12285	,	-28.22736	,	0
32,57	,	37250	,	-15249	,	-12288	,	-30.178692	,	0
32,57	,	37266	,	-15255	,	-12298	,	-31.489182	,	0
32,57	,	37297	,	-15266	,	-12302	,	-32.179325	,	0
32,57	,	37313	,	-15264	,	-12297	,	-32.301174	,	0
32,57	,	37329	,	-15230	,	-12290	,	-31.646584	,	0
32,57	,	37361	,	-15189	,	-12271	,	-29.409472	,	0
32,57	,	37377	,	-15153	,	-12250	,	-24.380325	,	2
32,57	,	37409	,	-15119	,	-12242	,	-15.669965	,	7
32,57	,	37425	,	-15117	,	-12238	,	-3.36024	,	15
32,57	,	37441	,	-15110	,	-12235	,	11.256144	,	27
32,58	,	37473	,	-15094	,	-12237	,	26.150326	,	41
32,58	,	37489	,	-15094	,	-12230	,	39.411655	,	55
32,58	,	37505	,	-15091	,	-12236	,	49.63948	,	68
32,58	,	37537	,	-15083	,	-12230	,	56.006947	,	78
32,58	,	37553	,	-15090	,	-12222	,	58.30782	,	84
32,58	,	37585	,	-15099	,	-12231	,	56.76609	,	84
32,58	,	37601	,	-15099	,	-12243	,	51.846783	,	79
32,58	,	37617	,	-15102	,	-12223	,	44.305225	,	71
32,58	,	37649	,	-15102	,	-12233	,	35.158558	,	59
32,58	,	37665	,	-15098	,	-12226	,	25.510525	,	45
32,58	,	37681	,	-15114	,	-12235	,	16.315277	,	31
32,58	,	37713	,	-15100	,	-12232	,	8.207071	,	18
32,58	,	37729	,	-15104	,	-12236	,	1.6189556	,	8
32,58	,	37761	,	-15105	,	-12232	,	-3.1607432	,	2
32,58	,	37777	,	-15113	,	-12235	,	-6.16475	,	0
32,58	,	37793	,	-15123	,	-12241	,	-7.7862177	,	0
32,58	,	37825	,	-15126	,	-12249	,	-8.601677	,	0
32,58	,	37841	,	-15140	,	-12258	,	-9.153274	,	0
32,58	,	37857	,	-15153	,	-12247	,	-9.893479	,	0
32,58	,	37889	,	-15169	,	-12261	,	-11.210573	,	0
32,58	,	37905	,	-15179	,	-12266	,	-13.347179	,	0
32,58	,	37921	,	-15192	,	-12272	,	-16.312256	,	0
32,58	,	37953	,	-15198	,	-12271	,	-19.881432	,	0
32,58	,	37969	,	-15208	,	-12280	,	-23.657446	,	0
32,58	,	38001	,	-15229	,	-12283	,	-27.2597	,	0
32,58	,	38017	,	-15219	,	-12287	,	-30.431988	,	0
32,58	,	38033	,	-15229	,	-12284	,	-32.858856	,	0
32,58	,	38065	,	-15233	,	-12290	,	-34.19188	,	0
32,58	,	38081	,	-15246	,	-12297	,	-34.34225	,	0
32,58	,	38097	,	-15260	,	-12288	,	-33.566685	,	0
32,58	,	38129	,	-15270	,	-12300	,	-32.33893	,	0
32,58	,	38145	,	-15230	,	-12279	,	-30.888365	,	1
32,58	,	38177	,	-15177	,	-12271	,	-28.515392	,	2
32,58	,	38193	,	-15148	,	-12261	,	-23.71368	,	4
32,58	,	38209	,	-15139	,	-12259	,	-15.400538	,	8
32,58	,	38241	,	-15127	,	-12248	,	-3.8731985	,	16
32,58	,	38257	,	-15114	,	-12239	,	9.459504	,	27
32,58	,	38273	,	-15119	,	-12248	,	22.809145	,	40
32,58	,	38305	,	-15120	,	-12234	,	34.40786	,	53
32,58	,	38321	,	-15112	,	-12256	,	42.854424	,	64
32,58	,	38337	,	-15109	,	-12230	,	47.505295	,	71
32,58	,	38369	,	-15124	,	-12249	,	48.398556	,	74
32,58	,	38385	,	-15118	,	-12254	,	45.89991	,	72
32,58	,	38417	,	-15128	,	-12248	,	40.61939	,	68
32,58	,	38433	,	-15126	,	-12247	,	33.40113	,	60
32,58	,	38449	,	-15130	,	-12245	,	25.187716	,	49
32,59	,	38481	,	-15127	,	-12251	,	16.897491	,	36
32,59	,	38497	,	-15126	,	-12251	,	9.32769	,	23
32,59	,	38513	,	-15124	,	-12251	,	3.07619	,	12
32,59	,	38545	,	-15121	,	-12248	,	-1.5053234	,	4
32,59	,	38561	,	-15125	,	-12261	,	-4.33619	,	0
32,59	,	38593	,	-15131	,	-12246	,	-5.6343307	,	0
32,59	,	38609	,	-15144	,	-12257	,	-5.9148655	,	0
32,59	,	38625	,	-15149	,	-12262	,	-5.8540373	,	0
32,59	,	38657	,	-15163	,	-12263	,	-6.061657	,	0
32,59	,	38673	,	-15164	,	-12262	,	-6.914934	,	0
32,59	,	38689	,	-15176	,	-12272	,	-8.499144	,	0
32,59	,	38721	,	-15190	,	-12278	,	-10.720005	,	0
32,59	,	38737	,	-15197	,	-12270	,	-13.462651	,	0
32,59	,	38753	,	-15215	,	-12282	,	-16.604242	,	0
32,59	,	38785	,	-15212	,	-12281	,	-19.95288	,	0
32,59	,	38801	,	-15217	,	-12295	,	-23.149147	,	0
32,59	,	38833	,	-15226	,	-12288	,	-25.745222	,	0
32,59	,	38849	,	-15241	,	-12293	,	-27.516792	,	0
32,59	,	38865	,	-15258	,	-12297	,	-28.611872	,	0
32,59	,	38897	,	-15254	,	-12300	,	-29.332165	,	0
32,59	,	38913	,	-15249	,	-12294	,	-29.720724	,	0
32,59	,	38929	,	-15221	,	-12287	,	-29.336723	,	0
32,59	,	38961	,	-15178	,	-12272	,	-27.272533	,	0
32,59	,	38977	,	-15147	,	-12261	,	-22.40142	,	2
32,59	,	39009	,	-15136	,	-12260	,	-14.061344	,	6
32,59	,	39025	,	-15121	,	-12251	,	-2.6639013	,	14
32,59	,	39041	,	-15110	,	-12255	,	10.466614	,	25
32,59	,	39073	,	-15111	,	-12238	,	23.640476	,	38
32,59	,	39089	,	-15106	,	-12249	,	35.190666	,	51
32,59	,	39105	,	-15105	,	-12247	,	43.8084	,	62
32,59	,	39137	,	-15111	,	-12244	,	48.756622	,	70
32,59	,	39153	,	-15118	,	-12255	,	49.81019	,	74
32,59	,	39185	,	-15126	,	-12250	,	47.14834	,	73
32,59	,	39200	,	-15127	,	-12249	,	41.334587	,	69
32,59	,	39217	,	-15128	,	-12249	,	33.297523	,	61
32,59	,	39248	,	-15127	,	-12248	,	24.192154	,	50
32,59	,	39264	,	-15116	,	-12240	,	15.203182	,	37
32,59	,	39281	,	-15129	,	-12250	,	7.3295097	,	24
32,59	,	39313	,	-15124	,	-12244	,	1.1326456	,	13
32,59	,	39329	,	-15124	,	-12251	,	-3.2527347	,	5
32,59	,	39345	,	-15137	,	-12251	,	-5.962347	,	1
32,59	,	39377	,	-15141	,	-12252	,	-7.4063554	,	0
32,59	,	39393	,	-15143	,	-12253	,	-8.1263275	,	0
32,59	,	39425	,	-15160	,	-12264	,	-8.584694	,	0
32,59	,	39441	,	-15157	,	-12264	,	-9.141834	,	0
33,0	,	39457	,	-15168	,	-12267	,	-9.994443	,	0
33,0	,	39489	,	-15187	,	-12271	,	-11.2260895	,	0
33,0	,	39504	,	-15190	,	-12278	,	-12.950904	,	0
33,0	,	39520	,	-15202	,	-12281	,	-15.192224	,	0
33,0	,	39552	,	-15209	,	-12286	,	-17.787832	,	0
33,0	,	39568	,	-15214	,	-12280	,	-20.475088	,	0
33,0	,	39600	,	-15234	,	-12283	,	-23.008167	,	0
33,0	,	39616	,	-15233	,	-12300	,	-25.264975	,	0
33,0	,	39633	,	-15246	,	-12290	,	-27.171457	,	0
33,0	,	39665	,	-15259	,	-12299	,	-28.665117	,	0
33,0	,	39680	,	-15273	,	-12306	,	-29.824615	,	0
33,0	,	39696	,	-15254	,	-12298	,	-30.692549	,	0
33,0	,	39728	,	-15216	,	-12285	,	-30.754322	,	0
33,0	,	39744	,	-15165	,	-12262	,	-28.73327	,	0
33,0	,	39760	,	-15129	,	-12250	,	-23.123661	,	2
33,0	,	39792	,	-15121	,	-12255	,	-13.19288	,	7
33,0	,	39809	,	-15109	,	-12244	,	0.34251022	,	16
33,0	,	39840	,	-15100	,	-12241	,	15.620946	,	29
33,0	,	39856	,	-15100	,	-12240	,	30.45538	,	44
33,0	,	39873	,	-15097	,	-12237	,	42.903614	,	58
33,0	,	39904	,	-15095	,	-12239	,	51.607372	,	70
33,0	,	39920	,	-15090	,	-12239	,	55.99279	,	78
33,0	,	39936	,	-15093	,	-12242	,	56.211445	,	82
33,0	,	39968	,	-15101	,	-12243	,	52.847466	,	80
33,0	,	39985	,	-15103	,	-12243	,	46.64742	,	75
33,0	,	40016	,	-15106	,	-12245	,	38.46888	,	66
33,0	,	40032	,	-15107	,	-12243	,	29.270761	,	53
33,0	,	40048	,	-15099	,	-12243	,	20.040384	,	38
33,0	,	40080	,	-15106	,	-12235	,	11.67738	,	24
33,0	,	40096	,	-15104	,	-12248	,	4.793235	,	12
33,0	,	40112	,	-15109	,	-12245	,	-0.38287926	,	4
33,0	,	40144	,	-15116	,	-12246	,	-3.9457374	,	0
33,0	,	40160	,	-15116	,	-12252	,	-6.209243	,	0
33,0	,	40192	,	-15123	,	-12246	,	-7.545126	,	0
33,0	,	40208	,	-15139	,	-12258	,	-8.354062	,	0
33,0	,	40224	,	-15145	,	-12258	,	-9.111803	,	0
33,0	,	40256	,	-15148	,	-12251	,	-10.183674	,	0
33,0	,	40272	,	-15164	,	-12265	,	-11.67752	,	0
33,0	,	40288	,	-15170	,	-12259	,	-13.577639	,	0
33,0	,	40320	,	-15179	,	-12276	,	-15.816961	,	0
33,0	,	40336	,	-15197	,	-12279	,	-18.285261	,	0
33,0	,	40352	,	-15208	,	-12280	,	-20.938765	,	0
33,0	,	40384	,	-15218	,	-12286	,	-23.76576	,	0
33,0	,	40400	,	-15224	,	-12290	,	-26.631779	,	0
33,0	,	40432	,	-15231	,	-12291	,	-29.257708	,	0
33,0	,	40448	,	-15238	,	-12298	,	-31.332317	,	0
33,1	,	40464	,	-15243	,	-12291	,	-32.634773	,	0
33,1	,	40496	,	-15254	,	-12297	,	-33.09411	,	0
33,1	,	40512	,	-15256	,	-12308	,	-32.77796	,	0
33,1	,	40528	,	-15244	,	-12291	,	-31.726059	,	0
33,1	,	40560	,	-15168	,	-12272	,	-29.435959	,	1
33,1	,	40576	,	-15132	,	-12256	,	-24.542318	,	3
33,1	,	40608	,	-15123	,	-12250	,	-15.769065	,	7
33,1	,	40624	,	-15110	,	-12246	,	-3.267602	,	15
33,1	,	40640	,	-15104	,	-12243	,	11.391586	,	27
33,1	,	40672	,	-15095	,	-12244	,	26.116468	,	41
33,1	,	40688	,	-15093	,	-12237	,	38.993065	,	55
33,1	,	40704	,	-15089	,	-12236	,	48.634506	,	67
33,1	,	40736	,	-15084	,	-12230	,	54.32162	,	76
33,1	,	40752	,	-15074	,	-12244	,	56.04698	,	80
33,1	,	40768	,	-15083	,	-12226	,	54.34505	,	79
33,1	,	40800	,	-15093	,	-12241	,	49.876186	,	75
33,1	,	40816	,	-15094	,	-12238	,	43.21776	,	67
33,1	,	40848	,	-15100	,	-12237	,	35.01053	,	55
33,1	,	40864	,	-15087	,	-12235	,	26.088434	,	41
33,1	,	40880	,	-15090	,	-12245	,	17.428867	,	27
33,1	,	40912	,	-15094	,	-12231	,	9.871101	,	15
33,1	,	40928	,	-15105	,	-12241	,	3.7921162	,	6
33,1	,	40944	,	-15103	,	-12249	,	-0.8624239	,	1
33,1	,	40976	,	-15101	,	-12240	,	-4.2549763	,	0
33,1	,	40992	,	-15107	,	-12261	,	-6.493912	,	0
33,1	,	41024	,	-15120	,	-12240	,	-7.8005834	,	0
33,1	,	41040	,	-15133	,	-12261	,	-8.64499	,	0
33,1	,	41056	,	-15143	,	-12263	,	-9.594246	,	0
33,1	,	41088	,	-15154	,	-12264	,	-11.059564	,	0
33,1	,	41104	,	-15168	,	-12270	,	-13.204437	,	0
33,1	,	41120	,	-15179	,	-12276	,	-16.01117	,	0
33,1	,	41152	,	-15192	,	-12277	,	-19.34105	,	0
33,1	,	41168	,	-15199	,	-12279	,	-22.951212	,	0
33,1	,	41184	,	-15205	,	-12284	,	-26.492432	,	0
33,1	,	41216	,	-15222	,	-12275	,	-29.603127	,	0
33,1	,	41232	,	-15227	,	-12297	,	-32.077736	,	0
33,1	,	41264	,	-15229	,	-12283	,	-33.811584	,	0
33,1	,	41280	,	-15244	,	-12299	,	-34.699856	,	0
33,1	,	41296	,	-15261	,	-12293	,	-34.82168	,	0
33,1	,	41328	,	-15269	,	-12295	,	-34.5188	,	0
33,1	,	41344	,	-15276	,	-12307	,	-34.115692	,	0
33,1	,	41359	,	-15280	,	-12309	,	-33.69769	,	0
33,1	,	41392	,	-15265	,	-12308	,	-33.065014	,	0
33,1	,	41408	,	-15222	,	-12292	,	-31.56084	,	0
33,1	,	41440	,	-15173	,	-12271	,	-27.94638	,	1
33,1	,	41456	,	-15148	,	-12258	,	-20.895136	,	4
33,2	,	41472	,	-15134	,	-12268	,	-9.957067	,	11
33,2	,	41504	,	-15133	,	-12248	,	3.9297342	,	21
33,2	,	41520	,	-15114	,	-12244	,	18.866693	,	34
33,2	,	41536	,	-15121	,	-12244	,	32.820667	,	48
33,2	,	41567	,	-15121	,	-12247	,	44.075516	,	61
33,2	,	41584	,	-15118	,	-12245	,	51.433468	,	72
33,2	,	41616	,	-15117	,	-12243	,	54.45022	,	79
33,2	,	41632	,	-15115	,	-12248	,	53.41815	,	81
33,2	,	41648	,	-15128	,	-12253	,	49.05651	,	78
33,2	,	41679	,	-15131	,	-12254	,	42.191147	,	71
33,2	,	41695	,	-15133	,	-12253	,	33.668156	,	61
33,2	,	41712	,	-15129	,	-12255	,	24.434546	,	48
33,2	,	41743	,	-15132	,	-12250	,	15.474533	,	34
33,2	,	41760	,	-15130	,	-12257	,	7.5975056	,	21
33,2	,	41776	,	-15133	,	-12252	,	1.301074	,	10
33,2	,	41807	,	-15139	,	-12254	,	-3.265688	,	3
33,2	,	41824	,	-15145	,	-12259	,	-6.2855186	,	0
33,2	,	41855	,	-15150	,	-12260	,	-8.146398	,	0
33,2	,	41871	,	-15159	,	-12263	,	-9.287645	,	0
33,2	,	41888	,	-15168	,	-12266	,	-10.130207	,	0
33,2	,	41920	,	-15170	,	-12272	,	-10.997816	,	0
33,2	,	41936	,	-15185	,	-12275	,	-12.062293	,	0
33,2	,	41951	,	-15190	,	-12282	,	-13.409178	,	0
33,2	,	41983	,	-15203	,	-12275	,	-15.071857	,	0
33,2	,	41999	,	-15217	,	-12287	,	-17.046478	,	0
33,2	,	42031	,	-15237	,	-12287	,	-19.386086	,	0
33,2	,	42048	,	-15244	,	-12304	,	-22.175346	,	0
33,2	,	42063	,	-15250	,	-12295	,	-25.319288	,	0
33,2	,	42095	,	-15252	,	-12304	,	-28.428057	,	0
33,2	,	42111	,	-15271	,	-12305	,	-31.035889	,	0
33,2	,	42127	,	-15280	,	-12315	,	-32.93463	,	0
33,2	,	42159	,	-15283	,	-12314	,	-34.15343	,	0
33,2	,	42175	,	-15291	,	-12314	,	-34.706253	,	0
33,2	,	42191	,	-15304	,	-12322	,	-34.59864	,	0
33,2	,	42224	,	-15318	,	-12313	,	-34.003887	,	0
33,2	,	42239	,	-15319	,	-12324	,	-33.203735	,	0
33,2	,	42271	,	-15243	,	-12295	,	-31.951643	,	0
33,2	,	42287	,	-15200	,	-12277	,	-28.830465	,	1
33,2	,	42303	,	-15171	,	-12264	,	-22.006073	,	4
33,2	,	42336	,	-15165	,	-12267	,	-10.814788	,	10
33,2	,	42351	,	-15159	,	-12269	,	3.666007	,	21
33,2	,	42367	,	-15156	,	-12264	,	19.24983	,	35
33,2	,	42400	,	-15155	,	-12270	,	33.586903	,	50
33,2	,	42415	,	-15160	,	-12267	,	44.788574	,	64
33,2	,	42447	,	-15159	,	-12274	,	51.675423	,	75
33,3	,	42464	,	-15162	,	-12264	,	53.871967	,	81
33,3	,	42479	,	-15177	,	-12269	,	51.677086	,	82
33,3	,	42511	,	-15176	,	-12278	,	45.795685	,	79
33,3	,	42528	,	-15184	,	-12269	,	37.230774	,	73
33,3	,	42543	,	-15178	,	-12272	,	27.213198	,	62
33,3	,	42575	,	-15178	,	-12268	,	17.033506	,	48
33,3	,	42591	,	-15186	,	-12273	,	7.7927036	,	33
33,3	,	42607	,	-15182	,	-12266	,	0.17935276	,	19
33,3	,	42639	,	-15182	,	-12271	,	-5.478451	,	8
33,3	,	42655	,	-15190	,	-12270	,	-9.122053	,	2
33,3	,	42687	,	-15189	,	-12273	,	-10.99579	,	0
33,3	,	42704	,	-15199	,	-12278	,	-11.552609	,	0
33,3	,	42719	,	-15202	,	-12275	,	-11.311579	,	0
33,3	,	42751	,	-15219	,	-12289	,	-10.812008	,	0
33,3	,	42767	,	-15236	,	-12284	,	-10.63003	,	0
33,3	,	42783	,	-15238	,	-12288	,	-11.266029	,	0
33,3	,	42815	,	-15247	,	-12286	,	-12.864271	,	0
33,3	,	42831	,	-15265	,	-12300	,	-15.239786	,	0
33,3	,	42863	,	-15267	,	-12306	,	-18.146519	,	0
33,3	,	42879	,	-15291	,	-12304	,	-21.354155	,	0
33,3	,	42895	,	-15290	,	-12304	,	-24.645329	,	0
33,3	,	42927	,	-15296	,	-12306	,	-27.734833	,	0
33,3	,	42943	,	-15301	,	-12316	,	-30.22254	,	0
33,3	,	42959	,	-15314	,	-12306	,	-31.810783	,	0
33,3	,	42991	,	-15326	,	-12316	,	-32.50479	,	0
33,3	,	43007	,	-15334	,	-12325	,	-32.546486	,	0
33,3	,	43039	,	-15344	,	-12322	,	-32.213017	,	0
33,3	,	43055	,	-15298	,	-12315	,	-31.45535	,	0
33,3	,	43071	,	-15239	,	-12285	,	-29.338657	,	0
33,3	,	43103	,	-15208	,	-12271	,	-24.201086	,	2
33,3	,	43119	,	-15181	,	-12272	,	-14.877182	,	7
33,3	,	43135	,	-15181	,	-12261	,	-1.6572552	,	16
33,3	,	43167	,	-15174	,	-12263	,	13.775023	,	29
33,3	,	43183	,	-15171	,	-12264	,	29.083298	,	44
33,3	,	43199	,	-15164	,	-12245	,	42.14598	,	59
33,3	,	43231	,	-15165	,	-12263	,	51.5434	,	72
33,3	,	43247	,	-15162	,	-12260	,	56.622807	,	81
33,3	,	43279	,	-15174	,	-12261	,	57.343506	,	86
33,3	,	43295	,	-15175	,	-12263	,	54.0771	,	84
33,3	,	43311	,	-15182	,	-12263	,	47.530003	,	79
33,3	,	43343	,	-15179	,	-12255	,	38.710495	,	70
33,3	,	43359	,	-15189	,	-12266	,	28.763584	,	57
33,3	,	43375	,	-15185	,	-12261	,	18.749428	,	42
33,3	,	43407	,	-15179	,	-12263	,	9.586153	,	27
33,3	,	43423	,	-15170	,	-12267	,	2.0939932	,	14
33,3	,	43455	,	-15186	,	-12258	,	-3.202467	,	5
33,4	,	43471	,	-15189	,	-12264	,	-6.3756647	,	0
33,4	,	43487	,	-15192	,	-12272	,	-7.9596524	,	0
33,4	,	43519	,	-15202	,	-12276	,	-8.569811	,	0
33,4	,	43535	,	-15220	,	-12278	,	-8.8234215	,	0
33,4	,	43551	,	-15220	,	-12268	,	-9.31177	,	0
33,4	,	43583	,	-15239	,	-12268	,	-10.4040985	,	0
33,4	,	43599	,	-15253	,	-12275	,	-12.261775	,	0
33,4	,	43615	,	-15267	,	-12285	,	-14.966164	,	0
33,4	,	43647	,	-15257	,	-12281	,	-18.356922	,	0
33,4	,	43663	,	-15277	,	-12298	,	-21.921127	,	0
33,4	,	43695	,	-15281	,	-12291	,	-25.123081	,	0
33,4	,	43711	,	-15296	,	-12308	,	-27.697922	,	0
33,4	,	43727	,	-15314	,	-12309	,	-29.656673	,	0
33,4	,	43759	,	-15322	,	-12311	,	-31.207592	,	0
33,4	,	43775	,	-15336	,	-12303	,	-32.56795	,	0
33,4	,	43790	,	-15328	,	-12314	,	-33.750248	,	0
33,4	,	43823	,	-15334	,	-12317	,	-34.485195	,	0
33,4	,	43839	,	-15354	,	-12318	,	-34.49497	,	0
33,4	,	43871	,	-15328	,	-12311	,	-33.711166	,	0
33,4	,	43887	,	-15274	,	-12293	,	-31.705544	,	0
33,4	,	43903	,	-15230	,	-12279	,	-27.238836	,	2
33,4	,	43935	,	-15194	,	-12258	,	-18.96953	,	6
33,4	,	43951	,	-15179	,	-12260	,	-6.5239534	,	14
33,4	,	43967	,	-15165	,	-12256	,	9.100388	,	26
33,4	,	43999	,	-15165	,	-12251	,	25.883423	,	41
33,4	,	44015	,	-15160	,	-12250	,	41.4741	,	57
33,4	,	44031	,	-15164	,	-12246	,	53.825733	,	72
33,4	,	44063	,	-15159	,	-12250	,	61.611977	,	84
33,4	,	44079	,	-15163	,	-12244	,	64.3851	,	91
33,4	,	44111	,	-15162	,	-12248	,	62.470623	,	91
33,4	,	44126	,	-15167	,	-12254	,	56.709343	,	87
33,4	,	44142	,	-15182	,	-12254	,	48.144127	,	79
33,4	,	44175	,	-15178	,	-12254	,	37.8083	,	67
33,4	,	44191	,	-15175	,	-12251	,	26.797396	,	52
33,4	,	44207	,	-15168	,	-12246	,	16.31202	,	36
33,4	,	44239	,	-15170	,	-12257	,	7.399456	,	21
33,4	,	44255	,	-15174	,	-12251	,	0.6483059	,	9
33,4	,	44286	,	-15183	,	-12254	,	-3.9179325	,	2
33,4	,	44303	,	-15187	,	-12254	,	-6.7040586	,	0
33,4	,	44319	,	-15185	,	-12255	,	-8.238444	,	0
33,4	,	44351	,	-15196	,	-12261	,	-8.960182	,	0
33,4	,	44367	,	-15207	,	-12262	,	-9.284712	,	0
33,4	,	44382	,	-15220	,	-12268	,	-9.689928	,	0
33,4	,	44414	,	-15225	,	-12275	,	-10.579591	,	0
33,4	,	44430	,	-15227	,	-12274	,	-12.069376	,	0
33,4	,	44446	,	-15262	,	-12282	,	-14.092802	,	0
33,5	,	44479	,	-15262	,	-12280	,	-16.697683	,	0
33,5	,	44495	,	-15270	,	-12288	,	-19.869247	,	0
33,5	,	44527	,	-15278	,	-12289	,	-23.26924	,	0
33,5	,	44543	,	-15293	,	-12296	,	-26.48279	,	0
33,5	,	44558	,	-15304	,	-12297	,	-29.289001	,	0
33,5	,	44590	,	-15303	,	-12300	,	-31.574596	,	0
33,5	,	44606	,	-15318	,	-12308	,	-33.189087	,	0
33,5	,	44623	,	-15328	,	-12306	,	-34.064377	,	0
33,5	,	44654	,	-15333	,	-12310	,	-34.30133	,	0
33,5	,	44671	,	-15336	,	-12316	,	-33.996098	,	0
33,5	,	44702	,	-15290	,	-12292	,	-32.9104	,	0
33,5	,	44719	,	-15233	,	-12275	,	-30.045057	,	1
33,5	,	44735	,	-15190	,	-12258	,	-23.81652	,	3
33,5	,	44767	,	-15181	,	-12249	,	-13.2142515	,	9
33,5	,	44782	,	-15166	,	-12244	,	1.2216511	,	19
33,5	,	44798	,	-15169	,	-12244	,	17.57447	,	33
33,5	,	44830	,	-15160	,	-12244	,	33.402176	,	49
33,5	,	44846	,	-15163	,	-12249	,	46.529236	,	64
33,5	,	44878	,	-15159	,	-12239	,	55.504272	,	77
33,5	,	44894	,	-15156	,	-12251	,	59.744656	,	85
33,5	,	44910	,	-15157	,	-12241	,	59.463882	,	88
33,5	,	44942	,	-15173	,	-12243	,	55.33873	,	86
33,5	,	44958	,	-15170	,	-12245	,	48.187737	,	80
33,5	,	44974	,	-15179	,	-12243	,	38.953316	,	70
33,5	,	45006	,	-15179	,	-12241	,	28.688238	,	56
33,5	,	45022	,	-15167	,	-12248	,	18.476215	,	40
33,5	,	45038	,	-15181	,	-12248	,	9.32165	,	25
33,5	,	45070	,	-15175	,	-12251	,	1.881218	,	12
33,5	,	45086	,	-15172	,	-12247	,	-3.577506	,	4
33,5	,	45118	,	-15186	,	-12242	,	-7.060788	,	0
33,5	,	45135	,	-15183	,	-12257	,	-8.889974	,	0
33,5	,	45150	,	-15185	,	-12247	,	-9.534606	,	0
33,5	,	45182	,	-15206	,	-12258	,	-9.466634	,	0
33,5	,	45198	,	-15218	,	-12264	,	-9.309663	,	0
33,5	,	45214	,	-15224	,	-12263	,	-9.706532	,	0
33,5	,	45246	,	-15233	,	-12274	,	-10.958499	,	0
33,5	,	45262	,	-15245	,	-12271	,	-13.014781	,	0
33,5	,	45294	,	-15256	,	-12275	,	-15.690418	,	0
33,5	,	45310	,	-15258	,	-12276	,	-18.728212	,	0
33,5	,	45326	,	-15270	,	-12287	,	-21.779621	,	0
33,5	,	45358	,	-15289	,	-12283	,	-24.572914	,	0
33,5	,	45374	,	-15298	,	-12296	,	-27.073408	,	0
33,5	,	45390	,	-15303	,	-12292	,	-29.313107	,	0
33,5	,	45422	,	-15322	,	-12297	,	-31.23618	,	0
33,5	,	45438	,	-15338	,	-12301	,	-32.862465	,	0
33,5	,	45454	,	-15332	,	-12304	,	-34.27314	,	0
33,6	,	45486	,	-15344	,	-12306	,	-35.344162	,	0
33,6	,	45502	,	-15352	,	-12309	,	-35.83784	,	0
33,6	,	45534	,	-15347	,	-12306	,	-35.617455	,	0
33,6	,	45550	,	-15306	,	-12289	,	-34.359016	,	0
33,6	,	45566	,	-15248	,	-12273	,	-31.076284	,	1
33,6	,	45598	,	-15211	,	-12254	,	-24.327925	,	4
33,6	,	45614	,	-15197	,	-12256	,	-13.284504	,	10
33,6	,	45630	,	-15184	,	-12244	,	1.4216843	,	21
33,6	,	45662	,	-15174	,	-12248	,	17.942066	,	35
33,6	,	45678	,	-15180	,	-12250	,	33.97836	,	51
33,6	,	45710	,	-15175	,	-12241	,	47.373936	,	67
33,6	,	45726	,	-15175	,	-12243	,	56.589268	,	80
33,6	,	45742	,	-15180	,	-12248	,	60.94309	,	89
33,6	,	45774	,	-15196	,	-12247	,	60.43056	,	92
33,6	,	45790	,	-15201	,	-12253	,	55.478302	,	89
33,6	,	45806	,	-15193	,	-12247	,	46.988335	,	83
33,6	,	45838	,	-15196	,	-12246	,	36.371098	,	72
33,6	,	45854	,	-15194	,	-12261	,	25.193075	,	58
33,6	,	45886	,	-15188	,	-12244	,	14.790478	,	42
33,6	,	45902	,	-15195	,	-12255	,	6.111019	,	26
33,6	,	45918	,	-15201	,	-12255	,	-0.42517376	,	13
33,6	,	45950	,	-15201	,	-12249	,	-4.9066963	,	4
33,6	,	45966	,	-15206	,	-12257	,	-7.6658907	,	0
33,6	,	45982	,	-15214	,	-12257	,	-9.121508	,	0
33,6	,	46014	,	-15220	,	-12262	,	-9.768339	,	0
33,6	,	46030	,	-15231	,	-12262	,	-10.107361	,	0
33,6	,	46062	,	-15238	,	-12268	,	-10.558964	,	0
33,6	,	46078	,	-15256	,	-12267	,	-11.4402685	,	0
33,6	,	46094	,	-15252	,	-12280	,	-12.91256	,	0
33,6	,	46126	,	-15266	,	-12265	,	-14.884426	,	0
33,6	,	46142	,	-15286	,	-12287	,	-17.172703	,	0
33,6	,	46158	,	-15300	,	-12291	,	-19.776043	,	0
33,6	,	46190	,	-15298	,	-12295	,	-22.709515	,	0
33,6	,	46206	,	-15312	,	-12294	,	-25.719208	,	0
33,6	,	46222	,	-15316	,	-12297	,	-28.41502	,	0
33,6	,	46254	,	-15327	,	-12301	,	-30.51078	,	0
33,6	,	46270	,	-15340	,	-12302	,	-31.90127	,	0
33,6	,	46302	,	-15343	,	-12306	,	-32.639664	,	0
33,6	,	46318	,	-15352	,	-12301	,	-32.811813	,	0
33,6	,	46334	,	-15346	,	-12318	,	-32.419617	,	0
33,6	,	46366	,	-15320	,	-12284	,	-31.221863	,	0
33,6	,	46382	,	-15222	,	-12260	,	-28.239769	,	1
33,6	,	46398	,	-15197	,	-12251	,	-21.676426	,	3
33,6	,	46430	,	-15198	,	-12247	,	-10.379194	,	9
33,6	,	46446	,	-15195	,	-12240	,	4.711668	,	20
33,7	,	46478	,	-15193	,	-12246	,	21.092472	,	35
33,7	,	46494	,	-15191	,	-12245	,	36.08142	,	51
33,7	,	46510	,	-15189	,	-12245	,	47.64546	,	65
33,7	,	46542	,	-15202	,	-12244	,	54.618237	,	76
33,7	,	46558	,	-15200	,	-12246	,	56.60094	,	82
33,7	,	46574	,	-15216	,	-12255	,	53.85337	,	82
33,7	,	46606	,	-15227	,	-12244	,	47.109886	,	80
33,7	,	46622	,	-15224	,	-12246	,	37.409817	,	74
33,7	,	46638	,	-15222	,	-12251	,	26.121855	,	63
33,7	,	46670	,	-15222	,	-12249	,	14.787737	,	48
33,7	,	46686	,	-15218	,	-12249	,	4.735777	,	32
33,7	,	46718	,	-15225	,	-12246	,	-3.1800442	,	18
33,7	,	46734	,	-15215	,	-12251	,	-8.614938	,	7
33,7	,	46750	,	-15219	,	-12254	,	-11.590776	,	1
33,7	,	46782	,	-15226	,	-12254	,	-12.429242	,	0
33,7	,	46798	,	-15237	,	-12260	,	-11.791473	,	0
33,7	,	46814	,	-15244	,	-12277	,	-10.530233	,	0
33,7	,	46846	,	-15250	,	-12258	,	-9.396046	,	1
33,7	,	46862	,	-15271	,	-12267	,	-8.918688	,	2
33,7	,	46893	,	-15284	,	-12274	,	-9.498833	,	2
33,7	,	46909	,	-15286	,	-12277	,	-11.325709	,	2
33,7	,	46925	,	-15306	,	-12278	,	-14.22815	,	2
33,7	,	46958	,	-15310	,	-12279	,	-17.835987	,	2
33,7	,	46974	,	-15313	,	-12290	,	-21.696856	,	2
33,7	,	46990	,	-15331	,	-12288	,	-25.312004	,	2
33,7	,	47021	,	-15338	,	-12290	,	-28.354374	,	2
33,7	,	47037	,	-15342	,	-12293	,	-30.69141	,	1
33,7	,	47054	,	-15352	,	-12302	,	-32.22823	,	0
33,7	,	47086	,	-15360	,	-12299	,	-32.9393	,	0
33,7	,	47102	,	-15356	,	-12301	,	-32.867138	,	0
33,7	,	47133	,	-15325	,	-12287	,	-31.831238	,	0
33,7	,	47149	,	-15266	,	-12264	,	-29.028805	,	1
33,7	,	47165	,	-15227	,	-12248	,	-23.111107	,	3
33,7	,	47197	,	-15194	,	-12241	,	-13.03498	,	8
33,7	,	47213	,	-15186	,	-12232	,	1.0383482	,	18
33,7	,	47229	,	-15176	,	-12235	,	17.582994	,	32
33,7	,	47261	,	-15186	,	-12233	,	34.21376	,	48
33,7	,	47277	,	-15180	,	-12236	,	48.44556	,	64
33,7	,	47309	,	-15188	,	-12238	,	58.390213	,	78
33,7	,	47325	,	-15187	,	-12227	,	63.104244	,	87
33,7	,	47341	,	-15188	,	-12236	,	62.584846	,	90
33,7	,	47373	,	-15195	,	-12233	,	57.5782	,	88
33,7	,	47389	,	-15204	,	-12244	,	49.222496	,	83
33,7	,	47405	,	-15200	,	-12246	,	38.77166	,	73
33,7	,	47437	,	-15203	,	-12234	,	27.530088	,	59
33,8	,	47453	,	-15199	,	-12234	,	16.735405	,	43
33,8	,	47485	,	-15201	,	-12234	,	7.368557	,	27
33,8	,	47501	,	-15197	,	-12246	,	0.049563408	,	13
33,8	,	47517	,	-15200	,	-12240	,	-4.98392	,	4
33,8	,	47549	,	-15203	,	-12234	,	-7.8555765	,	0
33,8	,	47565	,	-15214	,	-12233	,	-9.008865	,	0
33,8	,	47581	,	-15211	,	-12245	,	-9.069682	,	0
33,8	,	47613	,	-15225	,	-12243	,	-8.635785	,	0
33,8	,	47629	,	-15237	,	-12243	,	-8.245842	,	0
33,8	,	47645	,	-15232	,	-12246	,	-8.334707	,	0
33,8	,	47677	,	-15256	,	-12257	,	-9.084166	,	0
33,8	,	47693	,	-15258	,	-12253	,	-10.52713	,	0
33,8	,	47725	,	-15262	,	-12259	,	-12.594009	,	0
33,8	,	47741	,	-15283	,	-12263	,	-15.071944	,	0
33,8	,	47757	,	-15289	,	-12274	,	-17.80222	,	0
33,8	,	47789	,	-15295	,	-12273	,	-20.670681	,	0
33,8	,	47805	,	-15316	,	-12277	,	-23.495668	,	0
33,8	,	47821	,	-15315	,	-12282	,	-26.134895	,	0
33,8	,	47853	,	-15335	,	-12288	,	-28.493313	,	0
33,8	,	47869	,	-15332	,	-12286	,	-30.46349	,	0
33,8	,	47901	,	-15341	,	-12283	,	-31.894512	,	0
33,8	,	47917	,	-15346	,	-12288	,	-32.615788	,	0
33,8	,	47933	,	-15312	,	-12278	,	-32.36961	,	0
33,8	,	47965	,	-15254	,	-12257	,	-30.359287	,	0
33,8	,	47981	,	-15205	,	-12240	,	-25.127321	,	2
33,8	,	47997	,	-15178	,	-12229	,	-15.434621	,	7
33,8	,	48029	,	-15173	,	-12230	,	-1.3715687	,	16
33,8	,	48045	,	-15154	,	-12223	,	15.445775	,	30
33,8	,	48061	,	-15161	,	-12213	,	32.60463	,	46
33,8	,	48093	,	-15146	,	-12218	,	47.722202	,	63
33,8	,	48109	,	-15148	,	-12215	,	59.02731	,	78
33,8	,	48141	,	-15142	,	-12224	,	65.618004	,	89
33,8	,	48157	,	-15150	,	-12219	,	67.35121	,	95
33,8	,	48173	,	-15153	,	-12221	,	64.60637	,	94
33,8	,	48205	,	-15160	,	-12218	,	58.109833	,	89
33,8	,	48221	,	-15170	,	-12220	,	48.80928	,	80
33,8	,	48237	,	-15160	,	-12216	,	37.81201	,	66
33,8	,	48269	,	-15156	,	-12219	,	26.407713	,	50
33,8	,	48285	,	-15151	,	-12221	,	15.91666	,	33
33,8	,	48317	,	-15156	,	-12216	,	7.3153324	,	18
33,8	,	48333	,	-15165	,	-12214	,	0.9661379	,	7
33,8	,	48349	,	-15161	,	-12222	,	-3.3017707	,	1
33,8	,	48381	,	-15170	,	-12225	,	-5.877168	,	0
33,8	,	48397	,	-15173	,	-12225	,	-7.2162433	,	0
33,8	,	48413	,	-15173	,	-12224	,	-7.785229	,	0
33,8	,	48445	,	-15182	,	-12231	,	-7.9535117	,	0
33,9	,	48461	,	-15193	,	-12234	,	-8.045886	,	0
33,9	,	48493	,	-15206	,	-12239	,	-8.429724	,	0
33,9	,	48509	,	-15211	,	-12238	,	-9.415055	,	0
33,9	,	48525	,	-15226	,	-12242	,	-11.125637	,	0
33,9	,	48557	,	-15227	,	-12241	,	-13.48563	,	0
33,9	,	48573	,	-15255	,	-12249	,	-16.324917	,	0
33,9	,	48589	,	-15256	,	-12258	,	-19.521969	,	0
33,9	,	48621	,	-15261	,	-12258	,	-22.895418	,	0
33,9	,	48637	,	-15268	,	-12266	,	-26.05325	,	0
33,9	,	48653	,	-15282	,	-12262	,	-28.616142	,	0
33,9	,	48685	,	-15291	,	-12273	,	-30.458977	,	0
33,9	,	48701	,	-15291	,	-12271	,	-31.606392	,	0
33,9	,	48733	,	-15297	,	-12278	,	-32.03263	,	0
33,9	,	48749	,	-15281	,	-12263	,	-31.590797	,	0
33,9	,	48765	,	-15221	,	-12249	,	-29.73951	,	0
33,9	,	48797	,	-15179	,	-12226	,	-25.271275	,	1
33,9	,	48813	,	-15141	,	-12211	,	-16.89759	,	5
33,9	,	48829	,	-15135	,	-12202	,	-4.3351126	,	13
33,9	,	48861	,	-15113	,	-12209	,	11.274554	,	25
33,9	,	48877	,	-15113	,	-12200	,	27.868124	,	40
33,9	,	48908	,	-15112	,	-12201	,	43.174503	,	56
33,9	,	48925	,	-15113	,	-12205	,	55.208042	,	71
33,9	,	48941	,	-15104	,	-12204	,	62.69876	,	83
33,9	,	48973	,	-15109	,	-12192	,	65.29899	,	90
33,9	,	48989	,	-15123	,	-12201	,	63.317566	,	91
33,9	,	49005	,	-15116	,	-12204	,	57.409447	,	87
33,9	,	49037	,	-15124	,	-12197	,	48.569622	,	79
33,9	,	49052	,	-15115	,	-12202	,	38.08036	,	67
33,9	,	49069	,	-15114	,	-12203	,	27.295374	,	52
33,9	,	49101	,	-15113	,	-12202	,	17.402027	,	36
33,9	,	49117	,	-15106	,	-12200	,	9.23414	,	21
33,9	,	49149	,	-15113	,	-12206	,	3.2146425	,	9
33,9	,	49165	,	-15113	,	-12198	,	-0.6740074	,	2
33,9	,	49181	,	-15121	,	-12205	,	-2.828834	,	0
33,9	,	49213	,	-15128	,	-12202	,	-3.8479154	,	0
33,9	,	49229	,	-15132	,	-12206	,	-4.3488684	,	0
33,9	,	49245	,	-15143	,	-12217	,	-4.8244524	,	0
33,9	,	49277	,	-15156	,	-12206	,	-5.644827	,	0
33,9	,	49292	,	-15170	,	-12222	,	-7.119032	,	0
33,9	,	49325	,	-15185	,	-12230	,	-9.466251	,	0
33,9	,	49341	,	-15183	,	-12236	,	-12.680615	,	0
33,9	,	49357	,	-15206	,	-12237	,	-16.472172	,	0
33,9	,	49388	,	-15208	,	-12237	,	-20.466448	,	0
33,9	,	49405	,	-15216	,	-12249	,	-24.313564	,	0
33,9	,	49421	,	-15222	,	-12248	,	-27.635096	,	0
33,9	,	49453	,	-15244	,	-12250	,	-30.184319	,	0
33,10	,	49469	,	-15239	,	-12252	,	-31.958893	,	0
33,10	,	49500	,	-15248	,	-12272	,	-32.982178	,	0
33,10	,	49516	,	-15257	,	-12260	,	-33.21911	,	0
33,10	,	49532	,	-15268	,	-12255	,	-32.761665	,	0
33,10	,	49564	,	-15233	,	-12252	,	-31.655832	,	0
33,10	,	49580	,	-15188	,	-12230	,	-29.322805	,	1
33,10	,	49597	,	-15143	,	-12211	,	-24.489628	,	3
33,10	,	49629	,	-15122	,	-12211	,	-16.020464	,	7
33,10	,	49645	,	-15121	,	-12204	,	-3.9213352	,	15
33,10	,	49660	,	-15109	,	-12203	,	10.420152	,	27
33,10	,	49693	,	-15103	,	-12199	,	24.94233	,	41
33,10	,	49708	,	-15102	,	-12202	,	37.727116	,	55
33,10	,	49740	,	-15100	,	-12211	,	47.34563	,	67
33,10	,	49756	,	-15101	,	-12195	,	52.980488	,	76
33,10	,	49772	,	-15109	,	-12207	,	54.41813	,	80
33,10	,	49805	,	-15116	,	-12205	,	51.892754	,	79
33,10	,	49821	,	-15115	,	-12204	,	46.014137	,	75
33,10	,	49836	,	-15124	,	-12197	,	37.737488	,	67
33,10	,	49868	,	-15111	,	-12204	,	28.223663	,	55
33,10	,	49884	,	-15115	,	-12198	,	18.691263	,	41
33,10	,	49916	,	-15113	,	-12196	,	10.185936	,	27
33,10	,	49932	,	-15114	,	-12202	,	3.34548	,	15
33,10	,	49948	,	-15111	,	-12200	,	-1.5810947	,	6
33,10	,	49981	,	-15116	,	-12210	,	-4.625448	,	1
33,10	,	49997	,	-15117	,	-12201	,	-6.0592976	,	0
33,10	,	50012	,	-15125	,	-12205	,	-6.3411145	,	0
33,10	,	50044	,	-15134	,	-12212	,	-6.0496883	,	0
33,10	,	50060	,	-15148	,	-12216	,	-5.813839	,	0
33,10	,	50076	,	-15159	,	-12218	,	-6.1942897	,	0
33,10	,	50108	,	-15165	,	-12215	,	-7.5189133	,	0
33,10	,	50124	,	-15174	,	-12224	,	-9.783076	,	0
33,10	,	50156	,	-15173	,	-12220	,	-12.686167	,	0
33,10	,	50172	,	-15185	,	-12233	,	-15.766754	,	0
33,10	,	50188	,	-15202	,	-12232	,	-18.669603	,	0
33,10	,	50220	,	-15211	,	-12243	,	-21.32608	,	0
33,10	,	50236	,	-15215	,	-12237	,	-23.76669	,	0
33,10	,	50252	,	-15222	,	-12239	,	-25.890173	,	0
33,10	,	50284	,	-15226	,	-12251	,	-27.501465	,	0
33,10	,	50300	,	-15241	,	-12260	,	-28.483185	,	0
33,10	,	50332	,	-15227	,	-12254	,	-28.808008	,	0
33,10	,	50348	,	-15195	,	-12229	,	-28.181873	,	0
33,10	,	50364	,	-15143	,	-12216	,	-25.688622	,	0
33,10	,	50396	,	-15118	,	-12204	,	-20.099712	,	2
33,10	,	50412	,	-15103	,	-12198	,	-10.798837	,	7
33,10	,	50428	,	-15100	,	-12189	,	1.5669918	,	16
33,11	,	50460	,	-15084	,	-12196	,	15.35337	,	28
33,11	,	50476	,	-15080	,	-12188	,	28.690353	,	41
33,11	,	50492	,	-15088	,	-12193	,	39.941525	,	54
33,11	,	50524	,	-15080	,	-12195	,	47.845673	,	65
33,11	,	50540	,	-15093	,	-12194	,	51.70874	,	72
33,11	,	50572	,	-15094	,	-12200	,	51.438404	,	75
33,11	,	50588	,	-15110	,	-12196	,	47.38385	,	73
33,11	,	50604	,	-15108	,	-12204	,	40.24388	,	68
33,11	,	50636	,	-15102	,	-12191	,	31.087461	,	59
33,11	,	50652	,	-15104	,	-12198	,	21.2594	,	47
33,11	,	50668	,	-15104	,	-12204	,	12.008167	,	34
33,11	,	50700	,	-15104	,	-12199	,	4.1901255	,	21
33,11	,	50716	,	-15103	,	-12200	,	-1.745367	,	10
33,11	,	50748	,	-15104	,	-12202	,	-5.6824613	,	3
33,11	,	50764	,	-15118	,	-12206	,	-7.8303056	,	0
33,11	,	50780	,	-15130	,	-12206	,	-8.761449	,	0
33,11	,	50812	,	-15135	,	-12212	,	-9.232883	,	0
33,11	,	50828	,	-15137	,	-12209	,	-9.797833	,	0
33,11	,	50844	,	-15149	,	-12218	,	-10.663256	,	0
33,11	,	50876	,	-15153	,	-12220	,	-11.857937	,	0
33,11	,	50892	,	-15159	,	-12219	,	-13.328627	,	0
33,11	,	50924	,	-15180	,	-12223	,	-15.007465	,	0
33,11	,	50940	,	-15186	,	-12230	,	-16.937468	,	0
33,11	,	50956	,	-15186	,	-12235	,	-19.119978	,	0
33,11	,	50988	,	-15196	,	-12235	,	-21.31819	,	0
33,11	,	51004	,	-15211	,	-12238	,	-23.272942	,	0
33,11	,	51020	,	-15224	,	-12241	,	-24.960962	,	0
33,11	,	51052	,	-15226	,	-12236	,	-26.47907	,	0
33,11	,	51068	,	-15226	,	-12250	,	-27.764439	,	0
33,11	,	51084	,	-15220	,	-12241	,	-28.49924	,	0
33,11	,	51116	,	-15176	,	-12226	,	-28.065529	,	0
33,11	,	51132	,	-15131	,	-12209	,	-25.393764	,	0
33,11	,	51164	,	-15104	,	-12192	,	-19.281406	,	2
33,11	,	51180	,	-15091	,	-12195	,	-9.291868	,	8
33,11	,	51196	,	-15077	,	-12193	,	3.7639322	,	17
33,11	,	51228	,	-15073	,	-12182	,	18.180779	,	30
33,11	,	51244	,	-15072	,	-12180	,	31.956318	,	44
33,11	,	51260	,	-15062	,	-12172	,	43.315742	,	57
33,11	,	51292	,	-15060	,	-12176	,	51.13533	,	68
33,11	,	51308	,	-15060	,	-12176	,	55.01437	,	75
33,11	,	51339	,	-15066	,	-12185	,	55.0463	,	78
33,11	,	51355	,	-15070	,	-12179	,	51.628014	,	76
33,11	,	51372	,	-15077	,	-12186	,	45.386703	,	70
33,11	,	51404	,	-15079	,	-12189	,	37.137558	,	61
33,11	,	51420	,	-15065	,	-12183	,	27.895004	,	48
33,11	,	51436	,	-15071	,	-12193	,	18.806833	,	34
33,12	,	51468	,	-15071	,	-12176	,	10.813887	,	21
33,12	,	51484	,	-15077	,	-12185	,	4.382433	,	10
33,12	,	51500	,	-15063	,	-12181	,	-0.35365868	,	3
33,12	,	51532	,	-15077	,	-12191	,	-3.4053297	,	0
33,12	,	51548	,	-15086	,	-12189	,	-5.0466723	,	0
33,12	,	51580	,	-15101	,	-12190	,	-5.8980145	,	0
33,12	,	51596	,	-15095	,	-12196	,	-6.617362	,	0
33,12	,	51612	,	-15104	,	-12200	,	-7.5335093	,	0
33,12	,	51644	,	-15120	,	-12207	,	-8.721354	,	0
33,12	,	51660	,	-15121	,	-12210	,	-10.254673	,	0
33,12	,	51676	,	-15132	,	-12226	,	-12.152698	,	0
33,12	,	51708	,	-15143	,	-12204	,	-14.325186	,	0
33,12	,	51724	,	-15161	,	-12227	,	-16.726667	,	0
33,12	,	51755	,	-15167	,	-12223	,	-19.384424	,	0
33,12	,	51772	,	-15173	,	-12229	,	-22.216454	,	0
33,12	,	51788	,	-15182	,	-12226	,	-24.955135	,	0
33,12	,	51820	,	-15192	,	-12240	,	-27.320997	,	0
33,12	,	51836	,	-15199	,	-12234	,	-29.160236	,	0
33,12	,	51852	,	-15199	,	-12243	,	-30.37313	,	0
33,12	,	51884	,	-15189	,	-12234	,	-30.750458	,	0
33,12	,	51900	,	-15155	,	-12213	,	-29.800179	,	0
33,12	,	51916	,	-15097	,	-12207	,	-26.578608	,	0
33,12	,	51947	,	-15068	,	-12179	,	-19.90213	,	3
33,12	,	51963	,	-15050	,	-12182	,	-9.205237	,	9
33,12	,	51996	,	-15040	,	-12179	,	4.7853355	,	19
33,12	,	52012	,	-15030	,	-12180	,	20.294094	,	32
33,12	,	52028	,	-15030	,	-12174	,	35.18736	,	47
33,12	,	52060	,	-15026	,	-12175	,	47.5383	,	61
33,12	,	52075	,	-15013	,	-12172	,	56.061363	,	73
33,12	,	52091	,	-15023	,	-12167	,	60.290443	,	81
33,12	,	52124	,	-15024	,	-12171	,	60.324326	,	85
33,12	,	52140	,	-15039	,	-12169	,	56.534576	,	82
33,12	,	52172	,	-15034	,	-12181	,	49.551216	,	76
33,12	,	52187	,	-15030	,	-12168	,	40.371838	,	66
33,12	,	52204	,	-15028	,	-12168	,	30.293457	,	53
33,12	,	52236	,	-15027	,	-12169	,	20.56875	,	38
33,12	,	52251	,	-15027	,	-12169	,	12.104546	,	24
33,12	,	52267	,	-15033	,	-12177	,	5.3674107	,	12
33,12	,	52299	,	-15025	,	-12180	,	0.45893288	,	4
33,12	,	52315	,	-15046	,	-12182	,	-2.7838163	,	0
33,12	,	52347	,	-15050	,	-12183	,	-4.8239765	,	0
33,12	,	52363	,	-15056	,	-12187	,	-6.279516	,	0
33,12	,	52379	,	-15061	,	-12189	,	-7.5954676	,	0
33,12	,	52412	,	-15066	,	-12196	,	-8.960086	,	0
33,12	,	52428	,	-15081	,	-12195	,	-10.439408	,	0
33,12	,	52444	,	-15083	,	-12200	,	-12.087375	,	0
33,13	,	52475	,	-15111	,	-12212	,	-13.99423	,	0
33,13	,	52492	,	-15117	,	-12213	,	-16.326326	,	0
33,13	,	52507	,	-15129	,	-12221	,	-19.191616	,	0
33,13	,	52539	,	-15142	,	-12224	,	-22.47459	,	0
33,13	,	52555	,	-15141	,	-12228	,	-25.872837	,	0
33,13	,	52587	,	-15149	,	-12228	,	-28.947136	,	0
33,13	,	52603	,	-15158	,	-12236	,	-31.271353	,	0
33,13	,	52619	,	-15165	,	-12238	,	-32.64467	,	0
33,13	,	52651	,	-15175	,	-12253	,	-33.101807	,	0
33,13	,	52667	,	-15181	,	-12238	,	-32.811443	,	0
33,13	,	52683	,	-15180	,	-12244	,	-31.940811	,	0
33,13	,	52715	,	-15102	,	-12217	,	-30.159771	,	0
33,13	,	52731	,	-15076	,	-12206	,	-26.200954	,	1
33,13	,	52763	,	-15054	,	-12198	,	-18.702625	,	4
33,13	,	52779	,	-15046	,	-12194	,	-7.5328407	,	11
33,13	,	52795	,	-15026	,	-12197	,	6.127138	,	22
33,13	,	52827	,	-15031	,	-12189	,	20.483812	,	35
33,13	,	52843	,	-15028	,	-12189	,	33.62029	,	49
33,13	,	52859	,	-15017	,	-12179	,	43.92598	,	62
33,13	,	52891	,	-15027	,	-12181	,	50.47294	,	72
33,13	,	52907	,	-15014	,	-12176	,	53.01684	,	78
33,13	,	52923	,	-15015	,	-12188	,	51.90096	,	79
33,13	,	52955	,	-15034	,	-12185	,	47.814938	,	76
33,13	,	52971	,	-15028	,	-12187	,	41.429634	,	69
33,13	,	53003	,	-15031	,	-12190	,	33.467987	,	58
33,13	,	53019	,	-15034	,	-12189	,	24.820942	,	45
33,13	,	53035	,	-15038	,	-12180	,	16.319925	,	31
33,13	,	53067	,	-15030	,	-12189	,	8.622621	,	18
33,13	,	53083	,	-15033	,	-12187	,	2.2607899	,	8
33,13	,	53099	,	-15038	,	-12189	,	-2.4584465	,	2
33,13	,	53131	,	-15035	,	-12200	,	-5.5456276	,	0
33,13	,	53147	,	-15044	,	-12195	,	-7.2352724	,	0
33,13	,	53179	,	-15052	,	-12196	,	-7.925236	,	0
33,13	,	53195	,	-15075	,	-12209	,	-8.213657	,	0
33,13	,	53211	,	-15075	,	-12208	,	-8.775644	,	0
33,13	,	53243	,	-15091	,	-12217	,	-10.052598	,	0
33,13	,	53259	,	-15088	,	-12222	,	-12.088365	,	0
33,13	,	53275	,	-15107	,	-12231	,	-14.646578	,	0
33,13	,	53307	,	-15124	,	-12227	,	-17.501991	,	0
33,13	,	53323	,	-15126	,	-12237	,	-20.562664	,	0
33,13	,	53355	,	-15132	,	-12234	,	-23.637344	,	0
33,13	,	53371	,	-15154	,	-12239	,	-26.432003	,	0
33,13	,	53387	,	-15169	,	-12257	,	-28.87691	,	0
33,13	,	53419	,	-15170	,	-12252	,	-31.08063	,	0
33,13	,	53435	,	-15195	,	-12268	,	-33.06903	,	0
33,13	,	53451	,	-15204	,	-12274	,	-34.860264	,	0
33,14	,	53483	,	-15220	,	-12286	,	-36.53489	,	0
33,14	,	53499	,	-15223	,	-12289	,	-38.083416	,	0
33,14	,	53515	,	-15214	,	-12281	,	-39.245174	,	0
33,14	,	53547	,	-15182	,	-12258	,	-39.34105	,	0
33,14	,	53563	,	-15134	,	-12238	,	-37.205338	,	0
33,14	,	53595	,	-15108	,	-12234	,	-31.54473	,	2
33,14	,	53611	,	-15083	,	-12234	,	-21.71115	,	7
33,14	,	53627	,	-15080	,	-12233	,	-8.254349	,	16
33,14	,	53659	,	-15078	,	-12225	,	7.1463556	,	29
33,14	,	53675	,	-15078	,	-12224	,	22.24442	,	44
33,14	,	53691	,	-15077	,	-12223	,	34.96239	,	59
33,14	,	53723	,	-15071	,	-12228	,	43.91981	,	71
33,14	,	53739	,	-15084	,	-12231	,	48.544273	,	79
33,14	,	53771	,	-15082	,	-12232	,	48.867493	,	83
33,14	,	53787	,	-15097	,	-12232	,	45.34253	,	81
33,14	,	53803	,	-15099	,	-12239	,	38.73664	,	76
33,14	,	53835	,	-15094	,	-12234	,	30.077435	,	67
33,14	,	53851	,	-15098	,	-12241	,	20.606604	,	54
33,14	,	53867	,	-15103	,	-12245	,	11.483181	,	39
33,14	,	53899	,	-15098	,	-12231	,	3.5155287	,	24
33,14	,	53915	,	-15102	,	-12239	,	-2.7948961	,	12
33,14	,	53931	,	-15113	,	-12243	,	-7.2677965	,	4
33,14	,	53963	,	-15120	,	-12249	,	-10.141789	,	0
33,14	,	53979	,	-15132	,	-12253	,	-11.936633	,	0
33,14	,	54011	,	-15133	,	-12259	,	-13.169888	,	0
33,14	,	54027	,	-15134	,	-12254	,	-14.13346	,	0
33,14	,	54043	,	-15153	,	-12260	,	-14.933834	,	0
33,14	,	54075	,	-15161	,	-12267	,	-15.743569	,	0
33,14	,	54091	,	-15164	,	-12270	,	-16.768015	,	0
33,14	,	54107	,	-15178	,	-12289	,	-18.04552	,	0
33,14	,	54138	,	-15200	,	-12275	,	-19.586098	,	0
33,14	,	54155	,	-15204	,	-12284	,	-21.507286	,	0
33,14	,	54187	,	-15216	,	-12295	,	-23.82294	,	0
33,14	,	54203	,	-15222	,	-12299	,	-26.323566	,	0
33,14	,	54219	,	-15240	,	-12295	,	-28.749306	,	0
33,14	,	54251	,	-15245	,	-12296	,	-30.932987	,	0
33,14	,	54267	,	-15251	,	-12302	,	-32.732857	,	0
33,14	,	54283	,	-15269	,	-12305	,	-34.012398	,	0
33,14	,	54315	,	-15272	,	-12306	,	-34.761826	,	0
33,14	,	54331	,	-15264	,	-12305	,	-34.957104	,	0
33,14	,	54347	,	-15223	,	-12298	,	-34.144405	,	0
33,14	,	54378	,	-15175	,	-12275	,	-31.225828	,	0
33,14	,	54394	,	-15130	,	-12271	,	-24.808207	,	2
33,14	,	54427	,	-15128	,	-12255	,	-14.145324	,	8
33,14	,	54443	,	-15117	,	-12259	,	0.038388252	,	18
33,15	,	54459	,	-15121	,	-12262	,	15.729841	,	32
33,15	,	54490	,	-15126	,	-12261	,	30.478134	,	47
33,15	,	54506	,	-15119	,	-12252	,	42.163235	,	61
33,15	,	54522	,	-15122	,	-12256	,	49.52748	,	72
33,15	,	54555	,	-15123	,	-12255	,	52.26069	,	79
33,15	,	54571	,	-15130	,	-12261	,	50.714447	,	81
33,15	,	54603	,	-15143	,	-12270	,	45.59182	,	79
33,15	,	54619	,	-15148	,	-12254	,	37.736877	,	73
33,15	,	54635	,	-15140	,	-12271	,	28.169048	,	63
33,15	,	54667	,	-15148	,	-12263	,	18.113571	,	49
33,15	,	54683	,	-15146	,	-12266	,	8.709709	,	34
33,15	,	54698	,	-15150	,	-12272	,	0.74550533	,	20
33,15	,	54730	,	-15142	,	-12277	,	-5.3285856	,	9
33,15	,	54746	,	-15152	,	-12274	,	-9.349598	,	2
33,15	,	54762	,	-15154	,	-12272	,	-11.482281	,	0
33,15	,	54795	,	-15172	,	-12276	,	-12.225323	,	0
33,15	,	54811	,	-15177	,	-12278	,	-12.287335	,	0
33,15	,	54843	,	-15184	,	-12281	,	-12.315927	,	0
33,15	,	54858	,	-15187	,	-12282	,	-12.653107	,	0
33,15	,	54875	,	-15203	,	-12290	,	-13.386122	,	0
33,15	,	54906	,	-15217	,	-12298	,	-14.585544	,	0
33,15	,	54923	,	-15235	,	-12306	,	-16.402796	,	0
33,15	,	54939	,	-15250	,	-12308	,	-18.976698	,	0
33,15	,	54970	,	-15256	,	-12313	,	-22.276308	,	0
33,15	,	54986	,	-15263	,	-12312	,	-25.983374	,	0
33,15	,	55018	,	-15278	,	-12317	,	-29.606167	,	0
33,15	,	55034	,	-15286	,	-12319	,	-32.753433	,	0
33,15	,	55050	,	-15289	,	-12327	,	-35.179035	,	0
33,15	,	55082	,	-15295	,	-12332	,	-36.66748	,	0
33,15	,	55099	,	-15307	,	-12324	,	-37.101467	,	0
33,15	,	55115	,	-15322	,	-12331	,	-36.62339	,	0
33,15	,	55146	,	-15333	,	-12342	,	-35.615852	,	0
33,15	,	55162	,	-15309	,	-12332	,	-34.33352	,	1
33,15	,	55194	,	-15259	,	-12303	,	-32.296497	,	2
33,15	,	55210	,	-15203	,	-12290	,	-28.09546	,	4
33,15	,	55226	,	-15185	,	-12280	,	-20.198715	,	8
33,15	,	55258	,	-15166	,	-12277	,	-8.18621	,	15
33,15	,	55275	,	-15159	,	-12271	,	6.8509293	,	27
33,15	,	55290	,	-15163	,	-12270	,	22.836176	,	42
33,15	,	55322	,	-15159	,	-12271	,	37.4225	,	57
33,15	,	55338	,	-15154	,	-12276	,	48.6884	,	71
33,15	,	55354	,	-15141	,	-12266	,	55.651062	,	81
33,15	,	55386	,	-15153	,	-12275	,	58.236206	,	86
33,15	,	55402	,	-15153	,	-12272	,	56.837242	,	86
33,15	,	55434	,	-15167	,	-12278	,	52.013496	,	82
33,15	,	55450	,	-15176	,	-12277	,	44.42605	,	75
33,16	,	55466	,	-15162	,	-12271	,	34.928223	,	63
33,16	,	55498	,	-15162	,	-12278	,	24.714802	,	48
33,16	,	55514	,	-15170	,	-12275	,	15.0382595	,	33
33,16	,	55530	,	-15173	,	-12264	,	6.708996	,	19
33,16	,	55562	,	-15169	,	-12279	,	0.07555485	,	8
33,16	,	55578	,	-15169	,	-12285	,	-4.714457	,	2
33,16	,	55610	,	-15177	,	-12272	,	-7.6851807	,	0
33,16	,	55626	,	-15195	,	-12277	,	-9.21097	,	0
33,16	,	55642	,	-15196	,	-12280	,	-9.974333	,	0
33,16	,	55674	,	-15202	,	-12284	,	-10.575167	,	0
33,16	,	55690	,	-15212	,	-12294	,	-11.31106	,	0
33,16	,	55706	,	-15227	,	-12296	,	-12.350174	,	0
33,16	,	55738	,	-15228	,	-12299	,	-13.824631	,	0
33,16	,	55754	,	-15255	,	-12301	,	-15.777026	,	0
33,16	,	55770	,	-15254	,	-12305	,	-18.205091	,	0
33,16	,	55802	,	-15273	,	-12317	,	-21.034685	,	0
33,16	,	55818	,	-15274	,	-12325	,	-24.051502	,	0
33,16	,	55850	,	-15290	,	-12312	,	-26.963707	,	0
33,16	,	55866	,	-15309	,	-12319	,	-29.576824	,	0
33,16	,	55882	,	-15312	,	-12325	,	-31.877577	,	0
33,16	,	55914	,	-15329	,	-12334	,	-33.8672	,	0
33,16	,	55930	,	-15318	,	-12333	,	-35.402332	,	0
33,16	,	55946	,	-15331	,	-12337	,	-36.1962	,	0
33,16	,	55978	,	-15351	,	-12333	,	-36.09462	,	0
33,16	,	55994	,	-15347	,	-12343	,	-35.294205	,	0
33,16	,	56026	,	-15351	,	-12347	,	-34.024483	,	0
33,16	,	56042	,	-15326	,	-12335	,	-32.181953	,	1
33,16	,	56058	,	-15270	,	-12309	,	-29.09789	,	2
33,16	,	56090	,	-15232	,	-12287	,	-23.52184	,	5
33,16	,	56106	,	-15186	,	-12286	,	-14.269059	,	10
33,16	,	56122	,	-15182	,	-12283	,	-1.1068916	,	19
33,16	,	56154	,	-15182	,	-12275	,	14.763981	,	32
33,16	,	56170	,	-15172	,	-12280	,	31.047077	,	47
33,16	,	56186	,	-15177	,	-12278	,	45.33841	,	63
33,16	,	56218	,	-15178	,	-12279	,	55.812138	,	77
33,16	,	56234	,	-15183	,	-12268	,	61.411644	,	86
33,16	,	56266	,	-15182	,	-12272	,	61.920876	,	90
33,16	,	56282	,	-15190	,	-12274	,	57.87377	,	87
33,16	,	56298	,	-15195	,	-12282	,	50.270714	,	82
33,16	,	56330	,	-15203	,	-12277	,	40.285587	,	73
33,16	,	56346	,	-15196	,	-12286	,	29.14341	,	60
33,16	,	56362	,	-15201	,	-12275	,	18.082853	,	45
33,16	,	56394	,	-15202	,	-12278	,	8.16568	,	29
33,16	,	56410	,	-15203	,	-12272	,	0.074632645	,	15
33,16	,	56442	,	-15202	,	-12282	,	-5.873169	,	5
33,16	,	56458	,	-15203	,	-12282	,	-9.641713	,	0
33,17	,	56474	,	-15216	,	-12278	,	-11.487835	,	0
33,17	,	56506	,	-15217	,	-12292	,	-11.955676	,	0
33,17	,	56522	,	-15220	,	-12284	,	-11.654549	,	0
33,17	,	56538	,	-15237	,	-12291	,	-11.087402	,	0
33,17	,	56570	,	-15245	,	-12292	,	-10.735558	,	0
33,17	,	56586	,	-15263	,	-12306	,	-11.056688	,	0
33,17	,	56618	,	-15277	,	-12300	,	-12.37055	,	0
33,17	,	56634	,	-15283	,	-12309	,	-14.764769	,	0
33,17	,	56650	,	-15301	,	-12312	,	-18.052519	,	0
33,17	,	56682	,	-15316	,	-12316	,	-21.92726	,	0
33,17	,	56698	,	-15307	,	-12316	,	-26.005821	,	0
33,17	,	56714	,	-15322	,	-12311	,	-29.712654	,	0
33,17	,	56746	,	-15326	,	-12321	,	-32.50405	,	0
33,17	,	56762	,	-15331	,	-12324	,	-34.12148	,	0
33,17	,	56778	,	-15349	,	-12345	,	-34.575558	,	0
33,17	,	56810	,	-15357	,	-12325	,	-34.14444	,	0
33,17	,	56826	,	-15364	,	-12328	,	-33.238983	,	0
33,17	,	56858	,	-15369	,	-12345	,	-32.14787	,	0
33,17	,	56874	,	-15382	,	-12350	,	-31.009808	,	1
33,17	,	56890	,	-15370	,	-12331	,	-29.845364	,	2
33,17	,	56922	,	-15318	,	-12312	,	-28.205975	,	3
33,17	,	56938	,	-15259	,	-12298	,	-24.764957	,	4
33,17	,	56954	,	-15225	,	-12283	,	-17.80634	,	7
33,17	,	56986	,	-15215	,	-12288	,	-6.513233	,	13
33,17	,	57001	,	-15202	,	-12280	,	8.278298	,	24
33,17	,	57033	,	-15205	,	-12276	,	24.47843	,	38
33,17	,	57050	,	-15199	,	-12272	,	39.62806	,	54
33,17	,	57066	,	-15203	,	-12270	,	51.6306	,	68
33,17	,	57097	,	-15209	,	-12270	,	59.11834	,	79
33,17	,	57113	,	-15213	,	-12279	,	61.512207	,	85
33,17	,	57129	,	-15222	,	-12277	,	58.97628	,	86
33,17	,	57162	,	-15228	,	-12280	,	52.266495	,	83
33,17	,	57178	,	-15236	,	-12278	,	42.505264	,	77
33,17	,	57194	,	-15223	,	-12281	,	31.058214	,	66
33,17	,	57226	,	-15227	,	-12278	,	19.44164	,	52
33,17	,	57241	,	-15218	,	-12278	,	9.047504	,	36
33,17	,	57273	,	-15216	,	-12281	,	0.86495304	,	21
33,17	,	57289	,	-15225	,	-12273	,	-4.668885	,	9
33,17	,	57305	,	-15235	,	-12279	,	-7.7688146	,	2
33,17	,	57337	,	-15230	,	-12279	,	-9.0895195	,	0
33,17	,	57354	,	-15237	,	-12279	,	-9.284822	,	0
33,17	,	57370	,	-15250	,	-12276	,	-8.899782	,	0
33,17	,	57402	,	-15258	,	-12286	,	-8.49456	,	0
33,17	,	57417	,	-15263	,	-12288	,	-8.541315	,	0
33,17	,	57449	,	-15279	,	-12293	,	-9.288237	,	0
33,18	,	57465	,	-15278	,	-12291	,	-10.787297	,	0
33,18	,	57481	,	-15288	,	-12294	,	-12.884738	,	0
33,18	,	57514	,	-15298	,	-12305	,	-15.292822	,	0
33,18	,	57529	,	-15307	,	-12306	,	-17.771915	,	0
33,18	,	57545	,	-15309	,	-12305	,	-20.136097	,	0
33,18	,	57577	,	-15339	,	-12309	,	-22.282467	,	0
33,18	,	57593	,	-15340	,	-12313	,	-24.320326	,	0
33,18	,	57625	,	-15336	,	-12313	,	-26.304272	,	0
33,18	,	57641	,	-15348	,	-12326	,	-27.956898	,	0
33,18	,	57658	,	-15361	,	-12324	,	-29.006699	,	0
33,18	,	57689	,	-15375	,	-12323	,	-29.523663	,	0
33,18	,	57705	,	-15375	,	-12320	,	-29.740746	,	0
33,18	,	57722	,	-15356	,	-12323	,	-29.631025	,	0
33,18	,	57753	,	-15304	,	-12308	,	-28.504555	,	0
33,18	,	57770	,	-15251	,	-12288	,	-24.932749	,	1
33,18	,	57785	,	-15219	,	-12270	,	-17.406288	,	4
33,18	,	57817	,	-15209	,	-12266	,	-5.457986	,	11
33,18	,	57833	,	-15213	,	-12265	,	9.727886	,	22
33,18	,	57865	,	-15219	,	-12266	,	25.701658	,	37
33,18	,	57881	,	-15214	,	-12262	,	39.77516	,	52
33,18	,	57897	,	-15208	,	-12267	,	50.014763	,	66
33,18	,	57929	,	-15209	,	-12264	,	55.60601	,	76
33,18	,	57945	,	-15219	,	-12272	,	56.563255	,	81
33,18	,	57961	,	-15233	,	-12272	,	53.290985	,	80
33,18	,	57993	,	-15243	,	-12274	,	46.397533	,	77
33,18	,	58009	,	-15238	,	-12278	,	36.791367	,	70
33,18	,	58041	,	-15239	,	-12267	,	25.770485	,	59
33,18	,	58057	,	-15235	,	-12272	,	14.802376	,	44
33,18	,	58073	,	-15232	,	-12270	,	5.1583405	,	29
33,18	,	58105	,	-15230	,	-12262	,	-2.3095922	,	15
33,18	,	58121	,	-15238	,	-12276	,	-7.277469	,	5
33,18	,	58137	,	-15239	,	-12274	,	-9.941013	,	0
33,18	,	58169	,	-15250	,	-12275	,	-10.849208	,	0
33,18	,	58185	,	-15249	,	-12273	,	-10.684046	,	0
33,18	,	58201	,	-15253	,	-12286	,	-10.0360985	,	0
33,18	,	58234	,	-15274	,	-12283	,	-9.370752	,	0
33,18	,	58249	,	-15280	,	-12293	,	-9.167665	,	0
33,18	,	58281	,	-15294	,	-12279	,	-9.828775	,	0
33,18	,	58297	,	-15313	,	-12295	,	-11.548264	,	0
33,18	,	58313	,	-15315	,	-12303	,	-14.322602	,	0
33,18	,	58345	,	-15319	,	-12304	,	-17.835632	,	0
33,18	,	58361	,	-15347	,	-12308	,	-21.583088	,	0
33,18	,	58377	,	-15340	,	-12308	,	-25.209873	,	0
33,18	,	58409	,	-15349	,	-12306	,	-28.414423	,	0
33,18	,	58425	,	-15362	,	-12311	,	-30.858128	,	0
33,18	,	58457	,	-15363	,	-12313	,	-32.37806	,	0
33,19	,	58473	,	-15374	,	-12316	,	-32.987732	,	0
33,19	,	58489	,	-15390	,	-12333	,	-32.83953	,	0
33,19	,	58521	,	-15385	,	-12307	,	-32.203423	,	0
33,19	,	58537	,	-15285	,	-12281	,	-30.718716	,	0
33,19	,	58553	,	-15245	,	-12271	,	-26.666737	,	1
33,19	,	58585	,	-15231	,	-12264	,	-18.157532	,	5
33,19	,	58601	,	-15226	,	-12264	,	-5.0531816	,	13
33,19	,	58633	,	-15210	,	-12258	,	10.918091	,	26
33,19	,	58649	,	-15207	,	-12258	,	27.33143	,	41
33,19	,	58665	,	-15209	,	-12257	,	41.903408	,	57
33,19	,	58697	,	-15204	,	-12247	,	52.861076	,	71
33,19	,	58713	,	-15205	,	-12253	,	59.21267	,	81
33,19	,	58729	,	-15206	,	-12253	,	60.8052	,	87
33,19	,	58761	,	-15214	,	-12244	,	58.09188	,	87
33,19	,	58777	,	-15226	,	-12259	,	51.82489	,	83
33,19	,	58793	,	-15224	,	-12258	,	42.906082	,	75
33,19	,	58825	,	-15224	,	-12257	,	32.445557	,	62
33,19	,	58841	,	-15218	,	-12255	,	21.724094	,	47
33,19	,	58872	,	-15227	,	-12252	,	11.895924	,	31
33,19	,	58889	,	-15228	,	-12254	,	3.6903715	,	17
33,19	,	58905	,	-15215	,	-12262	,	-2.5405035	,	7
33,19	,	58937	,	-15228	,	-12258	,	-6.646794	,	1
33,19	,	58953	,	-15230	,	-12260	,	-8.789808	,	0
33,19	,	58969	,	-15234	,	-12269	,	-9.464836	,	0
33,19	,	59000	,	-15245	,	-12256	,	-9.281702	,	0
33,19	,	59017	,	-15261	,	-12280	,	-8.892884	,	0
33,19	,	59049	,	-15269	,	-12278	,	-8.937078	,	0
33,19	,	59065	,	-15276	,	-12276	,	-9.815079	,	0
33,19	,	59081	,	-15280	,	-12285	,	-11.54546	,	0
33,19	,	59113	,	-15295	,	-12288	,	-13.884466	,	0
33,19	,	59129	,	-15302	,	-12290	,	-16.562191	,	0
33,19	,	59145	,	-15314	,	-12288	,	-19.370445	,	0
33,19	,	59177	,	-15330	,	-12290	,	-22.167803	,	0
33,19	,	59192	,	-15326	,	-12292	,	-24.840296	,	0
33,19	,	59208	,	-15329	,	-12307	,	-27.121998	,	0
33,19	,	59241	,	-15351	,	-12295	,	-28.701298	,	0
33,19	,	59257	,	-15369	,	-12303	,	-29.641521	,	0
33,19	,	59289	,	-15375	,	-12310	,	-30.342155	,	0
33,19	,	59305	,	-15362	,	-12309	,	-30.978031	,	0
33,19	,	59321	,	-15333	,	-12293	,	-31.069532	,	0
33,19	,	59353	,	-15281	,	-12266	,	-29.445774	,	0
33,19	,	59369	,	-15232	,	-12257	,	-24.564224	,	1
33,19	,	59384	,	-15208	,	-12249	,	-15.272965	,	5
33,19	,	59417	,	-15204	,	-12242	,	-1.7266531	,	14
33,19	,	59433	,	-15192	,	-12240	,	14.421168	,	27
33,20	,	59465	,	-15187	,	-12248	,	30.784033	,	43
33,20	,	59481	,	-15187	,	-12235	,	45.105923	,	59
33,20	,	59496	,	-15183	,	-12236	,	55.700584	,	73
33,20	,	59528	,	-15180	,	-12234	,	61.675	,	83
33,20	,	59544	,	-15177	,	-12226	,	62.977596	,	88
33,20	,	59560	,	-15180	,	-12234	,	60.1902	,	88
33,20	,	59592	,	-15180	,	-12234	,	54.218216	,	84
33,20	,	59609	,	-15192	,	-12235	,	46.03804	,	75
33,20	,	59625	,	-15192	,	-12232	,	36.553284	,	62
33,20	,	59656	,	-15186	,	-12233	,	26.644518	,	46
33,20	,	59672	,	-15191	,	-12231	,	17.219355	,	30
33,20	,	59704	,	-15185	,	-12236	,	9.040842	,	16
33,20	,	59721	,	-15186	,	-12231	,	2.5907526	,	6
33,20	,	59736	,	-15193	,	-12238	,	-1.9672585	,	1
33,20	,	59768	,	-15198	,	-12231	,	-4.8290987	,	0
33,20	,	59784	,	-15211	,	-12243	,	-6.4840126	,	0
33,20	,	59801	,	-15213	,	-12239	,	-7.525514	,	0
33,20	,	59832	,	-15221	,	-12243	,	-8.421907	,	0
33,20	,	59849	,	-15229	,	-12247	,	-9.432684	,	0
33,20	,	59880	,	-15235	,	-12254	,	-10.682142	,	0
33,20	,	59896	,	-15245	,	-12253	,	-12.200201	,	0
33,20	,	59912	,	-15255	,	-12252	,	-13.966482	,	0
33,20	,	59944	,	-15266	,	-12273	,	-15.969294	,	0
33,20	,	59960	,	-15272	,	-12265	,	-18.17503	,	0
33,20	,	59976	,	-15280	,	-12259	,	-20.45717	,	0
33,20	,	60008	,	-15291	,	-12275	,	-22.627575	,	0
33,20	,	60024	,	-15300	,	-12280	,	-24.55	,	0
33,20	,	60056	,	-15317	,	-12277	,	-26.208775	,	0
33,20	,	60072	,	-15321	,	-12281	,	-27.676239	,	0
33,20	,	60088	,	-15329	,	-12281	,	-28.974476	,	0
33,20	,	60120	,	-15329	,	-12288	,	-29.97579	,	0
33,20	,	60136	,	-15326	,	-12283	,	-30.416037	,	0
33,20	,	60152	,	-15287	,	-12258	,	-29.792088	,	0
33,20	,	60184	,	-15230	,	-12253	,	-27.085709	,	0
33,20	,	60200	,	-15197	,	-12235	,	-20.934261	,	2
33,20	,	60216	,	-15177	,	-12221	,	-10.571077	,	8
33,20	,	60248	,	-15161	,	-12217	,	3.440219	,	18
33,20	,	60264	,	-15152	,	-12211	,	19.416962	,	32
33,20	,	60296	,	-15154	,	-12215	,	35.179966	,	47
33,20	,	60312	,	-15157	,	-12210	,	48.56594	,	62
33,20	,	60328	,	-15153	,	-12212	,	57.89939	,	75
33,20	,	60360	,	-15142	,	-12207	,	62.427574	,	84
33,20	,	60376	,	-15153	,	-12213	,	62.34292	,	88
33,20	,	60392	,	-15159	,	-12222	,	58.316994	,	86
33,20	,	60424	,	-15166	,	-12215	,	51.146088	,	80
33,20	,	60440	,	-15156	,	-12216	,	41.803726	,	70
33,21	,	60472	,	-15155	,	-12211	,	31.515728	,	56
33,21	,	60488	,	-15155	,	-12208	,	21.531586	,	41
33,21	,	60504	,	-15157	,	-12209	,	12.775679	,	26
33,21	,	60536	,	-15153	,	-12213	,	5.7542915	,	13
33,21	,	60552	,	-15157	,	-12212	,	0.6537714	,	4
33,21	,	60568	,	-15171	,	-12215	,	-2.677236	,	0
33,21	,	60600	,	-15174	,	-12213	,	-4.735298	,	0
33,21	,	60616	,	-15174	,	-12221	,	-6.080536	,	0
33,21	,	60632	,	-15182	,	-12229	,	-7.067486	,	0
33,21	,	60664	,	-15190	,	-12228	,	-7.917936	,	0
33,21	,	60680	,	-15198	,	-12235	,	-8.84713	,	0
33,21	,	60712	,	-15207	,	-12233	,	-10.030567	,	0
33,21	,	60728	,	-15230	,	-12241	,	-11.62715	,	0
33,21	,	60744	,	-15229	,	-12249	,	-13.7950735	,	0
33,21	,	60776	,	-15243	,	-12247	,	-16.509182	,	0
33,21	,	60792	,	-15255	,	-12257	,	-19.542437	,	0
33,21	,	60808	,	-15264	,	-12252	,	-22.662943	,	0
33,21	,	60840	,	-15275	,	-12267	,	-25.675697	,	0
33,21	,	60856	,	-15278	,	-12255	,	-28.370316	,	0
33,21	,	60888	,	-15289	,	-12262	,	-30.522205	,	0
33,21	,	60904	,	-15290	,	-12270	,	-31.937115	,	0
33,21	,	60920	,	-15295	,	-12269	,	-32.47892	,	0
33,21	,	60952	,	-15308	,	-12269	,	-32.13512	,	0
33,21	,	60968	,	-15312	,	-12271	,	-31.100704	,	0
33,21	,	60984	,	-15259	,	-12256	,	-29.385645	,	1
33,21	,	61016	,	-15210	,	-12239	,	-26.13274	,	2
33,21	,	61032	,	-15178	,	-12232	,	-19.886993	,	5
33,21	,	61064	,	-15163	,	-12216	,	-9.822078	,	11
33,21	,	61080	,	-15161	,	-12217	,	3.459896	,	21
33,21	,	61096	,	-15154	,	-12216	,	18.15403	,	34
33,21	,	61128	,	-15143	,	-12213	,	32.115643	,	48
33,21	,	61144	,	-15146	,	-12210	,	43.606937	,	61
33,21	,	61160	,	-15135	,	-12219	,	51.536385	,	72
33,21	,	61192	,	-15141	,	-12206	,	55.465843	,	78
33,21	,	61208	,	-15162	,	-12211	,	55.39801	,	80
33,21	,	61224	,	-15152	,	-12213	,	51.571342	,	77
33,21	,	61256	,	-15162	,	-12212	,	44.628662	,	71
33,21	,	61272	,	-15159	,	-12208	,	35.638527	,	61
33,21	,	61304	,	-15150	,	-12212	,	25.855526	,	48
33,21	,	61320	,	-15148	,	-12211	,	16.543512	,	34
33,21	,	61336	,	-15150	,	-12214	,	8.687332	,	21
33,21	,	61368	,	-15152	,	-12210	,	2.7464848	,	10
33,21	,	61384	,	-15161	,	-12208	,	-1.3122387	,	3
33,21	,	61400	,	-15153	,	-12217	,	-3.8083162	,	0
33,21	,	61432	,	-15170	,	-12212	,	-5.150197	,	0
33,21	,	61448	,	-15177	,	-12219	,	-5.8390527	,	0
33,22	,	61480	,	-15182	,	-12228	,	-6.4247804	,	0
33,22	,	61496	,	-15186	,	-12230	,	-7.2618227	,	0
33,22	,	61511	,	-15198	,	-12227	,	-8.45847	,	0
33,22	,	61544	,	-15201	,	-12231	,	-10.016962	,	0
33,22	,	61560	,	-15220	,	-12242	,	-11.91442	,	0
33,22	,	61575	,	-15224	,	-12236	,	-14.140446	,	0
33,22	,	61607	,	-15227	,	-12243	,	-16.60327	,	0
33,22	,	61623	,	-15242	,	-12245	,	-19.07196	,	0
33,22	,	61640	,	-15246	,	-12256	,	-21.347902	,	0
33,22	,	61672	,	-15248	,	-12247	,	-23.290733	,	0
33,22	,	61688	,	-15261	,	-12263	,	-24.740417	,	0
33,22	,	61720	,	-15269	,	-12266	,	-25.646091	,	0
33,22	,	61736	,	-15283	,	-12267	,	-26.147652	,	0
33,22	,	61752	,	-15282	,	-12271	,	-26.43097	,	0
33,22	,	61784	,	-15293	,	-12262	,	-26.56415	,	0
33,22	,	61799	,	-15272	,	-12260	,	-26.409683	,	0
33,22	,	61815	,	-15231	,	-12242	,	-25.38718	,	0
33,22	,	61847	,	-15187	,	-12229	,	-22.322914	,	1
33,22	,	61863	,	-15162	,	-12217	,	-15.987497	,	4
33,22	,	61896	,	-15150	,	-12217	,	-6.0100174	,	10
33,22	,	61912	,	-15145	,	-12210	,	6.714979	,	19
33,22	,	61928	,	-15136	,	-12207	,	20.413223	,	31
33,22	,	61960	,	-15143	,	-12205	,	33.108814	,	44
33,22	,	61976	,	-15135	,	-12209	,	43.126175	,	56
33,22	,	61991	,	-15135	,	-12214	,	49.438892	,	66
33,22	,	62023	,	-15146	,	-12211	,	51.721092	,	72
33,22	,	62039	,	-15153	,	-12210	,	50.08774	,	73
33,22	,	62071	,	-15159	,	-12216	,	44.973827	,	70
33,22	,	62088	,	-15161	,	-12208	,	37.175285	,	64
33,22	,	62104	,	-15151	,	-12216	,	27.82607	,	55
33,22	,	62136	,	-15154	,	-12223	,	18.244213	,	43
33,22	,	62152	,	-15160	,	-12209	,	9.557682	,	30
33,22	,	62168	,	-15152	,	-12211	,	2.4355536	,	18
33,22	,	62199	,	-15159	,	-12216	,	-2.8252096	,	8
33,22	,	62215	,	-15167	,	-12215	,	-6.2548475	,	2
33,22	,	62231	,	-15166	,	-12217	,	-8.200164	,	0
33,22	,	62263	,	-15170	,	-12217	,	-9.088918	,	0
33,22	,	62280	,	-15179	,	-12224	,	-9.302351	,	0
33,22	,	62312	,	-15190	,	-12226	,	-9.266081	,	0
33,22	,	62327	,	-15194	,	-12227	,	-9.411697	,	0
33,22	,	62343	,	-15205	,	-12238	,	-10.017805	,	0
33,22	,	62375	,	-15215	,	-12242	,	-11.194963	,	0
33,22	,	62391	,	-15218	,	-12234	,	-12.923313	,	0
33,22	,	62407	,	-15238	,	-12248	,	-15.076849	,	0
33,22	,	62439	,	-15246	,	-12252	,	-17.55251	,	0
33,22	,	62455	,	-15257	,	-12250	,	-20.28321	,	0
33,23	,	62487	,	-15272	,	-12253	,	-23.150414	,	0
33,23	,	62503	,	-15271	,	-12256	,	-25.978855	,	0
33,23	,	62520	,	-15269	,	-12265	,	-28.442661	,	0
33,23	,	62551	,	-15287	,	-12263	,	-30.133106	,	0
33,23	,	62567	,	-15292	,	-12264	,	-30.900002	,	0
33,23	,	62583	,	-15292	,	-12268	,	-30.852604	,	0
33,23	,	62615	,	-15276	,	-12261	,	-29.985415	,	0
33,23	,	62631	,	-15226	,	-12229	,	-27.821735	,	0
33,23	,	62663	,	-15163	,	-12221	,	-23.203478	,	2
33,23	,	62679	,	-15154	,	-12210	,	-14.838119	,	6
33,23	,	62695	,	-15141	,	-12214	,	-2.5544796	,	14
33,23	,	62727	,	-15138	,	-12206	,	12.250649	,	26
33,23	,	62743	,	-15136	,	-12212	,	27.342579	,	40
33,23	,	62759	,	-15143	,	-12209	,	40.47193	,	55
33,23	,	62791	,	-15132	,	-12206	,	49.93436	,	68
33,23	,	62807	,	-15126	,	-12206	,	54.97983	,	77
33,23	,	62823	,	-15129	,	-12203	,	55.784107	,	82
33,23	,	62855	,	-15136	,	-12208	,	52.977104	,	80
33,23	,	62871	,	-15144	,	-12203	,	47.267723	,	76
33,23	,	62903	,	-15145	,	-12211	,	39.41301	,	68
33,23	,	62919	,	-15136	,	-12203	,	30.347662	,	56
33,23	,	62935	,	-15134	,	-12202	,	21.19094	,	42
33,23	,	62967	,	-15129	,	-12205	,	12.993612	,	27
33,23	,	62983	,	-15141	,	-12204	,	6.4148664	,	14
33,23	,	62999	,	-15150	,	-12205	,	1.5403271	,	5
33,23	,	63031	,	-15148	,	-12209	,	-1.9688725	,	0
33,23	,	63047	,	-15150	,	-12213	,	-4.4703083	,	0
33,23	,	63079	,	-15150	,	-12208	,	-6.146677	,	0
33,23	,	63095	,	-15165	,	-12223	,	-7.164011	,	0
33,23	,	63111	,	-15170	,	-12224	,	-7.842161	,	0
33,23	,	63143	,	-15184	,	-12227	,	-8.585766	,	0
33,23	,	63159	,	-15204	,	-12223	,	-9.783464	,	0
33,23	,	63175	,	-15212	,	-12236	,	-11.771019	,	0
33,23	,	63207	,	-15223	,	-12248	,	-14.659706	,	0
33,23	,	63223	,	-15224	,	-12242	,	-18.196178	,	0
33,23	,	63239	,	-15242	,	-12253	,	-21.906078	,	0
33,23	,	63271	,	-15250	,	-12245	,	-25.394936	,	0
33,23	,	63287	,	-15251	,	-12256	,	-28.408482	,	0
33,23	,	63319	,	-15263	,	-12260	,	-30.703972	,	0
33,23	,	63335	,	-15265	,	-12262	,	-32.104694	,	0
33,23	,	63351	,	-15274	,	-12260	,	-32.573708	,	0
33,23	,	63383	,	-15280	,	-12265	,	-32.191486	,	0
33,23	,	63399	,	-15299	,	-12268	,	-31.201931	,	0
33,23	,	63415	,	-15299	,	-12272	,	-29.9804	,	0
33,23	,	63447	,	-15252	,	-12254	,	-28.546	,	1
33,24	,	63463	,	-15203	,	-12230	,	-25.950947	,	2
33,24	,	63495	,	-15161	,	-12220	,	-20.57565	,	4
33,24	,	63511	,	-15155	,	-12215	,	-11.341019	,	9
33,24	,	63527	,	-15135	,	-12211	,	1.3991156	,	18
33,24	,	63559	,	-15132	,	-12210	,	16.067837	,	30
33,24	,	63575	,	-15125	,	-12202	,	30.620337	,	44
33,24	,	63591	,	-15125	,	-12201	,	43.127975	,	58
33,24	,	63623	,	-15124	,	-12210	,	52.14616	,	70
33,24	,	63639	,	-15110	,	-12194	,	56.979397	,	78
33,24	,	63671	,	-15114	,	-12202	,	57.74765	,	81
33,24	,	63687	,	-15119	,	-12201	,	55.052525	,	79
33,24	,	63703	,	-15118	,	-12200	,	49.60696	,	74
33,24	,	63735	,	-15123	,	-12196	,	42.19889	,	65
33,24	,	63751	,	-15121	,	-12195	,	33.693954	,	53
33,24	,	63767	,	-15124	,	-12204	,	24.941969	,	39
33,24	,	63799	,	-15117	,	-12194	,	16.708504	,	25
33,24	,	63815	,	-15109	,	-12196	,	9.667105	,	13
33,24	,	63831	,	-15120	,	-12199	,	4.295061	,	4
33,24	,	63863	,	-15124	,	-12199	,	0.63830566	,	0
33,24	,	63879	,	-15135	,	-12205	,	-1.6997881	,	0
33,24	,	63911	,	-15141	,	-12208	,	-3.306836	,	0
33,24	,	63927	,	-15158	,	-12214	,	-4.757984	,	0
33,24	,	63943	,	-15162	,	-12217	,	-6.5102234	,	0
33,24	,	63975	,	-15164	,	-12219	,	-8.747122	,	0
33,24	,	63991	,	-15174	,	-12224	,	-11.320906	,	0
33,24	,	64007	,	-15191	,	-12227	,	-14.018362	,	0
33,24	,	64039	,	-15198	,	-12233	,	-16.786152	,	0
33,24	,	64055	,	-15211	,	-12231	,	-19.624748	,	0
33,24	,	64087	,	-15214	,	-12239	,	-22.437645	,	0
33,24	,	64103	,	-15221	,	-12238	,	-25.000992	,	0
33,24	,	64119	,	-15239	,	-12249	,	-27.100819	,	0
33,24	,	64151	,	-15248	,	-12249	,	-28.735657	,	0
33,24	,	64167	,	-15255	,	-12254	,	-30.031185	,	0
33,24	,	64183	,	-15265	,	-12252	,	-31.029976	,	0
33,24	,	64215	,	-15270	,	-12258	,	-31.695786	,	0
33,24	,	64231	,	-15278	,	-12261	,	-31.98424	,	0
33,24	,	64247	,	-15286	,	-12268	,	-31.874393	,	0
33,24	,	64279	,	-15282	,	-12263	,	-31.341282	,	0
33,24	,	64295	,	-15280	,	-12260	,	-30.255045	,	0
33,24	,	64327	,	-15237	,	-12252	,	-28.217627	,	1
33,24	,	64343	,	-15186	,	-12222	,	-24.31734	,	3
33,24	,	64359	,	-15146	,	-12209	,	-17.299545	,	6
33,24	,	64391	,	-15132	,	-12207	,	-6.4555454	,	13
33,24	,	64407	,	-15132	,	-12205	,	7.55989	,	23
33,24	,	64423	,	-15120	,	-12205	,	22.85505	,	37
33,24	,	64455	,	-15121	,	-12204	,	37.18302	,	52
33,25	,	64470	,	-15122	,	-12201	,	48.6531	,	66
33,25	,	64502	,	-15113	,	-12199	,	56.048996	,	77
33,25	,	64518	,	-15114	,	-12199	,	59.000748	,	83
33,25	,	64534	,	-15127	,	-12197	,	57.78927	,	83
33,25	,	64567	,	-15128	,	-12211	,	52.98016	,	80
33,25	,	64583	,	-15126	,	-12200	,	45.38784	,	73
33,25	,	64599	,	-15124	,	-12207	,	36.126038	,	63
33,25	,	64631	,	-15127	,	-12202	,	26.3976	,	49
33,25	,	64647	,	-15125	,	-12201	,	17.219692	,	34
33,25	,	64663	,	-15134	,	-12206	,	9.270306	,	20
33,25	,	64694	,	-15133	,	-12203	,	2.8523436	,	9
33,25	,	64710	,	-15146	,	-12212	,	-2.0439243	,	2
33,25	,	64742	,	-15137	,	-12212	,	-5.601606	,	0
33,25	,	64758	,	-15148	,	-12206	,	-8.012671	,	0
33,25	,	64774	,	-15153	,	-12218	,	-9.487221	,	0
33,25	,	64807	,	-15164	,	-12226	,	-10.360071	,	0
33,25	,	64823	,	-15169	,	-12211	,	-11.020876	,	0
33,25	,	64839	,	-15197	,	-12227	,	-11.861408	,	0
33,25	,	64870	,	-15204	,	-12228	,	-13.310709	,	0
33,25	,	64886	,	-15212	,	-12234	,	-15.628823	,	0
33,25	,	64918	,	-15220	,	-12238	,	-18.674479	,	0
33,25	,	64934	,	-15223	,	-12244	,	-22.005585	,	0
33,25	,	64950	,	-15235	,	-12238	,	-25.117985	,	0
33,25	,	64982	,	-15236	,	-12245	,	-27.620125	,	0
33,25	,	64998	,	-15251	,	-12250	,	-29.310228	,	0
33,25	,	65014	,	-15258	,	-12248	,	-30.204609	,	0
33,25	,	65047	,	-15259	,	-12266	,	-30.443607	,	0
33,25	,	65063	,	-15267	,	-12251	,	-30.111761	,	0
33,25	,	65094	,	-15290	,	-12265	,	-29.345533	,	0
33,25	,	65110	,	-15291	,	-12266	,	-28.487225	,	0
33,25	,	65126	,	-15304	,	-12273	,	-27.860943	,	0
33,25	,	65158	,	-15292	,	-12267	,	-27.485857	,	0
33,25	,	65174	,	-15271	,	-12252	,	-26.924133	,	0
33,25	,	65190	,	-15208	,	-12233	,	-25.11821	,	0
33,25	,	65222	,	-15176	,	-12224	,	-20.539463	,	1
33,25	,	65238	,	-15158	,	-12213	,	-12.082193	,	5
33,25	,	65254	,	-15148	,	-12214	,	0.019612312	,	13
33,25	,	65286	,	-15139	,	-12218	,	14.268064	,	25
33,25	,	65302	,	-15136	,	-12205	,	28.62283	,	39
33,25	,	65334	,	-15142	,	-12204	,	41.09089	,	53
33,25	,	65350	,	-15140	,	-12214	,	50.089806	,	65
33,25	,	65366	,	-15137	,	-12214	,	54.760807	,	73
33,25	,	65398	,	-15143	,	-12213	,	55.06481	,	77
33,25	,	65414	,	-15155	,	-12215	,	51.49141	,	76
33,25	,	65430	,	-15164	,	-12211	,	44.73227	,	72
33,26	,	65462	,	-15154	,	-12218	,	35.689713	,	64
33,26	,	65478	,	-15161	,	-12213	,	25.564592	,	52
33,26	,	65510	,	-15150	,	-12219	,	15.637499	,	38
33,26	,	65526	,	-15153	,	-12214	,	6.97398	,	24
33,26	,	65542	,	-15149	,	-12213	,	0.2697487	,	12
33,26	,	65574	,	-15150	,	-12209	,	-4.213996	,	4
33,26	,	65590	,	-15153	,	-12210	,	-6.603983	,	0
33,26	,	65606	,	-15162	,	-12216	,	-7.341535	,	0
33,26	,	65638	,	-15174	,	-12221	,	-7.113168	,	0
33,26	,	65654	,	-15188	,	-12225	,	-6.723812	,	0
33,26	,	65670	,	-15194	,	-12229	,	-6.8804216	,	0
33,26	,	65702	,	-15205	,	-12227	,	-7.967428	,	0
33,26	,	65718	,	-15209	,	-12239	,	-9.989399	,	0
33,26	,	65750	,	-15220	,	-12241	,	-12.684157	,	0
33,26	,	65766	,	-15229	,	-12249	,	-15.710189	,	0
33,26	,	65782	,	-15240	,	-12239	,	-18.789978	,	0
33,26	,	65814	,	-15243	,	-12247	,	-21.700142	,	0
33,26	,	65830	,	-15261	,	-12257	,	-24.256454	,	0
33,26	,	65846	,	-15262	,	-12253	,	-26.372364	,	0
33,26	,	65878	,	-15279	,	-12261	,	-28.034992	,	0
33,26	,	65894	,	-15281	,	-12259	,	-29.256912	,	0
33,26	,	65926	,	-15291	,	-12270	,	-30.05289	,	0
33,26	,	65942	,	-15285	,	-12264	,	-30.36176	,	0
33,26	,	65958	,	-15301	,	-12265	,	-30.064209	,	0
33,26	,	65990	,	-15301	,	-12273	,	-29.15805	,	0
33,26	,	66006	,	-15276	,	-12256	,	-27.641863	,	0
33,26	,	66022	,	-15231	,	-12238	,	-25.014223	,	1
33,26	,	66054	,	-15187	,	-12224	,	-20.15715	,	3
33,26	,	66070	,	-15156	,	-12219	,	-11.969107	,	7
33,26	,	66086	,	-15160	,	-12217	,	-0.29712868	,	15
33,26	,	66118	,	-15158	,	-12214	,	13.578277	,	26
33,26	,	66134	,	-15152	,	-12211	,	27.475323	,	39
33,26	,	66166	,	-15161	,	-12219	,	39.28089	,	52
33,26	,	66182	,	-15171	,	-12210	,	47.408386	,	63
33,26	,	66198	,	-15169	,	-12215	,	50.953747	,	71
33,26	,	66230	,	-15179	,	-12224	,	49.854675	,	73
33,26	,	66246	,	-15190	,	-12230	,	44.726387	,	71
33,26	,	66262	,	-15193	,	-12228	,	36.534927	,	67
33,26	,	66294	,	-15189	,	-12222	,	26.500555	,	59
33,26	,	66310	,	-15186	,	-12222	,	16.036718	,	48
33,26	,	66342	,	-15178	,	-12221	,	6.514248	,	35
33,26	,	66358	,	-15184	,	-12215	,	-1.046772	,	22
33,26	,	66374	,	-15192	,	-12224	,	-6.2443705	,	11
33,26	,	66406	,	-15191	,	-12232	,	-9.280384	,	3
33,26	,	66422	,	-15200	,	-12235	,	-10.652683	,	0
33,26	,	66438	,	-15199	,	-12231	,	-10.908873	,	0
33,27	,	66470	,	-15203	,	-12234	,	-10.520584	,	0
33,27	,	66486	,	-15218	,	-12237	,	-9.887873	,	0
33,27	,	66502	,	-15224	,	-12244	,	-9.442373	,	0
33,27	,	66534	,	-15230	,	-12236	,	-9.545813	,	0
33,27	,	66550	,	-15253	,	-12239	,	-10.389639	,	0
33,27	,	66582	,	-15259	,	-12249	,	-12.102823	,	0
33,27	,	66598	,	-15268	,	-12252	,	-14.686005	,	0
33,27	,	66614	,	-15272	,	-12260	,	-17.85635	,	0
33,27	,	66646	,	-15291	,	-12255	,	-21.198124	,	0
33,27	,	66662	,	-15302	,	-12261	,	-24.439758	,	0
33,27	,	66678	,	-15297	,	-12264	,	-27.400642	,	0
33,27	,	66710	,	-15316	,	-12264	,	-29.806374	,	0
33,27	,	66726	,	-15314	,	-12274	,	-31.422274	,	0
33,27	,	66757	,	-15324	,	-12281	,	-32.17126	,	0
33,27	,	66774	,	-15309	,	-12266	,	-31.98259	,	0
33,27	,	66790	,	-15219	,	-12233	,	-30.237967	,	0
33,27	,	66822	,	-15184	,	-12225	,	-25.359423	,	1
33,27	,	66838	,	-15169	,	-12213	,	-15.913517	,	5
33,27	,	66854	,	-15165	,	-12219	,	-2.1655521	,	14
33,27	,	66886	,	-15162	,	-12209	,	13.9284725	,	27
33,27	,	66902	,	-15155	,	-12207	,	29.802631	,	43
33,27	,	66934	,	-15161	,	-12212	,	43.189903	,	58
33,27	,	66950	,	-15154	,	-12212	,	52.54336	,	71
33,27	,	66966	,	-15159	,	-12208	,	57.175735	,	80
33,27	,	66998	,	-15164	,	-12217	,	57.157784	,	84
33,27	,	67014	,	-15169	,	-12207	,	53.056114	,	83
33,27	,	67029	,	-15182	,	-12224	,	45.726723	,	79
33,27	,	67062	,	-15180	,	-12216	,	36.182724	,	70
33,27	,	67078	,	-15174	,	-12217	,	25.603207	,	57
33,27	,	67094	,	-15176	,	-12220	,	15.276262	,	41
33,27	,	67126	,	-15178	,	-12212	,	6.266613	,	26
33,27	,	67142	,	-15181	,	-12218	,	-0.8362398	,	13
33,27	,	67173	,	-15179	,	-12214	,	-5.8632274	,	4
33,27	,	67189	,	-15188	,	-12215	,	-8.93762	,	0
33,27	,	67205	,	-15186	,	-12211	,	-10.409276	,	0
33,27	,	67238	,	-15192	,	-12226	,	-10.732125	,	0
33,27	,	67254	,	-15205	,	-12217	,	-10.3903885	,	0
33,27	,	67269	,	-15213	,	-12229	,	-9.929371	,	0
33,27	,	67301	,	-15217	,	-12232	,	-9.824654	,	0
33,27	,	67317	,	-15238	,	-12229	,	-10.358726	,	0
33,27	,	67349	,	-15250	,	-12242	,	-11.73357	,	0
33,27	,	67365	,	-15257	,	-12241	,	-14.054325	,	0
33,27	,	67382	,	-15264	,	-12255	,	-17.140587	,	0
33,27	,	67413	,	-15273	,	-12248	,	-20.562145	,	0
33,27	,	67429	,	-15277	,	-12258	,	-23.840996	,	0
33,27	,	67445	,	-15288	,	-12254	,	-26.58771	,	0
33,28	,	67477	,	-15299	,	-12262	,	-28.606728	,	0
33,28	,	67493	,	-15302	,	-12252	,	-29.893879	,	0
33,28	,	67509	,	-15324	,	-12270	,	-30.564184	,	0
33,28	,	67542	,	-15276	,	-12256	,	-30.61229	,	0
33,28	,	67558	,	-15234	,	-12231	,	-29.31518	,	0
33,28	,	67589	,	-15190	,	-12218	,	-25.209867	,	1
33,28	,	67605	,	-15169	,	-12205	,	-17.108376	,	5
33,28	,	67621	,	-15153	,	-12205	,	-5.019044	,	13
33,28	,	67653	,	-15142	,	-12203	,	9.786218	,	25
33,28	,	67669	,	-15139	,	-12197	,	25.306362	,	39
33,28	,	67685	,	-15136	,	-12192	,	39.427513	,	54
33,28	,	67717	,	-15132	,	-12196	,	50.421833	,	68
33,28	,	67733	,	-15132	,	-12188	,	57.26275	,	78
33,28	,	67765	,	-15133	,	-12189	,	59.647614	,	84
33,28	,	67781	,	-15136	,	-12198	,	57.855846	,	85
33,28	,	67797	,	-15132	,	-12201	,	52.6195	,	81
33,28	,	67829	,	-15142	,	-12196	,	44.952698	,	73
33,28	,	67845	,	-15144	,	-12205	,	35.88787	,	61
33,28	,	67862	,	-15136	,	-12193	,	26.38129	,	47
33,28	,	67893	,	-15138	,	-12198	,	17.364033	,	32
33,28	,	67909	,	-15136	,	-12195	,	9.602901	,	18
33,28	,	67925	,	-15137	,	-12194	,	3.5257587	,	8
33,28	,	67957	,	-15145	,	-12201	,	-0.80184937	,	2
33,28	,	67973	,	-15143	,	-12200	,	-3.604745	,	0
33,28	,	68005	,	-15159	,	-12197	,	-5.280955	,	0
33,28	,	68021	,	-15160	,	-12206	,	-6.3231087	,	0
33,28	,	68037	,	-15177	,	-12208	,	-7.222759	,	0
33,28	,	68069	,	-15181	,	-12209	,	-8.368792	,	0
33,28	,	68085	,	-15188	,	-12218	,	-9.960077	,	0
33,28	,	68101	,	-15198	,	-12225	,	-11.968643	,	0
33,28	,	68133	,	-15207	,	-12226	,	-14.26317	,	0
33,28	,	68149	,	-15216	,	-12223	,	-16.71974	,	0
33,28	,	68181	,	-15222	,	-12235	,	-19.20067	,	0
33,28	,	68197	,	-15230	,	-12238	,	-21.523819	,	0
33,28	,	68213	,	-15238	,	-12236	,	-23.510744	,	0
33,28	,	68245	,	-15247	,	-12241	,	-25.067663	,	0
33,28	,	68261	,	-15266	,	-12251	,	-26.250381	,	0
33,28	,	68277	,	-15270	,	-12248	,	-27.245518	,	0
33,28	,	68309	,	-15282	,	-12260	,	-28.198553	,	0
33,28	,	68325	,	-15279	,	-12258	,	-29.067886	,	0
33,28	,	68357	,	-15252	,	-12248	,	-29.481083	,	0
33,28	,	68373	,	-15211	,	-12225	,	-28.523525	,	0
33,28	,	68389	,	-15159	,	-12209	,	-24.823597	,	0
33,28	,	68421	,	-15142	,	-12195	,	-17.205143	,	3
33,28	,	68437	,	-15124	,	-12189	,	-5.5589905	,	10
33,28	,	68453	,	-15112	,	-12197	,	8.927038	,	21
33,29	,	68485	,	-15112	,	-12184	,	24.28557	,	35
33,29	,	68501	,	-15105	,	-12177	,	38.386932	,	50
33,29	,	68517	,	-15098	,	-12180	,	49.49979	,	64
33,29	,	68549	,	-15091	,	-12187	,	56.681	,	75
33,29	,	68565	,	-15095	,	-12182	,	59.733185	,	82
33,29	,	68597	,	-15097	,	-12179	,	58.91038	,	85
33,29	,	68613	,	-15105	,	-12180	,	54.712696	,	82
33,29	,	68629	,	-15109	,	-12180	,	47.81729	,	75
33,29	,	68661	,	-15111	,	-12189	,	39.050827	,	64
33,29	,	68677	,	-15110	,	-12183	,	29.365631	,	50
33,29	,	68693	,	-15103	,	-12191	,	19.784271	,	35
33,29	,	68725	,	-15112	,	-12180	,	11.221195	,	21
33,29	,	68741	,	-15106	,	-12179	,	4.251643	,	10
33,29	,	68773	,	-15112	,	-12185	,	-0.91541195	,	3
33,29	,	68789	,	-15121	,	-12182	,	-4.3826685	,	0
33,29	,	68805	,	-15123	,	-12191	,	-6.5297666	,	0
33,29	,	68837	,	-15126	,	-12195	,	-7.805395	,	0
33,29	,	68853	,	-15137	,	-12199	,	-8.576442	,	0
33,29	,	68869	,	-15148	,	-12203	,	-9.205145	,	0
33,29	,	68901	,	-15160	,	-12204	,	-10.0728	,	0
33,29	,	68917	,	-15168	,	-12208	,	-11.463337	,	0
33,29	,	68933	,	-15179	,	-12216	,	-13.467758	,	0
33,29	,	68965	,	-15185	,	-12206	,	-15.980089	,	0
33,29	,	68981	,	-15202	,	-12223	,	-18.792608	,	0
33,29	,	69013	,	-15217	,	-12227	,	-21.761671	,	0
33,29	,	69029	,	-15219	,	-12226	,	-24.802477	,	0
33,29	,	69045	,	-15224	,	-12229	,	-27.685032	,	0
33,29	,	69077	,	-15233	,	-12239	,	-30.044407	,	0
33,29	,	69093	,	-15239	,	-12241	,	-31.61383	,	0
33,29	,	69109	,	-15246	,	-12240	,	-32.31278	,	0
33,29	,	69141	,	-15263	,	-12250	,	-32.243744	,	0
33,29	,	69157	,	-15266	,	-12251	,	-31.676437	,	0
33,29	,	69189	,	-15253	,	-12258	,	-30.77151	,	0
33,29	,	69205	,	-15219	,	-12222	,	-29.169521	,	0
33,29	,	69221	,	-15131	,	-12201	,	-25.684536	,	1
33,29	,	69253	,	-15117	,	-12187	,	-18.60262	,	4
33,29	,	69269	,	-15103	,	-12184	,	-7.065319	,	11
33,29	,	69284	,	-15095	,	-12179	,	7.9519997	,	22
33,29	,	69317	,	-15094	,	-12182	,	24.221613	,	37
33,29	,	69333	,	-15085	,	-12180	,	39.302868	,	53
33,29	,	69364	,	-15090	,	-12178	,	51.225662	,	68
33,29	,	69380	,	-15084	,	-12184	,	58.791977	,	79
33,29	,	69396	,	-15082	,	-12184	,	61.637703	,	86
33,29	,	69429	,	-15089	,	-12188	,	60.109833	,	87
33,29	,	69445	,	-15097	,	-12178	,	54.925953	,	84
33,30	,	69461	,	-15104	,	-12184	,	46.924805	,	77
33,30	,	69493	,	-15110	,	-12185	,	37.024384	,	66
33,30	,	69509	,	-15104	,	-12192	,	26.24916	,	51
33,30	,	69524	,	-15092	,	-12187	,	15.774893	,	35
33,30	,	69557	,	-15101	,	-12189	,	6.7433777	,	20
33,30	,	69573	,	-15108	,	-12188	,	-0.19396591	,	9
33,30	,	69604	,	-15107	,	-12189	,	-5.012129	,	2
33,30	,	69621	,	-15116	,	-12190	,	-8.017985	,	0
33,30	,	69637	,	-15117	,	-12190	,	-9.639199	,	0
33,30	,	69668	,	-15128	,	-12205	,	-10.354652	,	0
33,30	,	69684	,	-15130	,	-12200	,	-10.620133	,	0
33,30	,	69701	,	-15156	,	-12212	,	-10.882787	,	0
33,30	,	69732	,	-15157	,	-12216	,	-11.60464	,	0
33,30	,	69748	,	-15167	,	-12219	,	-13.058681	,	0
33,30	,	69780	,	-15187	,	-12224	,	-15.229555	,	0
33,30	,	69797	,	-15199	,	-12234	,	-18.036308	,	0
33,30	,	69813	,	-15206	,	-12236	,	-21.362682	,	0
33,30	,	69844	,	-15212	,	-12237	,	-24.896297	,	0
33,30	,	69860	,	-15217	,	-12235	,	-28.171345	,	0
33,30	,	69876	,	-15228	,	-12238	,	-30.767828	,	0
33,30	,	69909	,	-15233	,	-12252	,	-32.459976	,	0
33,30	,	69924	,	-15252	,	-12239	,	-33.260025	,	0
33,30	,	69940	,	-15265	,	-12251	,	-33.42815	,	0
33,30	,	69972	,	-15265	,	-12258	,	-33.307575	,	0
33,30	,	69988	,	-15280	,	-12268	,	-33.07334	,	0
33,30	,	70020	,	-15287	,	-12259	,	-32.77	,	0
33,30	,	70036	,	-15257	,	-12249	,	-32.250095	,	0
33,30	,	70053	,	-15210	,	-12230	,	-30.725155	,	0
33,30	,	70084	,	-15164	,	-12215	,	-26.724396	,	1
33,30	,	70100	,	-15134	,	-12209	,	-18.87832	,	5
33,30	,	70116	,	-15131	,	-12202	,	-6.925868	,	12
33,30	,	70148	,	-15123	,	-12219	,	7.885352	,	23
33,30	,	70164	,	-15118	,	-12202	,	23.363808	,	37
33,30	,	70196	,	-15125	,	-12201	,	37.248985	,	52
33,30	,	70212	,	-15122	,	-12201	,	47.72645	,	65
33,30	,	70228	,	-15119	,	-12210	,	53.75684	,	75
33,30	,	70260	,	-15120	,	-12207	,	55.215027	,	81
33,30	,	70276	,	-15136	,	-12205	,	52.59091	,	81
33,30	,	70292	,	-15134	,	-12210	,	46.61566	,	77
33,30	,	70324	,	-15137	,	-12200	,	38.22882	,	70
33,30	,	70340	,	-15133	,	-12206	,	28.604147	,	59
33,30	,	70372	,	-15130	,	-12209	,	18.9661	,	45
33,30	,	70388	,	-15133	,	-12220	,	10.342457	,	30
33,30	,	70404	,	-15131	,	-12206	,	3.3882256	,	17
33,30	,	70436	,	-15139	,	-12205	,	-1.6695194	,	7
33,30	,	70452	,	-15143	,	-12212	,	-4.9884925	,	1
33,31	,	70468	,	-15150	,	-12216	,	-6.9776573	,	0
33,31	,	70500	,	-15159	,	-12222	,	-8.140773	,	0
33,31	,	70516	,	-15165	,	-12224	,	-8.966207	,	0
33,31	,	70532	,	-15166	,	-12225	,	-9.788444	,	0
33,31	,	70564	,	-15183	,	-12223	,	-10.757856	,	0
33,31	,	70580	,	-15193	,	-12233	,	-12.005504	,	0
33,31	,	70612	,	-15199	,	-12238	,	-13.666612	,	0
33,31	,	70628	,	-15203	,	-12243	,	-15.70528	,	0
33,31	,	70644	,	-15218	,	-12238	,	-17.921394	,	0
33,31	,	70677	,	-15219	,	-12249	,	-20.114246	,	0
33,31	,	70692	,	-15240	,	-12252	,	-22.15871	,	0
33,31	,	70708	,	-15249	,	-12256	,	-24.059841	,	0
33,31	,	70740	,	-15266	,	-12262	,	-25.940388	,	0
33,31	,	70756	,	-15258	,	-12270	,	-27.827986	,	0
33,31	,	70788	,	-15267	,	-12267	,	-29.467178	,	0
33,31	,	70804	,	-15273	,	-12275	,	-30.492199	,	0
33,31	,	70820	,	-15284	,	-12271	,	-30.750492	,	0
33,31	,	70852	,	-15284	,	-12272	,	-30.317863	,	0
33,31	,	70868	,	-15257	,	-12268	,	-29.15996	,	0
33,31	,	70884	,	-15201	,	-12237	,	-26.647285	,	1
33,31	,	70916	,	-15158	,	-12227	,	-21.484158	,	3
33,31	,	70932	,	-15136	,	-12217	,	-12.526016	,	8
33,31	,	70948	,	-15134	,	-12219	,	0.1497631	,	16
33,31	,	70980	,	-15132	,	-12207	,	14.988544	,	28
33,31	,	70996	,	-15139	,	-12209	,	29.61665	,	42
33,31	,	71028	,	-15124	,	-12208	,	41.80347	,	56
33,31	,	71044	,	-15135	,	-12216	,	50.127228	,	68
33,31	,	71060	,	-15136	,	-12215	,	53.996033	,	76
33,31	,	71092	,	-15145	,	-12211	,	53.407074	,	78
33,31	,	71108	,	-15155	,	-12221	,	48.831	,	76
33,31	,	71124	,	-15153	,	-12218	,	41.123196	,	71
33,31	,	71156	,	-15156	,	-12219	,	31.45056	,	63
33,31	,	71172	,	-15149	,	-12214	,	21.152678	,	51
33,31	,	71204	,	-15154	,	-12225	,	11.48007	,	37
33,31	,	71220	,	-15148	,	-12223	,	3.3592405	,	23
33,31	,	71236	,	-15159	,	-12216	,	-2.73277	,	11
33,31	,	71268	,	-15156	,	-12220	,	-6.773358	,	3
33,31	,	71284	,	-15163	,	-12225	,	-9.053863	,	0
33,31	,	71300	,	-15170	,	-12225	,	-10.027526	,	0
33,31	,	71332	,	-15178	,	-12228	,	-10.243295	,	0
33,31	,	71348	,	-15183	,	-12238	,	-10.229815	,	0
33,31	,	71364	,	-15199	,	-12239	,	-10.405672	,	0
33,31	,	71396	,	-15203	,	-12237	,	-11.078591	,	0
33,31	,	71412	,	-15223	,	-12249	,	-12.425737	,	0
33,31	,	71444	,	-15231	,	-12252	,	-14.510189	,	0
33,32	,	71460	,	-15253	,	-12251	,	-17.326014	,	0
33,32	,	71475	,	-15261	,	-12263	,	-20.793936	,	0
33,32	,	71508	,	-15272	,	-12270	,	-24.694145	,	0
33,32	,	71524	,	-15269	,	-12266	,	-28.587898	,	0
33,32	,	71540	,	-15281	,	-12270	,	-31.898834	,	0
33,32	,	71572	,	-15295	,	-12276	,	-34.217255	,	0
33,32	,	71588	,	-15299	,	-12275	,	-35.484245	,	0
33,32	,	71619	,	-15307	,	-12286	,	-35.81843	,	0
33,32	,	71636	,	-15311	,	-12283	,	-35.34026	,	0
33,32	,	71652	,	-15323	,	-12283	,	-34.203888	,	0
33,32	,	71684	,	-15267	,	-12257	,	-32.350403	,	1
33,32	,	71700	,	-15212	,	-12250	,	-28.877775	,	2
33,32	,	71716	,	-15173	,	-12227	,	-22.194916	,	5
33,32	,	71748	,	-15162	,	-12225	,	-11.324648	,	11
33,32	,	71764	,	-15148	,	-12220	,	3.1481	,	21
33,32	,	71795	,	-15151	,	-12221	,	19.320972	,	35
33,32	,	71811	,	-15143	,	-12215	,	34.799862	,	51
33,32	,	71828	,	-15145	,	-12220	,	47.47537	,	66
33,32	,	71860	,	-15141	,	-12230	,	55.977062	,	78
33,32	,	71876	,	-15137	,	-12209	,	59.801224	,	85
33,32	,	71892	,	-15153	,	-12220	,	59.155735	,	87
33,32	,	71924	,	-15161	,	-12227	,	54.586205	,	84
33,32	,	71939	,	-15155	,	-12226	,	46.86209	,	78
33,32	,	71955	,	-15167	,	-12226	,	37.075912	,	68
33,32	,	71988	,	-15151	,	-12225	,	26.497452	,	54
33,32	,	72004	,	-15161	,	-12225	,	16.356602	,	38
33,32	,	72036	,	-15160	,	-12220	,	7.6022167	,	23
33,32	,	72052	,	-15157	,	-12222	,	0.73836994	,	11
33,32	,	72068	,	-15162	,	-12223	,	-4.08403	,	3
33,32	,	72099	,	-15158	,	-12234	,	-6.973931	,	0
33,32	,	72115	,	-15170	,	-12216	,	-8.263972	,	0
33,32	,	72131	,	-15182	,	-12232	,	-8.5117035	,	0
33,32	,	72164	,	-15183	,	-12238	,	-8.394634	,	0
33,32	,	72180	,	-15190	,	-12239	,	-8.415128	,	0
33,32	,	72211	,	-15200	,	-12240	,	-8.816673	,	0
33,32	,	72228	,	-15214	,	-12244	,	-9.753372	,	0
33,32	,	72244	,	-15218	,	-12253	,	-11.327361	,	0
33,32	,	72275	,	-15231	,	-12255	,	-13.493218	,	0
33,32	,	72291	,	-15252	,	-12260	,	-16.14622	,	0
33,32	,	72307	,	-15249	,	-12256	,	-19.205318	,	0
33,32	,	72339	,	-15247	,	-12265	,	-22.366741	,	0
33,32	,	72355	,	-15272	,	-12260	,	-25.131454	,	0
33,32	,	72372	,	-15282	,	-12280	,	-27.29359	,	0
33,32	,	72404	,	-15292	,	-12274	,	-29.002064	,	0
33,32	,	72419	,	-15303	,	-12277	,	-30.415636	,	0
33,32	,	72451	,	-15308	,	-12288	,	-31.574482	,	0
33,33	,	72467	,	-15321	,	-12282	,	-32.442184	,	0
33,33	,	72483	,	-15315	,	-12288	,	-32.920578	,	0
33,33	,	72516	,	-15290	,	-12260	,	-32.67607	,	0
33,33	,	72531	,	-15233	,	-12251	,	-30.813297	,	0
33,33	,	72547	,	-15187	,	-12238	,	-25.896358	,	1
33,33	,	72579	,	-15164	,	-12231	,	-16.730824	,	5
33,33	,	72595	,	-15155	,	-12228	,	-3.3838282	,	14
33,33	,	72627	,	-15145	,	-12215	,	12.614703	,	27
33,33	,	72643	,	-15147	,	-12218	,	28.942154	,	42
33,33	,	72659	,	-15139	,	-12216	,	43.287025	,	58
33,33	,	72691	,	-15144	,	-12221	,	53.9062	,	72
33,33	,	72707	,	-15137	,	-12210	,	59.874016	,	82
33,33	,	72723	,	-15140	,	-12216	,	61.09149	,	87
33,33	,	72755	,	-15146	,	-12220	,	58.087612	,	87
33,33	,	72771	,	-15153	,	-12219	,	51.69874	,	83
33,33	,	72787	,	-15150	,	-12215	,	42.921295	,	74
33,33	,	72819	,	-15152	,	-12221	,	32.904465	,	61
33,33	,	72836	,	-15140	,	-12209	,	22.857286	,	46
33,33	,	72867	,	-15145	,	-12219	,	13.861822	,	30
33,33	,	72883	,	-15157	,	-12213	,	6.567109	,	16
33,33	,	72899	,	-15157	,	-12219	,	1.0338135	,	6
33,33	,	72931	,	-15151	,	-12217	,	-2.9502954	,	1
33,33	,	72947	,	-15162	,	-12221	,	-5.574972	,	0
33,33	,	72963	,	-15160	,	-12227	,	-7.0788097	,	0
33,33	,	72995	,	-15178	,	-12230	,	-7.8330727	,	0
33,33	,	73011	,	-15180	,	-12231	,	-8.304134	,	0
33,33	,	73043	,	-15190	,	-12231	,	-8.915129	,	0
33,33	,	73059	,	-15201	,	-12246	,	-9.926078	,	0
33,33	,	73075	,	-15209	,	-12238	,	-11.457761	,	0
33,33	,	73107	,	-15221	,	-12251	,	-13.5151005	,	0
33,33	,	73123	,	-15244	,	-12254	,	-16.071098	,	0
33,33	,	73139	,	-15251	,	-12252	,	-19.15472	,	0
33,33	,	73171	,	-15255	,	-12262	,	-22.66248	,	0
33,33	,	73187	,	-15274	,	-12270	,	-26.25119	,	0
33,33	,	73219	,	-15283	,	-12265	,	-29.594576	,	0
33,33	,	73235	,	-15288	,	-12272	,	-32.4899	,	0
33,33	,	73251	,	-15291	,	-12276	,	-34.69864	,	0
33,33	,	73283	,	-15306	,	-12280	,	-35.986984	,	0
33,33	,	73299	,	-15316	,	-12287	,	-36.347843	,	0
33,33	,	73315	,	-15318	,	-12280	,	-35.97371	,	0
33,33	,	73347	,	-15300	,	-12279	,	-34.910194	,	0
33,33	,	73363	,	-15219	,	-12244	,	-32.496895	,	1
33,33	,	73379	,	-15184	,	-12227	,	-27.171589	,	3
33,33	,	73411	,	-15158	,	-12222	,	-17.518087	,	8
33,33	,	73427	,	-15156	,	-12221	,	-3.6224632	,	17
33,34	,	73459	,	-15144	,	-12221	,	12.82031	,	30
33,34	,	73475	,	-15146	,	-12218	,	29.36475	,	46
33,34	,	73491	,	-15135	,	-12220	,	43.70773	,	62
33,34	,	73523	,	-15135	,	-12214	,	54.24516	,	76
33,34	,	73539	,	-15150	,	-12221	,	60.137985	,	86
33,34	,	73555	,	-15153	,	-12221	,	61.1009	,	90
33,34	,	73587	,	-15148	,	-12219	,	57.44668	,	88
33,34	,	73603	,	-15165	,	-12219	,	50.11496	,	83
33,34	,	73635	,	-15163	,	-12222	,	40.31557	,	74
33,34	,	73651	,	-15162	,	-12215	,	29.308432	,	61
33,34	,	73667	,	-15164	,	-12221	,	18.361773	,	45
33,34	,	73699	,	-15159	,	-12223	,	8.560774	,	29
33,34	,	73715	,	-15161	,	-12224	,	0.66071606	,	15
33,34	,	73731	,	-15163	,	-12229	,	-4.969947	,	5
33,34	,	73763	,	-15163	,	-12225	,	-8.362947	,	0
33,34	,	73779	,	-15172	,	-12228	,	-9.86974	,	0
33,34	,	73795	,	-15173	,	-12226	,	-10.051944	,	0
33,34	,	73827	,	-15177	,	-12229	,	-9.5044365	,	0
33,34	,	73843	,	-15198	,	-12235	,	-8.773397	,	0
33,34	,	73875	,	-15201	,	-12242	,	-8.413553	,	0
33,34	,	73891	,	-15218	,	-12246	,	-8.870167	,	0
33,34	,	73907	,	-15224	,	-12247	,	-10.325977	,	0
33,34	,	73939	,	-15234	,	-12253	,	-12.702585	,	0
33,34	,	73955	,	-15240	,	-12258	,	-15.712039	,	0
33,34	,	73971	,	-15253	,	-12261	,	-18.981592	,	0
33,34	,	74003	,	-15272	,	-12268	,	-22.246979	,	0
33,34	,	74019	,	-15271	,	-12261	,	-25.379707	,	0
33,34	,	74050	,	-15277	,	-12274	,	-28.167362	,	0
33,34	,	74067	,	-15276	,	-12270	,	-30.237917	,	0
33,34	,	74083	,	-15291	,	-12279	,	-31.29119	,	0
33,34	,	74115	,	-15301	,	-12287	,	-31.344204	,	0
33,34	,	74131	,	-15305	,	-12287	,	-30.692364	,	0
33,34	,	74147	,	-15282	,	-12272	,	-29.501186	,	0
33,34	,	74179	,	-15234	,	-12255	,	-27.293238	,	1
33,34	,	74195	,	-15199	,	-12236	,	-22.91486	,	3
33,34	,	74226	,	-15172	,	-12228	,	-15.280986	,	7
33,34	,	74243	,	-15159	,	-12222	,	-4.234709	,	14
33,34	,	74259	,	-15156	,	-12219	,	9.200876	,	25
33,34	,	74291	,	-15148	,	-12228	,	23.200348	,	38
33,34	,	74307	,	-15150	,	-12219	,	35.812065	,	51
33,34	,	74323	,	-15148	,	-12218	,	45.4774	,	63
33,34	,	74355	,	-15150	,	-12224	,	51.25781	,	72
33,34	,	74371	,	-15165	,	-12228	,	52.826073	,	76
33,34	,	74386	,	-15173	,	-12229	,	50.28939	,	75
33,34	,	74419	,	-15183	,	-12226	,	44.10937	,	71
33,34	,	74435	,	-15177	,	-12235	,	35.178856	,	64
33,35	,	74467	,	-15173	,	-12230	,	24.831955	,	53
33,35	,	74483	,	-15165	,	-12220	,	14.604055	,	40
33,35	,	74498	,	-15170	,	-12227	,	5.791298	,	27
33,35	,	74530	,	-15168	,	-12231	,	-0.88105774	,	15
33,35	,	74546	,	-15174	,	-12226	,	-5.272224	,	6
33,35	,	74562	,	-15179	,	-12232	,	-7.670476	,	1
33,35	,	74595	,	-15177	,	-12228	,	-8.5882015	,	0
33,35	,	74611	,	-15186	,	-12229	,	-8.550171	,	0
33,35	,	74643	,	-15199	,	-12236	,	-8.085905	,	0
33,35	,	74659	,	-15202	,	-12244	,	-7.752029	,	0
33,35	,	74675	,	-15215	,	-12238	,	-7.961	,	0
33,35	,	74706	,	-15220	,	-12241	,	-8.891011	,	0
33,35	,	74722	,	-15227	,	-12250	,	-10.512539	,	0
33,35	,	74738	,	-15231	,	-12249	,	-12.611426	,	0
33,35	,	74771	,	-15248	,	-12269	,	-14.931404	,	0
33,35	,	74787	,	-15254	,	-12251	,	-17.333965	,	0
33,35	,	74803	,	-15276	,	-12265	,	-19.805769	,	0
33,35	,	74834	,	-15282	,	-12272	,	-22.39636	,	0
33,35	,	74850	,	-15285	,	-12266	,	-25.056389	,	0
33,35	,	74882	,	-15284	,	-12276	,	-27.472952	,	0
33,35	,	74898	,	-15306	,	-12282	,	-29.26596	,	0
33,35	,	74915	,	-15290	,	-12274	,	-30.243345	,	0
33,35	,	74946	,	-15267	,	-12263	,	-30.118795	,	0
33,35	,	74962	,	-15218	,	-12240	,	-28.09784	,	0
33,35	,	74978	,	-15176	,	-12223	,	-23.005054	,	2
33,35	,	75010	,	-15159	,	-12228	,	-13.997359	,	7
33,35	,	75026	,	-15145	,	-12206	,	-1.3451958	,	16
33,35	,	75058	,	-15137	,	-12207	,	13.496969	,	28
33,35	,	75074	,	-15128	,	-12213	,	28.512266	,	42
33,35	,	75091	,	-15131	,	-12213	,	41.743618	,	57
33,35	,	75122	,	-15126	,	-12209	,	51.65889	,	70
33,35	,	75138	,	-15127	,	-12207	,	57.37947	,	79
33,35	,	75154	,	-15123	,	-12209	,	58.7601	,	84
33,35	,	75186	,	-15137	,	-12222	,	56.213745	,	83
33,35	,	75202	,	-15137	,	-12211	,	50.428112	,	78
33,35	,	75234	,	-15139	,	-12211	,	42.27133	,	69
33,35	,	75250	,	-15137	,	-12215	,	32.800873	,	57
33,35	,	75267	,	-15132	,	-12203	,	23.14685	,	43
33,35	,	75298	,	-15138	,	-12211	,	14.300137	,	28
33,35	,	75314	,	-15128	,	-12206	,	6.949257	,	15
33,35	,	75330	,	-15136	,	-12212	,	1.4548321	,	6
33,35	,	75362	,	-15135	,	-12210	,	-2.159203	,	1
33,35	,	75378	,	-15149	,	-12216	,	-4.216753	,	0
33,35	,	75394	,	-15155	,	-12217	,	-5.3009934	,	0
33,35	,	75426	,	-15158	,	-12216	,	-6.0288143	,	0
33,35	,	75442	,	-15162	,	-12226	,	-6.7880754	,	0
33,36	,	75474	,	-15172	,	-12229	,	-7.7213936	,	0
33,36	,	75490	,	-15190	,	-12226	,	-8.948224	,	0
33,36	,	75506	,	-15192	,	-12224	,	-10.643997	,	0
33,36	,	75538	,	-15201	,	-12231	,	-12.851825	,	0
33,36	,	75554	,	-15211	,	-12240	,	-15.411426	,	0
33,36	,	75570	,	-15223	,	-12251	,	-18.125088	,	0
33,36	,	75602	,	-15241	,	-12244	,	-20.893639	,	0
33,36	,	75618	,	-15242	,	-12245	,	-23.68394	,	0
33,36	,	75650	,	-15256	,	-12258	,	-26.380325	,	0
33,36	,	75666	,	-15264	,	-12252	,	-28.790886	,	0
33,36	,	75682	,	-15277	,	-12256	,	-30.790157	,	0
33,36	,	75714	,	-15273	,	-12271	,	-32.28382	,	0
33,36	,	75730	,	-15272	,	-12273	,	-33.047268	,	0
33,36	,	75746	,	-15247	,	-12244	,	-32.643288	,	0
33,36	,	75778	,	-15199	,	-12236	,	-30.313957	,	0
33,36	,	75794	,	-15123	,	-12209	,	-24.807701	,	2
33,36	,	75810	,	-15121	,	-12198	,	-14.885523	,	7
33,36	,	75842	,	-15111	,	-12195	,	-0.6385927	,	16
33,36	,	75858	,	-15100	,	-12198	,	16.108988	,	30
33,36	,	75890	,	-15094	,	-12193	,	32.842464	,	46
33,36	,	75906	,	-15096	,	-12192	,	47.296947	,	62
33,36	,	75922	,	-15097	,	-12191	,	57.77679	,	76
33,36	,	75954	,	-15098	,	-12192	,	63.32863	,	86
33,36	,	75970	,	-15086	,	-12197	,	63.887245	,	91
33,36	,	75986	,	-15096	,	-12187	,	60.185356	,	89
33,36	,	76018	,	-15110	,	-12194	,	53.25451	,	84
33,36	,	76034	,	-15105	,	-12194	,	44.056503	,	75
33,36	,	76066	,	-15101	,	-12197	,	33.642117	,	61
33,36	,	76082	,	-15096	,	-12191	,	23.23716	,	45
33,36	,	76098	,	-15105	,	-12201	,	13.914181	,	29
33,36	,	76130	,	-15112	,	-12194	,	6.239352	,	15
33,36	,	76146	,	-15112	,	-12196	,	0.27725983	,	5
33,36	,	76162	,	-15113	,	-12203	,	-4.1052246	,	0
33,36	,	76194	,	-15117	,	-12199	,	-7.0602565	,	0
33,36	,	76210	,	-15125	,	-12203	,	-8.827925	,	0
33,36	,	76226	,	-15128	,	-12207	,	-9.767455	,	0
33,36	,	76258	,	-15137	,	-12212	,	-10.256201	,	0
33,36	,	76274	,	-15158	,	-12215	,	-10.691536	,	0
33,36	,	76306	,	-15163	,	-12224	,	-11.524133	,	0
33,36	,	76322	,	-15168	,	-12227	,	-13.023914	,	0
33,36	,	76338	,	-15179	,	-12232	,	-15.107369	,	0
33,36	,	76370	,	-15192	,	-12236	,	-17.546242	,	0
33,36	,	76386	,	-15202	,	-12238	,	-20.17691	,	0
33,36	,	76402	,	-15208	,	-12243	,	-22.859724	,	0
33,36	,	76434	,	-15216	,	-12242	,	-25.389444	,	0
33,36	,	76450	,	-15216	,	-12247	,	-27.49152	,	0
33,37	,	76482	,	-15226	,	-12252	,	-28.891552	,	0
33,37	,	76498	,	-15234	,	-12248	,	-29.462849	,	0
33,37	,	76514	,	-15253	,	-12262	,	-29.359612	,	0
33,37	,	76546	,	-15257	,	-12254	,	-28.951023	,	0
33,37	,	76562	,	-15235	,	-12251	,	-28.412825	,	0
33,37	,	76578	,	-15188	,	-12233	,	-27.17883	,	0
33,37	,	76609	,	-15141	,	-12224	,	-23.877357	,	1
33,37	,	76626	,	-15120	,	-12211	,	-17.10477	,	4
33,37	,	76658	,	-15110	,	-12209	,	-6.499197	,	10
33,37	,	76674	,	-15098	,	-12198	,	6.906309	,	20
33,37	,	76690	,	-15094	,	-12198	,	21.236912	,	33
33,37	,	76722	,	-15089	,	-12208	,	34.502254	,	47
33,37	,	76738	,	-15092	,	-12194	,	45.05224	,	60
33,37	,	76754	,	-15083	,	-12192	,	51.839928	,	70
33,37	,	76786	,	-15088	,	-12193	,	54.541775	,	76
33,37	,	76802	,	-15098	,	-12196	,	53.381554	,	77
33,37	,	76818	,	-15108	,	-12199	,	48.813	,	74
33,37	,	76850	,	-15107	,	-12197	,	41.473885	,	68
33,37	,	76866	,	-15097	,	-12200	,	32.35991	,	58
33,37	,	76898	,	-15103	,	-12204	,	22.750723	,	45
33,37	,	76914	,	-15097	,	-12201	,	13.809973	,	31
33,37	,	76930	,	-15102	,	-12196	,	6.316395	,	18
33,37	,	76962	,	-15105	,	-12208	,	0.62494755	,	8
33,37	,	76978	,	-15102	,	-12203	,	-3.2730117	,	2
33,37	,	76993	,	-15115	,	-12208	,	-5.6286936	,	0
33,37	,	77026	,	-15123	,	-12217	,	-6.9104424	,	0
33,37	,	77042	,	-15122	,	-12217	,	-7.6727004	,	0
33,37	,	77074	,	-15136	,	-12220	,	-8.312059	,	0
33,37	,	77090	,	-15143	,	-12224	,	-9.093295	,	0
33,37	,	77106	,	-15162	,	-12223	,	-10.280746	,	0
33,37	,	77137	,	-15174	,	-12233	,	-12.12818	,	0
33,37	,	77153	,	-15172	,	-12238	,	-14.707903	,	0
33,37	,	77169	,	-15188	,	-12243	,	-17.767288	,	0
33,37	,	77202	,	-15202	,	-12258	,	-20.956938	,	0
33,37	,	77217	,	-15212	,	-12241	,	-24.087252	,	0
33,37	,	77234	,	-15224	,	-12254	,	-27.05208	,	0
33,37	,	77266	,	-15233	,	-12253	,	-29.728468	,	0
33,37	,	77282	,	-15236	,	-12258	,	-31.956406	,	0
33,37	,	77313	,	-15240	,	-12262	,	-33.514015	,	0
33,37	,	77330	,	-15258	,	-12266	,	-34.24489	,	0
33,37	,	77346	,	-15260	,	-12266	,	-34.220284	,	0
33,37	,	77378	,	-15267	,	-12278	,	-33.620045	,	0
33,37	,	77394	,	-15279	,	-12275	,	-32.598236	,	0
33,37	,	77409	,	-15277	,	-12277	,	-31.303001	,	1
33,37	,	77442	,	-15245	,	-12275	,	-29.62931	,	2
33,38	,	77457	,	-15199	,	-12229	,	-26.810074	,	3
33,38	,	77489	,	-15134	,	-12227	,	-21.42012	,	5
33,38	,	77505	,	-15128	,	-12212	,	-12.153704	,	10
33,38	,	77521	,	-15130	,	-12212	,	0.92229366	,	19
33,38	,	77554	,	-15120	,	-12216	,	16.046375	,	32
33,38	,	77570	,	-15120	,	-12215	,	30.79545	,	47
33,38	,	77586	,	-15126	,	-12213	,	43.039997	,	61
33,38	,	77618	,	-15129	,	-12213	,	51.258286	,	72
33,38	,	77633	,	-15130	,	-12210	,	54.716522	,	79
33,38	,	77665	,	-15135	,	-12220	,	53.520218	,	81
33,38	,	77681	,	-15143	,	-12230	,	48.387993	,	79
33,38	,	77697	,	-15153	,	-12217	,	40.317154	,	74
33,38	,	77729	,	-15142	,	-12220	,	30.44447	,	65
33,38	,	77746	,	-15142	,	-12231	,	20.082949	,	52
33,38	,	77761	,	-15138	,	-12215	,	10.534096	,	37
33,38	,	77793	,	-15142	,	-12221	,	2.7243242	,	23
33,38	,	77809	,	-15146	,	-12224	,	-2.957838	,	11
33,38	,	77825	,	-15142	,	-12218	,	-6.5644164	,	3
33,38	,	77857	,	-15152	,	-12221	,	-8.404845	,	0
33,38	,	77873	,	-15144	,	-12226	,	-8.910256	,	0
33,38	,	77905	,	-15165	,	-12228	,	-8.571213	,	0
33,38	,	77921	,	-15171	,	-12233	,	-7.9830008	,	0
33,38	,	77937	,	-15170	,	-12227	,	-7.7103453	,	0
33,38	,	77969	,	-15191	,	-12240	,	-8.053504	,	0
33,38	,	77985	,	-15205	,	-12242	,	-9.196079	,	0
33,38	,	78017	,	-15210	,	-12248	,	-11.288777	,	0
33,38	,	78033	,	-15222	,	-12257	,	-14.233141	,	0
33,38	,	78049	,	-15233	,	-12255	,	-17.703606	,	0
33,38	,	78081	,	-15244	,	-12259	,	-21.354227	,	0
33,38	,	78097	,	-15250	,	-12256	,	-24.875612	,	0
33,38	,	78113	,	-15256	,	-12263	,	-27.95985	,	0
33,38	,	78145	,	-15258	,	-12275	,	-30.300219	,	0
33,38	,	78161	,	-15266	,	-12282	,	-31.655087	,	0
33,38	,	78177	,	-15277	,	-12270	,	-31.9707	,	0
33,38	,	78209	,	-15287	,	-12282	,	-31.449461	,	0
33,38	,	78225	,	-15269	,	-12273	,	-30.322567	,	0
33,38	,	78241	,	-15235	,	-12254	,	-28.363052	,	1
33,38	,	78273	,	-15191	,	-12245	,	-24.677528	,	2
33,38	,	78289	,	-15164	,	-12232	,	-18.1679	,	5
33,38	,	78321	,	-15157	,	-12222	,	-8.398698	,	11
33,38	,	78337	,	-15147	,	-12228	,	3.890603	,	20
33,38	,	78353	,	-15146	,	-12226	,	17.07959	,	32
33,38	,	78385	,	-15151	,	-12228	,	29.282719	,	45
33,38	,	78401	,	-15150	,	-12232	,	38.830025	,	57
33,38	,	78417	,	-15151	,	-12224	,	44.65414	,	66
33,38	,	78449	,	-15162	,	-12223	,	46.408318	,	70
33,39	,	78465	,	-15171	,	-12229	,	44.267612	,	70
33,39	,	78497	,	-15182	,	-12235	,	38.744026	,	67
33,39	,	78513	,	-15182	,	-12238	,	30.648718	,	61
33,39	,	78529	,	-15173	,	-12236	,	21.132792	,	52
33,39	,	78561	,	-15174	,	-12230	,	11.581411	,	40
33,39	,	78577	,	-15179	,	-12238	,	3.1937923	,	27
33,39	,	78593	,	-15174	,	-12236	,	-3.344553	,	15
33,39	,	78625	,	-15170	,	-12232	,	-7.76868	,	6
33,39	,	78641	,	-15172	,	-12243	,	-10.072281	,	1
33,39	,	78657	,	-15183	,	-12233	,	-10.561483	,	0
33,39	,	78689	,	-15186	,	-12244	,	-9.869011	,	0
33,39	,	78705	,	-15199	,	-12245	,	-8.750119	,	0
33,39	,	78737	,	-15211	,	-12254	,	-7.9024553	,	1
33,39	,	78753	,	-15229	,	-12253	,	-7.9128623	,	1
33,39	,	78769	,	-15232	,	-12256	,	-9.139541	,	1
33,39	,	78801	,	-15245	,	-12263	,	-11.5610485	,	1
33,39	,	78817	,	-15255	,	-12263	,	-14.855618	,	1
33,39	,	78833	,	-15260	,	-12260	,	-18.599144	,	1
33,39	,	78865	,	-15270	,	-12272	,	-22.336666	,	1
33,39	,	78881	,	-15273	,	-12269	,	-25.63298	,	1
33,39	,	78913	,	-15287	,	-12280	,	-28.176624	,	1
33,39	,	78929	,	-15300	,	-12284	,	-29.899014	,	0
33,39	,	78945	,	-15308	,	-12291	,	-30.969467	,	0
33,39	,	78977	,	-15313	,	-12291	,	-31.582283	,	0
33,39	,	78993	,	-15312	,	-12292	,	-31.76353	,	0
33,39	,	79009	,	-15303	,	-12279	,	-31.314495	,	0
33,39	,	79041	,	-15258	,	-12267	,	-29.689558	,	0
33,39	,	79057	,	-15213	,	-12243	,	-25.852058	,	1
33,39	,	79089	,	-15190	,	-12237	,	-18.683155	,	4
33,39	,	79105	,	-15178	,	-12235	,	-7.896533	,	11
33,39	,	79121	,	-15161	,	-12232	,	5.581087	,	21
33,39	,	79153	,	-15162	,	-12236	,	20.041553	,	34
33,39	,	79169	,	-15154	,	-12221	,	33.566933	,	48
33,39	,	79185	,	-15153	,	-12221	,	44.498493	,	61
33,39	,	79217	,	-15154	,	-12227	,	51.757755	,	71
33,39	,	79233	,	-15155	,	-12226	,	54.896267	,	78
33,39	,	79249	,	-15162	,	-12227	,	54.002518	,	80
33,39	,	79281	,	-15170	,	-12234	,	49.553825	,	77
33,39	,	79297	,	-15175	,	-12230	,	42.28276	,	70
33,39	,	79329	,	-15172	,	-12228	,	33.15507	,	60
33,39	,	79345	,	-15171	,	-12227	,	23.332834	,	47
33,39	,	79361	,	-15167	,	-12231	,	13.9778595	,	33
33,39	,	79393	,	-15171	,	-12238	,	5.9866114	,	20
33,39	,	79409	,	-15167	,	-12231	,	-0.14867306	,	10
33,39	,	79425	,	-15183	,	-12236	,	-4.3611813	,	3
33,39	,	79457	,	-15183	,	-12234	,	-6.972833	,	0
33,40	,	79473	,	-15183	,	-12240	,	-8.447317	,	0
33,40	,	79505	,	-15195	,	-12236	,	-9.161064	,	0
33,40	,	79521	,	-15203	,	-12244	,	-9.49082	,	0
33,40	,	79537	,	-15207	,	-12242	,	-9.831581	,	0
33,40	,	79569	,	-15214	,	-12252	,	-10.425291	,	0
33,40	,	79584	,	-15227	,	-12257	,	-11.36511	,	0
33,40	,	79601	,	-15238	,	-12247	,	-12.730082	,	0
33,40	,	79633	,	-15250	,	-12273	,	-14.595739	,	0
33,40	,	79648	,	-15252	,	-12253	,	-16.91734	,	0
33,40	,	79664	,	-15272	,	-12263	,	-19.508846	,	0
33,40	,	79697	,	-15275	,	-12273	,	-22.183525	,	0
33,40	,	79712	,	-15292	,	-12273	,	-24.808796	,	0
33,40	,	79744	,	-15286	,	-12269	,	-27.21252	,	0
33,40	,	79761	,	-15314	,	-12274	,	-29.201164	,	0
33,40	,	79777	,	-15307	,	-12282	,	-30.697224	,	0
33,40	,	79809	,	-15297	,	-12278	,	-31.561724	,	0
33,40	,	79824	,	-15268	,	-12261	,	-31.247835	,	0
33,40	,	79841	,	-15219	,	-12239	,	-28.768349	,	0
33,40	,	79872	,	-15181	,	-12236	,	-22.962118	,	2
33,40	,	79888	,	-15165	,	-12222	,	-13.151493	,	7
33,40	,	79921	,	-15138	,	-12216	,	0.23597431	,	16
33,40	,	79937	,	-15138	,	-12205	,	15.746489	,	29
33,40	,	79953	,	-15133	,	-12209	,	31.34526	,	44
33,40	,	79985	,	-15126	,	-12202	,	44.955845	,	59
33,40	,	80001	,	-15123	,	-12204	,	55.035908	,	72
33,40	,	80016	,	-15126	,	-12202	,	60.791428	,	82
33,40	,	80049	,	-15123	,	-12201	,	62.081936	,	87
33,40	,	80064	,	-15135	,	-12206	,	59.2818	,	86
33,40	,	80080	,	-15139	,	-12206	,	53.08049	,	81
33,40	,	80113	,	-15136	,	-12217	,	44.387333	,	72
33,40	,	80129	,	-15131	,	-12203	,	34.36422	,	59
33,40	,	80160	,	-15132	,	-12211	,	24.266209	,	44
33,40	,	80176	,	-15133	,	-12215	,	15.116468	,	29
33,40	,	80193	,	-15136	,	-12209	,	7.5233593	,	16
33,40	,	80224	,	-15131	,	-12210	,	1.73701	,	6
33,40	,	80240	,	-15134	,	-12212	,	-2.2122402	,	1
33,40	,	80256	,	-15145	,	-12209	,	-4.5249557	,	0
33,40	,	80288	,	-15151	,	-12218	,	-5.6926823	,	0
33,40	,	80305	,	-15151	,	-12211	,	-6.2981634	,	0
33,40	,	80336	,	-15157	,	-12219	,	-6.731206	,	0
33,40	,	80352	,	-15162	,	-12224	,	-7.184375	,	0
33,40	,	80368	,	-15171	,	-12222	,	-7.7937016	,	0
33,40	,	80400	,	-15176	,	-12231	,	-8.671796	,	0
33,40	,	80416	,	-15203	,	-12237	,	-9.957192	,	0
33,40	,	80432	,	-15215	,	-12247	,	-11.912026	,	0
33,41	,	80464	,	-15215	,	-12241	,	-14.706839	,	0
33,41	,	80480	,	-15226	,	-12245	,	-18.107529	,	0
33,41	,	80496	,	-15231	,	-12254	,	-21.61816	,	0
33,41	,	80528	,	-15236	,	-12249	,	-24.766972	,	0
33,41	,	80544	,	-15250	,	-12252	,	-27.226482	,	0
33,41	,	80576	,	-15253	,	-12255	,	-28.883284	,	0
33,41	,	80592	,	-15263	,	-12262	,	-29.78025	,	0
33,41	,	80608	,	-15269	,	-12266	,	-30.016603	,	0
33,41	,	80640	,	-15240	,	-12251	,	-29.552074	,	0
33,41	,	80656	,	-15152	,	-12215	,	-27.574745	,	0
33,41	,	80672	,	-15123	,	-12206	,	-22.321749	,	1
33,41	,	80704	,	-15114	,	-12205	,	-12.469921	,	6
33,41	,	80720	,	-15093	,	-12199	,	1.509695	,	15
33,41	,	80752	,	-15094	,	-12197	,	17.696459	,	28
33,41	,	80768	,	-15095	,	-12184	,	33.64301	,	44
33,41	,	80784	,	-15083	,	-12190	,	47.06856	,	59
33,41	,	80816	,	-15082	,	-12182	,	56.476234	,	72
33,41	,	80833	,	-15086	,	-12188	,	61.27797	,	81
33,41	,	80848	,	-15082	,	-12188	,	61.540894	,	85
33,41	,	80880	,	-15080	,	-12184	,	57.87036	,	84
33,41	,	80896	,	-15086	,	-12184	,	51.25444	,	79
33,41	,	80928	,	-15086	,	-12190	,	42.761612	,	70
33,41	,	80944	,	-15092	,	-12192	,	33.371788	,	57
33,41	,	80960	,	-15095	,	-12186	,	23.92372	,	41
33,41	,	80992	,	-15080	,	-12181	,	15.151613	,	26
33,41	,	81008	,	-15093	,	-12187	,	7.7150335	,	13
33,41	,	81024	,	-15089	,	-12184	,	1.9934807	,	4
33,41	,	81056	,	-15086	,	-12194	,	-1.9787536	,	0
33,41	,	81072	,	-15088	,	-12187	,	-4.3218923	,	0
33,41	,	81088	,	-15096	,	-12193	,	-5.3063593	,	0
33,41	,	81120	,	-15103	,	-12186	,	-5.4188175	,	0
33,41	,	81136	,	-15120	,	-12199	,	-5.288433	,	0
33,41	,	81168	,	-15131	,	-12204	,	-5.568759	,	0
33,41	,	81184	,	-15135	,	-12214	,	-6.724292	,	0
33,41	,	81200	,	-15140	,	-12213	,	-8.809434	,	0
33,41	,	81232	,	-15153	,	-12217	,	-11.550812	,	0
33,41	,	81248	,	-15163	,	-12214	,	-14.635977	,	0
33,41	,	81264	,	-15171	,	-12221	,	-17.825123	,	0
33,41	,	81296	,	-15172	,	-12224	,	-20.861225	,	0
33,41	,	81312	,	-15192	,	-12229	,	-23.488926	,	0
33,41	,	81344	,	-15193	,	-12240	,	-25.60018	,	0
33,41	,	81360	,	-15202	,	-12227	,	-27.185625	,	0
33,41	,	81376	,	-15222	,	-12239	,	-28.280981	,	0
33,41	,	81408	,	-15219	,	-12245	,	-29.025162	,	0
33,41	,	81424	,	-15236	,	-12250	,	-29.537632	,	0
33,41	,	81440	,	-15230	,	-12243	,	-29.805916	,	0
33,42	,	81472	,	-15203	,	-12239	,	-29.541878	,	0
33,42	,	81488	,	-15148	,	-12215	,	-27.842838	,	0
33,42	,	81504	,	-15117	,	-12203	,	-23.307026	,	1
33,42	,	81536	,	-15098	,	-12190	,	-14.94534	,	5
33,42	,	81552	,	-15091	,	-12189	,	-3.0288525	,	13
33,42	,	81584	,	-15082	,	-12193	,	10.964794	,	24
33,42	,	81600	,	-15078	,	-12181	,	25.036657	,	37
33,42	,	81616	,	-15069	,	-12182	,	37.348503	,	51
33,42	,	81648	,	-15058	,	-12176	,	46.664497	,	63
33,42	,	81664	,	-15058	,	-12179	,	52.45754	,	72
33,42	,	81680	,	-15069	,	-12173	,	54.637375	,	77
33,42	,	81712	,	-15073	,	-12179	,	53.272213	,	78
33,42	,	81728	,	-15074	,	-12179	,	48.674377	,	74
33,42	,	81760	,	-15075	,	-12181	,	41.565582	,	66
33,42	,	81776	,	-15077	,	-12188	,	32.95851	,	55
33,42	,	81791	,	-15076	,	-12174	,	23.900665	,	42
33,42	,	81824	,	-15076	,	-12190	,	15.30802	,	28
33,42	,	81840	,	-15071	,	-12180	,	7.895214	,	16
33,42	,	81855	,	-15077	,	-12178	,	2.1134987	,	7
33,42	,	81888	,	-15081	,	-12179	,	-1.9430246	,	2
33,42	,	81904	,	-15084	,	-12177	,	-4.51562	,	0
33,42	,	81920	,	-15086	,	-12182	,	-5.9872174	,	0
33,42	,	81952	,	-15095	,	-12195	,	-6.74192	,	0
33,42	,	81968	,	-15098	,	-12196	,	-7.1459103	,	0
33,42	,	81999	,	-15110	,	-12203	,	-7.5284185	,	0
33,42	,	82016	,	-15121	,	-12199	,	-8.185858	,	0
33,42	,	82032	,	-15127	,	-12201	,	-9.3540125	,	0
33,42	,	82064	,	-15141	,	-12215	,	-11.121779	,	0
33,42	,	82080	,	-15148	,	-12210	,	-13.441463	,	0
33,42	,	82096	,	-15170	,	-12216	,	-16.227425	,	0
33,42	,	82127	,	-15179	,	-12224	,	-19.426168	,	0
33,42	,	82144	,	-15191	,	-12224	,	-22.950108	,	0
33,42	,	82176	,	-15188	,	-12237	,	-26.518017	,	0
33,42	,	82192	,	-15203	,	-12234	,	-29.67369	,	0
33,42	,	82208	,	-15200	,	-12236	,	-32.000156	,	0
33,42	,	82240	,	-15210	,	-12243	,	-33.243664	,	0
33,42	,	82256	,	-15214	,	-12245	,	-33.33808	,	0
33,42	,	82272	,	-15227	,	-12243	,	-32.44622	,	0
33,42	,	82304	,	-15234	,	-12253	,	-30.927547	,	0
33,42	,	82320	,	-15216	,	-12230	,	-29.067654	,	1
33,42	,	82351	,	-15134	,	-12215	,	-26.391144	,	2
33,42	,	82367	,	-15104	,	-12204	,	-21.360554	,	4
33,42	,	82383	,	-15093	,	-12197	,	-12.574358	,	9
33,42	,	82416	,	-15086	,	-12193	,	-0.19875813	,	17
33,42	,	82432	,	-15087	,	-12183	,	14.084727	,	29
33,42	,	82448	,	-15085	,	-12195	,	28.01017	,	43
33,43	,	82480	,	-15084	,	-12185	,	39.54099	,	56
33,43	,	82496	,	-15078	,	-12186	,	47.37299	,	67
33,43	,	82511	,	-15090	,	-12182	,	51.010727	,	73
33,43	,	82543	,	-15088	,	-12201	,	50.534454	,	75
33,43	,	82559	,	-15095	,	-12191	,	46.450207	,	73
33,43	,	82592	,	-15104	,	-12194	,	39.589718	,	68
33,43	,	82608	,	-15098	,	-12198	,	30.951258	,	60
33,43	,	82623	,	-15098	,	-12195	,	21.65078	,	48
33,43	,	82656	,	-15100	,	-12199	,	12.783392	,	34
33,43	,	82671	,	-15095	,	-12200	,	5.1737556	,	21
33,43	,	82687	,	-15103	,	-12194	,	-0.72012234	,	10
33,43	,	82719	,	-15099	,	-12196	,	-4.7926683	,	3
33,43	,	82735	,	-15108	,	-12198	,	-7.2156897	,	0
33,43	,	82767	,	-15115	,	-12208	,	-8.375314	,	0
33,43	,	82784	,	-15113	,	-12198	,	-8.764262	,	0
33,43	,	82800	,	-15121	,	-12195	,	-8.780771	,	0
33,43	,	82831	,	-15136	,	-12206	,	-8.749823	,	0
33,43	,	82847	,	-15136	,	-12216	,	-9.0092325	,	0
33,43	,	82863	,	-15153	,	-12219	,	-9.784321	,	0
33,43	,	82895	,	-15167	,	-12222	,	-11.197025	,	0
33,43	,	82911	,	-15174	,	-12226	,	-13.3356695	,	0
33,43	,	82927	,	-15179	,	-12228	,	-16.09653	,	0
33,43	,	82959	,	-15187	,	-12232	,	-19.128399	,	0
33,43	,	82975	,	-15197	,	-12239	,	-22.035957	,	0
33,43	,	83007	,	-15207	,	-12238	,	-24.564995	,	0
33,43	,	83023	,	-15207	,	-12242	,	-26.582565	,	0
33,43	,	83039	,	-15223	,	-12240	,	-27.99461	,	0
33,43	,	83071	,	-15229	,	-12256	,	-28.80774	,	0
33,43	,	83087	,	-15238	,	-12255	,	-29.149475	,	0
33,43	,	83103	,	-15226	,	-12253	,	-29.065302	,	0
33,43	,	83135	,	-15193	,	-12229	,	-28.192863	,	0
33,43	,	83151	,	-15154	,	-12214	,	-25.607162	,	0
33,43	,	83183	,	-15118	,	-12208	,	-20.165314	,	2
33,43	,	83199	,	-15105	,	-12204	,	-11.237669	,	7
33,43	,	83216	,	-15104	,	-12196	,	0.6752453	,	15
33,43	,	83247	,	-15101	,	-12197	,	13.967295	,	26
33,43	,	83263	,	-15100	,	-12197	,	26.607708	,	39
33,43	,	83279	,	-15073	,	-12169	,	36.98226	,	51
33,43	,	83311	,	-15062	,	-12163	,	44.41059	,	61
33,43	,	83327	,	-15070	,	-12159	,	48.907516	,	68
33,43	,	83343	,	-15074	,	-12163	,	50.54683	,	72
33,43	,	83375	,	-15079	,	-12166	,	49.314827	,	71
33,43	,	83392	,	-15080	,	-12165	,	45.38253	,	66
33,43	,	83423	,	-15069	,	-12161	,	39.318245	,	58
33,43	,	83439	,	-15067	,	-12162	,	32.083435	,	47
33,43	,	83455	,	-15058	,	-12160	,	24.766907	,	34
33,44	,	83487	,	-15063	,	-12163	,	18.242805	,	22
33,44	,	83503	,	-15070	,	-12162	,	12.925213	,	12
33,44	,	83519	,	-15072	,	-12163	,	8.759298	,	5
33,44	,	83551	,	-15074	,	-12159	,	5.488661	,	1
33,44	,	83567	,	-15083	,	-12162	,	2.8507805	,	0
33,44	,	83599	,	-15098	,	-12167	,	0.5226369	,	0
33,44	,	83615	,	-15094	,	-12168	,	-1.8380854	,	0
33,44	,	83631	,	-15103	,	-12177	,	-4.3585143	,	0
33,44	,	83663	,	-15119	,	-12178	,	-6.9934287	,	0
33,44	,	83679	,	-15122	,	-12177	,	-9.748095	,	0
33,44	,	83695	,	-15135	,	-12182	,	-12.627821	,	0
33,44	,	83727	,	-15141	,	-12187	,	-15.555828	,	0
33,44	,	83743	,	-15152	,	-12193	,	-18.418995	,	0
33,44	,	83759	,	-15164	,	-12207	,	-21.115232	,	0
33,44	,	83791	,	-15169	,	-12197	,	-23.571754	,	0
33,44	,	83807	,	-15188	,	-12211	,	-25.74292	,	0
33,44	,	83839	,	-15196	,	-12205	,	-27.657276	,	0
33,44	,	83855	,	-15203	,	-12208	,	-29.363426	,	0
33,44	,	83871	,	-15208	,	-12212	,	-30.79031	,	0
33,44	,	83903	,	-15187	,	-12210	,	-31.642256	,	0
33,44	,	83919	,	-15149	,	-12191	,	-31.188126	,	0
33,44	,	83935	,	-15107	,	-12175	,	-28.23114	,	0
33,44	,	83967	,	-15080	,	-12164	,	-21.648129	,	2
33,44	,	83983	,	-15064	,	-12161	,	-11.15308	,	8
33,44	,	84015	,	-15051	,	-12167	,	2.3897848	,	18
33,44	,	84031	,	-15057	,	-12148	,	17.220505	,	31
33,44	,	84047	,	-15046	,	-12150	,	31.218552	,	45
33,44	,	84079	,	-15049	,	-12148	,	42.545902	,	58
33,44	,	84095	,	-15042	,	-12149	,	50.07243	,	69
33,44	,	84111	,	-15054	,	-12153	,	53.38119	,	76
33,44	,	84143	,	-15052	,	-12152	,	52.586647	,	79
33,44	,	84159	,	-15069	,	-12152	,	48.17301	,	77
33,44	,	84191	,	-15071	,	-12159	,	40.867012	,	71
33,44	,	84207	,	-15057	,	-12158	,	31.670105	,	61
33,44	,	84223	,	-15060	,	-12154	,	21.898106	,	48
33,44	,	84255	,	-15053	,	-12170	,	12.852175	,	34
33,44	,	84271	,	-15063	,	-12142	,	5.407153	,	21
33,44	,	84287	,	-15074	,	-12154	,	-0.17154121	,	10
33,44	,	84319	,	-15072	,	-12159	,	-4.121835	,	3
33,44	,	84335	,	-15074	,	-12162	,	-6.7941756	,	0
33,44	,	84351	,	-15082	,	-12163	,	-8.458116	,	0
33,44	,	84383	,	-15096	,	-12169	,	-9.458571	,	0
33,44	,	84399	,	-15093	,	-12171	,	-10.219408	,	0
33,44	,	84430	,	-15097	,	-12175	,	-10.982189	,	0
33,44	,	84447	,	-15106	,	-12177	,	-11.759705	,	0
33,45	,	84462	,	-15120	,	-12182	,	-12.587643	,	0
33,45	,	84495	,	-15134	,	-12194	,	-13.656868	,	0
33,45	,	84511	,	-15133	,	-12187	,	-15.144051	,	0
33,45	,	84527	,	-15155	,	-12199	,	-17.043795	,	0
33,45	,	84559	,	-15156	,	-12203	,	-19.259338	,	0
33,45	,	84575	,	-15168	,	-12203	,	-21.656471	,	0
