Data recorded on Mon Jul 24 12-02-54 CAT 2017
Time: 12:3:1
Time		Millis		IR PPG		Red PPG		Filtered		SSF
3,10	,	17281	,	-20014	,	-16451	,	1.3208764	,	0
3,10	,	17296	,	-20003	,	-16458	,	0.9705966	,	0
3,10	,	17328	,	-20005	,	-16450	,	0.4305545	,	0
3,10	,	17344	,	-20018	,	-16459	,	-0.22789884	,	0
3,10	,	17360	,	-20020	,	-16464	,	-1.0483906	,	0
3,10	,	17393	,	-20011	,	-16462	,	-2.1002736	,	0
3,10	,	17409	,	-20020	,	-16460	,	-3.249257	,	0
3,10	,	17424	,	-20016	,	-16458	,	-4.285194	,	0
3,10	,	17456	,	-20028	,	-16458	,	-5.109778	,	0
3,10	,	17473	,	-20023	,	-16463	,	-5.7504234	,	0
3,10	,	17504	,	-20023	,	-16466	,	-6.233269	,	0
3,10	,	17520	,	-20027	,	-16466	,	-6.5096445	,	0
3,10	,	17536	,	-20026	,	-16474	,	-6.5544596	,	0
3,10	,	17569	,	-20037	,	-16459	,	-6.439189	,	0
3,10	,	17584	,	-20028	,	-16467	,	-6.282632	,	0
3,10	,	17600	,	-20032	,	-16462	,	-6.1157103	,	0
3,10	,	17632	,	-20018	,	-16475	,	-5.8084164	,	0
3,10	,	17648	,	-20000	,	-16454	,	-5.04994	,	0
3,10	,	17664	,	-19995	,	-16450	,	-3.4189541	,	0
3,10	,	17696	,	-19992	,	-16445	,	-0.71295524	,	1
3,10	,	17712	,	-19996	,	-16455	,	2.799744	,	3
3,10	,	17744	,	-19993	,	-16445	,	6.504842	,	6
3,10	,	17760	,	-19991	,	-16448	,	9.772198	,	9
3,10	,	17776	,	-19980	,	-16438	,	12.242337	,	12
3,10	,	17809	,	-19978	,	-16445	,	13.891912	,	14
3,10	,	17824	,	-19967	,	-16445	,	14.89547	,	15
3,10	,	17840	,	-19982	,	-16449	,	15.403129	,	16
3,10	,	17872	,	-19969	,	-16454	,	15.407755	,	16
3,10	,	17888	,	-19971	,	-16447	,	14.88688	,	15
3,10	,	17920	,	-19976	,	-16440	,	13.905472	,	13
3,10	,	17936	,	-19963	,	-16443	,	12.557837	,	10
3,10	,	17952	,	-19963	,	-16442	,	11.047942	,	7
3,10	,	17984	,	-19966	,	-16438	,	9.629023	,	4
3,10	,	18000	,	-19948	,	-16439	,	8.467691	,	2
3,10	,	18016	,	-19958	,	-16437	,	7.705789	,	1
3,10	,	18048	,	-19957	,	-16435	,	7.347413	,	0
3,10	,	18064	,	-19957	,	-16426	,	7.1690855	,	0
3,10	,	18080	,	-19966	,	-16439	,	6.8918843	,	0
3,10	,	18112	,	-19961	,	-16430	,	6.2993402	,	0
3,10	,	18128	,	-19962	,	-16433	,	5.3360224	,	0
3,10	,	18160	,	-19968	,	-16435	,	4.1074915	,	0
3,10	,	18176	,	-19974	,	-16426	,	2.6862588	,	0
3,10	,	18192	,	-19960	,	-16441	,	1.1288123	,	0
3,10	,	18224	,	-19975	,	-16437	,	-0.38866627	,	0
3,10	,	18240	,	-19965	,	-16431	,	-1.6948091	,	0
3,10	,	18256	,	-19978	,	-16436	,	-2.7406135	,	0
3,11	,	18288	,	-19968	,	-16437	,	-3.5390038	,	0
3,11	,	18304	,	-19965	,	-16439	,	-4.043078	,	0
3,11	,	18336	,	-19967	,	-16452	,	-4.1270523	,	0
3,11	,	18352	,	-19972	,	-16440	,	-3.7804332	,	0
3,11	,	18368	,	-19981	,	-16435	,	-3.2274714	,	0
3,11	,	18400	,	-19981	,	-16444	,	-2.802979	,	0
3,11	,	18416	,	-19986	,	-16449	,	-2.7475288	,	0
3,11	,	18432	,	-19988	,	-16434	,	-3.1238866	,	0
3,11	,	18464	,	-19988	,	-16440	,	-3.8548326	,	0
3,11	,	18480	,	-19984	,	-16445	,	-4.7361317	,	0
3,11	,	18496	,	-19986	,	-16442	,	-5.4876585	,	0
3,11	,	18528	,	-19985	,	-16446	,	-5.8918567	,	0
3,11	,	18544	,	-19986	,	-16451	,	-5.8700733	,	0
3,11	,	18576	,	-19986	,	-16440	,	-5.458364	,	0
3,11	,	18592	,	-19972	,	-16435	,	-4.6970234	,	0
3,11	,	18608	,	-19957	,	-16436	,	-3.4486578	,	0
3,11	,	18640	,	-19954	,	-16426	,	-1.4458241	,	1
3,11	,	18656	,	-19945	,	-16418	,	1.4063575	,	3
3,11	,	18672	,	-19937	,	-16420	,	4.934184	,	5
3,11	,	18704	,	-19936	,	-16421	,	8.804902	,	8
3,11	,	18720	,	-19940	,	-16426	,	12.539205	,	11
3,11	,	18752	,	-19936	,	-16430	,	15.576111	,	14
3,11	,	18768	,	-19929	,	-16414	,	17.534382	,	17
3,11	,	18784	,	-19926	,	-16418	,	18.378937	,	18
3,11	,	18816	,	-19931	,	-16405	,	18.266447	,	18
3,11	,	18832	,	-19920	,	-16411	,	17.371214	,	17
3,11	,	18848	,	-19928	,	-16416	,	15.901835	,	15
3,11	,	18880	,	-19920	,	-16409	,	14.081899	,	13
3,11	,	18896	,	-19920	,	-16414	,	12.124835	,	10
3,11	,	18912	,	-19921	,	-16414	,	10.229173	,	7
3,11	,	18944	,	-19917	,	-16424	,	8.515854	,	4
3,11	,	18960	,	-19924	,	-16405	,	7.0209637	,	1
3,11	,	18992	,	-19919	,	-16409	,	5.716946	,	0
3,11	,	19008	,	-19914	,	-16425	,	4.596754	,	0
3,11	,	19024	,	-19924	,	-16410	,	3.7040284	,	0
3,11	,	19056	,	-19916	,	-16408	,	3.0144403	,	0
3,11	,	19072	,	-19918	,	-16399	,	2.4680963	,	0
3,11	,	19088	,	-19922	,	-16400	,	2.0313966	,	0
3,11	,	19120	,	-19929	,	-16402	,	1.5949434	,	0
3,11	,	19136	,	-19930	,	-16412	,	0.9762465	,	0
3,11	,	19168	,	-19918	,	-16414	,	0.13219672	,	0
3,11	,	19184	,	-19925	,	-16406	,	-0.7374114	,	0
3,11	,	19200	,	-19930	,	-16420	,	-1.4394635	,	0
3,11	,	19232	,	-19922	,	-16420	,	-1.9530394	,	0
3,11	,	19248	,	-19925	,	-16430	,	-2.2640896	,	0
3,11	,	19264	,	-19939	,	-16407	,	-2.3913102	,	0
3,12	,	19296	,	-19940	,	-16422	,	-2.557248	,	0
3,12	,	19312	,	-19938	,	-16423	,	-2.99574	,	0
3,12	,	19343	,	-19942	,	-16416	,	-3.7034144	,	0
3,12	,	19359	,	-19927	,	-16412	,	-4.4643946	,	0
3,12	,	19375	,	-19939	,	-16413	,	-4.9772615	,	0
3,12	,	19408	,	-19950	,	-16433	,	-5.140783	,	0
3,12	,	19424	,	-19957	,	-16433	,	-5.2259884	,	0
3,12	,	19440	,	-19952	,	-16430	,	-5.5614767	,	0
3,12	,	19472	,	-19953	,	-16425	,	-6.1815815	,	0
3,12	,	19488	,	-19954	,	-16433	,	-6.8798285	,	0
3,12	,	19503	,	-19960	,	-16418	,	-7.4615116	,	0
3,12	,	19535	,	-19928	,	-16422	,	-7.7092495	,	0
3,12	,	19552	,	-19920	,	-16416	,	-7.1382065	,	0
3,12	,	19584	,	-19914	,	-16402	,	-5.2331786	,	0
3,12	,	19600	,	-19909	,	-16406	,	-1.9406707	,	1
3,12	,	19616	,	-19911	,	-16406	,	2.2936294	,	4
3,12	,	19647	,	-19902	,	-16397	,	6.801791	,	8
3,12	,	19663	,	-19901	,	-16395	,	10.973863	,	12
3,12	,	19679	,	-19885	,	-16392	,	14.445429	,	16
3,12	,	19711	,	-19891	,	-16399	,	17.097042	,	19
3,12	,	19727	,	-19893	,	-16390	,	18.843159	,	21
3,12	,	19760	,	-19893	,	-16387	,	19.516842	,	22
3,12	,	19776	,	-19891	,	-16389	,	19.045067	,	22
3,12	,	19792	,	-19888	,	-16392	,	17.58447	,	21
3,12	,	19823	,	-19874	,	-16377	,	15.518697	,	18
3,12	,	19839	,	-19872	,	-16394	,	13.391259	,	14
3,12	,	19855	,	-19878	,	-16389	,	11.629339	,	10
3,12	,	19887	,	-19868	,	-16393	,	10.334675	,	6
3,12	,	19903	,	-19867	,	-16392	,	9.462506	,	3
3,12	,	19919	,	-19872	,	-16391	,	8.943481	,	1
3,12	,	19952	,	-19877	,	-16390	,	8.563109	,	0
3,12	,	19967	,	-19872	,	-16381	,	8.034113	,	0
3,12	,	19999	,	-19863	,	-16380	,	7.2688446	,	0
3,12	,	20016	,	-19871	,	-16385	,	6.4118156	,	0
3,12	,	20032	,	-19877	,	-16384	,	5.546403	,	0
3,12	,	20064	,	-19874	,	-16382	,	4.579648	,	0
3,12	,	20079	,	-19887	,	-16387	,	3.4031165	,	0
3,12	,	20095	,	-19880	,	-16383	,	1.9724393	,	0
3,12	,	20127	,	-19873	,	-16389	,	0.4103005	,	0
3,12	,	20143	,	-19882	,	-16396	,	-0.99099576	,	0
3,12	,	20175	,	-19885	,	-16398	,	-2.065198	,	0
3,12	,	20191	,	-19893	,	-16382	,	-2.905073	,	0
3,12	,	20207	,	-19888	,	-16384	,	-3.669274	,	0
3,12	,	20239	,	-19889	,	-16398	,	-4.3785954	,	0
3,12	,	20255	,	-19903	,	-16387	,	-4.988209	,	0
3,12	,	20271	,	-19902	,	-16393	,	-5.585825	,	0
3,13	,	20303	,	-19896	,	-16400	,	-6.248871	,	0
3,13	,	20319	,	-19899	,	-16392	,	-6.8389196	,	0
3,13	,	20335	,	-19904	,	-16398	,	-7.181678	,	0
3,13	,	20367	,	-19900	,	-16396	,	-7.2408614	,	0
3,13	,	20383	,	-19903	,	-16400	,	-7.0342283	,	0
3,13	,	20415	,	-19913	,	-16411	,	-6.635748	,	0
3,13	,	20431	,	-19932	,	-16392	,	-6.3302736	,	0
3,13	,	20447	,	-19916	,	-16405	,	-6.4741497	,	0
3,13	,	20479	,	-19919	,	-16403	,	-7.067113	,	0
3,13	,	20495	,	-19908	,	-16398	,	-7.7053804	,	0
3,13	,	20511	,	-19894	,	-16387	,	-7.8516426	,	0
3,13	,	20543	,	-19891	,	-16384	,	-7.018179	,	0
3,13	,	20559	,	-19872	,	-16385	,	-4.9313097	,	0
3,13	,	20591	,	-19878	,	-16389	,	-1.6251342	,	2
3,13	,	20607	,	-19875	,	-16384	,	2.5007246	,	5
3,13	,	20623	,	-19869	,	-16387	,	6.7883334	,	9
3,13	,	20655	,	-19870	,	-16388	,	10.636706	,	13
3,13	,	20671	,	-19874	,	-16380	,	13.59691	,	16
3,13	,	20687	,	-19861	,	-16385	,	15.392372	,	18
3,13	,	20719	,	-19869	,	-16377	,	16.02983	,	19
3,13	,	20735	,	-19861	,	-16381	,	15.696892	,	19
3,13	,	20751	,	-19852	,	-16366	,	14.67433	,	19
3,13	,	20783	,	-19854	,	-16372	,	13.351457	,	17
3,13	,	20799	,	-19858	,	-16375	,	12.014973	,	14
3,13	,	20831	,	-19858	,	-16382	,	10.690479	,	10
3,13	,	20847	,	-19852	,	-16378	,	9.323734	,	6
3,13	,	20863	,	-19843	,	-16377	,	8.020388	,	3
3,13	,	20895	,	-19866	,	-16371	,	6.9195175	,	1
3,13	,	20911	,	-19855	,	-16374	,	5.9016023	,	0
3,13	,	20927	,	-19862	,	-16375	,	4.753302	,	0
3,13	,	20959	,	-19848	,	-16371	,	3.4938414	,	0
3,13	,	20975	,	-19874	,	-16373	,	2.247313	,	0
3,13	,	21007	,	-19868	,	-16381	,	0.94546723	,	0
3,13	,	21023	,	-19867	,	-16381	,	-0.5314189	,	0
3,13	,	21039	,	-19865	,	-16382	,	-2.0524478	,	0
3,13	,	21071	,	-19864	,	-16377	,	-3.332866	,	0
3,13	,	21087	,	-19865	,	-16380	,	-4.1624255	,	0
3,13	,	21103	,	-19876	,	-16391	,	-4.525989	,	0
3,13	,	21135	,	-19873	,	-16370	,	-4.6151247	,	0
3,13	,	21151	,	-19885	,	-16379	,	-4.685109	,	0
3,13	,	21183	,	-19885	,	-16380	,	-4.9422793	,	0
3,13	,	21199	,	-19886	,	-16383	,	-5.47286	,	0
3,13	,	21215	,	-19880	,	-16372	,	-6.157299	,	0
3,13	,	21247	,	-19887	,	-16377	,	-6.7524767	,	0
3,13	,	21263	,	-19897	,	-16379	,	-7.147708	,	0
3,14	,	21279	,	-19895	,	-16386	,	-7.4451694	,	0
3,14	,	21311	,	-19899	,	-16384	,	-7.7517242	,	0
3,14	,	21327	,	-19896	,	-16392	,	-8.03743	,	0
3,14	,	21343	,	-19896	,	-16387	,	-8.176065	,	0
3,14	,	21375	,	-19908	,	-16386	,	-8.087254	,	0
3,14	,	21391	,	-19905	,	-16389	,	-7.8583155	,	0
3,14	,	21423	,	-19899	,	-16380	,	-7.5828953	,	0
3,14	,	21439	,	-19882	,	-16378	,	-7.0994864	,	0
3,14	,	21455	,	-19883	,	-16382	,	-6.0546055	,	0
3,14	,	21487	,	-19867	,	-16375	,	-4.1846	,	1
3,14	,	21503	,	-19871	,	-16377	,	-1.4664485	,	2
3,14	,	21519	,	-19860	,	-16385	,	1.8736036	,	4
3,14	,	21551	,	-19864	,	-16376	,	5.433517	,	7
3,14	,	21567	,	-19865	,	-16371	,	8.735221	,	10
3,14	,	21599	,	-19873	,	-16365	,	11.280398	,	13
3,14	,	21615	,	-19858	,	-16363	,	12.727697	,	15
3,14	,	21631	,	-19863	,	-16369	,	13.088303	,	16
3,14	,	21662	,	-19867	,	-16374	,	12.57297	,	16
3,14	,	21678	,	-19862	,	-16369	,	11.363125	,	15
3,14	,	21694	,	-19863	,	-16365	,	9.662055	,	14
3,14	,	21727	,	-19864	,	-16370	,	7.722719	,	12
3,14	,	21743	,	-19861	,	-16363	,	5.770908	,	9
3,14	,	21759	,	-19859	,	-16373	,	4.0125756	,	6
3,14	,	21791	,	-19859	,	-16372	,	2.6189232	,	3
3,14	,	21807	,	-19842	,	-16381	,	1.7390673	,	1
3,14	,	21838	,	-19857	,	-16369	,	1.5069875	,	0
3,14	,	21855	,	-19870	,	-16373	,	1.7626163	,	0
3,14	,	21871	,	-19864	,	-16368	,	1.9958951	,	0
3,14	,	21903	,	-19874	,	-16375	,	1.7953265	,	0
3,14	,	21919	,	-19869	,	-16365	,	1.0634067	,	0
3,14	,	21935	,	-19871	,	-16380	,	-0.07396257	,	0
3,14	,	21967	,	-19878	,	-16364	,	-1.3991394	,	0
3,14	,	21982	,	-19870	,	-16375	,	-2.7349021	,	0
3,14	,	22014	,	-19876	,	-16373	,	-3.9171913	,	0
3,14	,	22030	,	-19883	,	-16375	,	-4.833206	,	0
3,14	,	22047	,	-19882	,	-16368	,	-5.519097	,	0
3,14	,	22079	,	-19884	,	-16374	,	-6.0454965	,	0
3,14	,	22095	,	-19890	,	-16376	,	-6.44022	,	0
3,14	,	22110	,	-19882	,	-16374	,	-6.715021	,	0
3,14	,	22143	,	-19897	,	-16380	,	-6.8679724	,	0
3,14	,	22159	,	-19898	,	-16381	,	-6.9763155	,	0
3,14	,	22175	,	-19898	,	-16382	,	-7.170245	,	0
3,14	,	22207	,	-19901	,	-16386	,	-7.45984	,	0
3,14	,	22223	,	-19906	,	-16384	,	-7.773875	,	0
3,14	,	22255	,	-19911	,	-16380	,	-8.095961	,	0
3,14	,	22270	,	-19899	,	-16400	,	-8.39473	,	0
3,15	,	22286	,	-19905	,	-16386	,	-8.500841	,	0
3,15	,	22318	,	-19923	,	-16388	,	-8.3281765	,	0
3,15	,	22335	,	-19910	,	-16384	,	-8.058903	,	0
3,15	,	22351	,	-19907	,	-16394	,	-7.7965717	,	0
3,15	,	22382	,	-19899	,	-16377	,	-7.3412943	,	0
3,15	,	22398	,	-19894	,	-16381	,	-6.407732	,	0
3,15	,	22431	,	-19885	,	-16379	,	-4.8025227	,	0
3,15	,	22447	,	-19883	,	-16375	,	-2.4835443	,	1
3,15	,	22462	,	-19883	,	-16382	,	0.3711872	,	3
3,15	,	22494	,	-19873	,	-16376	,	3.4212842	,	5
3,15	,	22510	,	-19879	,	-16381	,	6.3271337	,	8
3,15	,	22526	,	-19872	,	-16384	,	8.7976675	,	10
3,15	,	22558	,	-19880	,	-16380	,	10.590441	,	12
3,15	,	22574	,	-19875	,	-16377	,	11.540824	,	13
3,15	,	22591	,	-19874	,	-16372	,	11.616104	,	13
3,15	,	22622	,	-19872	,	-16385	,	10.964993	,	13
3,15	,	22638	,	-19870	,	-16378	,	9.8462715	,	12
3,15	,	22670	,	-19866	,	-16382	,	8.531803	,	10
3,15	,	22686	,	-19870	,	-16376	,	7.2387233	,	8
3,15	,	22702	,	-19865	,	-16373	,	6.0808015	,	5
3,15	,	22734	,	-19872	,	-16379	,	5.087861	,	3
3,15	,	22750	,	-19875	,	-16365	,	4.20057	,	1
3,15	,	22766	,	-19872	,	-16365	,	3.306022	,	0
3,15	,	22798	,	-19865	,	-16375	,	2.4056432	,	0
3,15	,	22814	,	-19877	,	-16377	,	1.6063678	,	0
3,15	,	22846	,	-19870	,	-16379	,	0.92792654	,	0
3,15	,	22862	,	-19881	,	-16374	,	0.29286563	,	0
3,15	,	22878	,	-19878	,	-16371	,	-0.38097125	,	0
3,15	,	22910	,	-19881	,	-16389	,	-1.1278645	,	0
3,15	,	22926	,	-19884	,	-16380	,	-1.9179207	,	0
3,15	,	22942	,	-19881	,	-16381	,	-2.6894407	,	0
3,15	,	22974	,	-19892	,	-16388	,	-3.3927536	,	0
3,15	,	22990	,	-19892	,	-16373	,	-4.061563	,	0
3,15	,	23006	,	-19893	,	-16383	,	-4.7637553	,	0
3,15	,	23038	,	-19892	,	-16385	,	-5.4605227	,	0
3,15	,	23054	,	-19895	,	-16392	,	-6.027091	,	0
3,15	,	23086	,	-19901	,	-16384	,	-6.397561	,	0
3,15	,	23102	,	-19903	,	-16396	,	-6.638432	,	0
3,15	,	23118	,	-19911	,	-16391	,	-6.885846	,	0
3,15	,	23150	,	-19905	,	-16384	,	-7.2261777	,	0
3,15	,	23166	,	-19912	,	-16405	,	-7.6179	,	0
3,15	,	23182	,	-19919	,	-16389	,	-7.9891186	,	0
3,15	,	23214	,	-19914	,	-16386	,	-8.333255	,	0
3,15	,	23230	,	-19931	,	-16400	,	-8.668331	,	0
3,15	,	23262	,	-19938	,	-16401	,	-9.115787	,	0
3,16	,	23278	,	-19931	,	-16398	,	-9.827936	,	0
3,16	,	23294	,	-19940	,	-16393	,	-10.725851	,	0
3,16	,	23326	,	-19931	,	-16402	,	-11.547274	,	0
3,16	,	23342	,	-19921	,	-16404	,	-11.950958	,	0
3,16	,	23358	,	-19913	,	-16399	,	-11.517735	,	0
3,16	,	23390	,	-19900	,	-16386	,	-9.898479	,	0
3,16	,	23410	,	-19894	,	-16382	,	-6.9615517	,	1
3,16	,	23422	,	-19896	,	-16397	,	-2.8991532	,	3
3,16	,	23454	,	-19889	,	-16373	,	1.7561264	,	7
3,16	,	23470	,	-19905	,	-16380	,	6.2845373	,	11
3,16	,	23502	,	-19896	,	-16372	,	9.956703	,	15
3,16	,	23518	,	-19901	,	-16383	,	12.27891	,	18
3,16	,	23534	,	-19884	,	-16378	,	13.212969	,	20
3,16	,	23566	,	-19885	,	-16380	,	13.127346	,	20
3,16	,	23582	,	-19890	,	-16388	,	12.462194	,	20
3,16	,	23598	,	-19883	,	-16382	,	11.458746	,	19
3,16	,	23630	,	-19875	,	-16373	,	10.300462	,	17
3,16	,	23646	,	-19901	,	-16380	,	9.134375	,	13
3,16	,	23678	,	-19882	,	-16373	,	7.8710556	,	9
3,16	,	23694	,	-19884	,	-16374	,	6.443652	,	5
3,16	,	23710	,	-19889	,	-16370	,	5.0083666	,	2
3,16	,	23742	,	-19886	,	-16379	,	3.69041	,	0
3,16	,	23758	,	-19884	,	-16378	,	2.5343585	,	0
3,16	,	23774	,	-19887	,	-16379	,	1.5946424	,	0
3,16	,	23806	,	-19895	,	-16375	,	0.8456764	,	0
3,16	,	23822	,	-19886	,	-16384	,	0.17936671	,	0
3,16	,	23838	,	-19894	,	-16376	,	-0.44958204	,	0
3,16	,	23870	,	-19886	,	-16378	,	-0.9975139	,	0
3,16	,	23886	,	-19886	,	-16380	,	-1.3802624	,	0
3,16	,	23918	,	-19899	,	-16376	,	-1.5695341	,	0
3,16	,	23934	,	-19903	,	-16383	,	-1.7415513	,	0
3,16	,	23950	,	-19902	,	-16380	,	-2.1469119	,	0
3,16	,	23982	,	-19898	,	-16378	,	-2.8219185	,	0
3,16	,	23998	,	-19908	,	-16383	,	-3.609531	,	0
3,16	,	24014	,	-19899	,	-16369	,	-4.3568864	,	0
3,16	,	24046	,	-19911	,	-16389	,	-4.966655	,	0
3,16	,	24062	,	-19907	,	-16384	,	-5.4044776	,	0
3,16	,	24094	,	-19913	,	-16389	,	-5.697011	,	0
3,16	,	24110	,	-19907	,	-16382	,	-5.857605	,	0
3,16	,	24126	,	-19905	,	-16398	,	-5.8240833	,	0
3,16	,	24158	,	-19925	,	-16377	,	-5.5805826	,	0
3,16	,	24174	,	-19915	,	-16389	,	-5.3137655	,	0
3,16	,	24190	,	-19926	,	-16388	,	-5.235286	,	0
3,16	,	24222	,	-19934	,	-16386	,	-5.4570065	,	0
3,16	,	24238	,	-19935	,	-16395	,	-6.0777903	,	0
3,16	,	24254	,	-19941	,	-16391	,	-7.1060343	,	0
3,17	,	24286	,	-19929	,	-16395	,	-8.346973	,	0
3,17	,	24302	,	-19925	,	-16389	,	-9.385316	,	0
3,17	,	24334	,	-19920	,	-16383	,	-9.732831	,	0
3,17	,	24350	,	-19905	,	-16392	,	-9.037661	,	0
3,17	,	24366	,	-19911	,	-16377	,	-7.1732407	,	0
3,17	,	24398	,	-19903	,	-16378	,	-4.318646	,	1
3,17	,	24414	,	-19901	,	-16383	,	-0.88724184	,	3
3,17	,	24430	,	-19892	,	-16370	,	2.7071586	,	6
3,17	,	24462	,	-19893	,	-16377	,	6.147707	,	9
3,17	,	24478	,	-19892	,	-16385	,	9.154206	,	12
3,17	,	24510	,	-19901	,	-16378	,	11.4115095	,	15
3,17	,	24526	,	-19891	,	-16382	,	12.65456	,	17
3,17	,	24541	,	-19890	,	-16367	,	12.870764	,	18
3,17	,	24574	,	-19893	,	-16373	,	12.273445	,	18
3,17	,	24590	,	-19891	,	-16387	,	11.0893	,	17
3,17	,	24606	,	-19881	,	-16368	,	9.565934	,	15
3,17	,	24638	,	-19889	,	-16379	,	8.014013	,	12
3,17	,	24654	,	-19892	,	-16377	,	6.600241	,	9
3,17	,	24670	,	-19882	,	-16375	,	5.322516	,	6
3,17	,	24702	,	-19884	,	-16367	,	4.236691	,	3
3,17	,	24717	,	-19887	,	-16376	,	3.4231045	,	1
3,17	,	24750	,	-19890	,	-16360	,	2.8204372	,	0
3,17	,	24766	,	-19885	,	-16385	,	2.2990673	,	0
3,17	,	24782	,	-19902	,	-16373	,	1.736055	,	0
3,17	,	24814	,	-19894	,	-16373	,	0.97912645	,	0
3,17	,	24830	,	-19890	,	-16377	,	0.0066787004	,	0
3,17	,	24845	,	-19898	,	-16362	,	-0.9925153	,	0
3,17	,	24877	,	-19904	,	-16381	,	-1.9012642	,	0
3,17	,	24893	,	-19896	,	-16385	,	-2.7508528	,	0
3,17	,	24925	,	-19910	,	-16389	,	-3.5493078	,	0
3,17	,	24941	,	-19899	,	-16384	,	-4.2741613	,	0
3,17	,	24958	,	-19907	,	-16386	,	-4.87191	,	0
3,17	,	24990	,	-19911	,	-16379	,	-5.2895885	,	0
3,17	,	25005	,	-19916	,	-16394	,	-5.5948696	,	0
3,17	,	25021	,	-19901	,	-16382	,	-5.8467984	,	0
3,17	,	25053	,	-19916	,	-16386	,	-5.9449663	,	0
3,17	,	25069	,	-19915	,	-16385	,	-5.832929	,	0
3,17	,	25086	,	-19915	,	-16392	,	-5.606789	,	0
3,17	,	25117	,	-19931	,	-16388	,	-5.413206	,	0
3,17	,	25134	,	-19916	,	-16399	,	-5.397852	,	0
3,17	,	25165	,	-19928	,	-16386	,	-5.57391	,	0
3,17	,	25181	,	-19932	,	-16391	,	-5.8639727	,	0
3,17	,	25197	,	-19941	,	-16397	,	-6.3094225	,	0
3,17	,	25229	,	-19934	,	-16394	,	-6.975211	,	0
3,17	,	25245	,	-19935	,	-16392	,	-7.73145	,	0
3,17	,	25261	,	-19912	,	-16390	,	-8.204777	,	0
3,18	,	25293	,	-19910	,	-16393	,	-7.8812394	,	0
3,18	,	25309	,	-19903	,	-16377	,	-6.389944	,	0
3,18	,	25341	,	-19897	,	-16388	,	-3.7282014	,	1
3,18	,	25357	,	-19909	,	-16377	,	-0.26471186	,	3
3,18	,	25373	,	-19893	,	-16388	,	3.3950741	,	6
3,18	,	25405	,	-19902	,	-16383	,	6.6973786	,	9
3,18	,	25421	,	-19901	,	-16375	,	9.2544985	,	12
3,18	,	25437	,	-19892	,	-16382	,	10.836983	,	14
3,18	,	25469	,	-19886	,	-16377	,	11.523977	,	15
3,18	,	25485	,	-19884	,	-16381	,	11.635504	,	15
3,18	,	25517	,	-19891	,	-16383	,	11.416092	,	15
3,18	,	25534	,	-19885	,	-16381	,	10.910229	,	14
3,18	,	25549	,	-19891	,	-16375	,	10.094887	,	12
3,18	,	25581	,	-19876	,	-16380	,	9.041434	,	9
3,18	,	25597	,	-19873	,	-16381	,	7.995031	,	6
3,18	,	25613	,	-19873	,	-16375	,	7.246879	,	3
3,18	,	25645	,	-19882	,	-16378	,	6.8557343	,	1
3,18	,	25661	,	-19872	,	-16373	,	6.637842	,	0
3,18	,	25677	,	-19875	,	-16380	,	6.4267106	,	0
3,18	,	25709	,	-19882	,	-16372	,	6.121976	,	0
3,18	,	25725	,	-19875	,	-16369	,	5.605585	,	0
3,18	,	25758	,	-19880	,	-16380	,	4.841517	,	0
3,18	,	25773	,	-19894	,	-16364	,	3.8334684	,	0
3,18	,	25789	,	-19892	,	-16376	,	2.475242	,	0
3,18	,	25821	,	-19893	,	-16376	,	0.71731997	,	0
3,18	,	25837	,	-19888	,	-16388	,	-1.2390598	,	0
3,18	,	25869	,	-19890	,	-16396	,	-3.0416536	,	0
3,18	,	25885	,	-19900	,	-16380	,	-4.446819	,	0
3,18	,	25901	,	-19896	,	-16387	,	-5.448778	,	0
3,18	,	25933	,	-19894	,	-16385	,	-6.098409	,	0
3,18	,	25949	,	-19908	,	-16389	,	-6.411441	,	0
3,18	,	25965	,	-19900	,	-16384	,	-6.4957995	,	0
3,18	,	25997	,	-19902	,	-16401	,	-6.454228	,	0
3,18	,	26013	,	-19912	,	-16389	,	-6.312212	,	0
3,18	,	26029	,	-19907	,	-16391	,	-6.147385	,	0
3,18	,	26061	,	-19915	,	-16398	,	-6.044877	,	0
3,18	,	26077	,	-19919	,	-16407	,	-6.0566187	,	0
3,18	,	26109	,	-19927	,	-16398	,	-6.2810955	,	0
3,18	,	26125	,	-19916	,	-16403	,	-6.7601633	,	0
3,18	,	26141	,	-19926	,	-16405	,	-7.3448415	,	0
3,18	,	26173	,	-19935	,	-16398	,	-7.8911133	,	0
3,18	,	26189	,	-19926	,	-16408	,	-8.402497	,	0
3,18	,	26205	,	-19922	,	-16395	,	-8.781896	,	0
3,18	,	26237	,	-19915	,	-16396	,	-8.735806	,	0
3,18	,	26253	,	-19906	,	-16395	,	-7.961405	,	0
3,19	,	26285	,	-19899	,	-16386	,	-6.2628474	,	0
3,19	,	26301	,	-19875	,	-16400	,	-3.5307994	,	1
3,19	,	26317	,	-19882	,	-16391	,	0.24338746	,	3
3,19	,	26349	,	-19883	,	-16388	,	4.722851	,	6
3,19	,	26365	,	-19871	,	-16385	,	9.229427	,	10
3,19	,	26381	,	-19872	,	-16388	,	13.177998	,	14
3,19	,	26413	,	-19875	,	-16384	,	16.206457	,	17
3,19	,	26429	,	-19872	,	-16402	,	18.043755	,	20
3,19	,	26445	,	-19881	,	-16367	,	18.540384	,	21
3,19	,	26477	,	-19875	,	-16377	,	17.71555	,	21
3,19	,	26493	,	-19877	,	-16378	,	15.780914	,	20
3,19	,	26525	,	-19863	,	-16382	,	13.171204	,	18
3,19	,	26541	,	-19869	,	-16383	,	10.4441185	,	15
3,19	,	26557	,	-19867	,	-16381	,	8.018912	,	11
3,19	,	26589	,	-19868	,	-16382	,	6.04428	,	7
3,19	,	26605	,	-19867	,	-16380	,	4.5165977	,	4
3,19	,	26621	,	-19856	,	-16384	,	3.4358788	,	1
3,19	,	26653	,	-19854	,	-16387	,	2.8864546	,	0
3,19	,	26669	,	-19862	,	-16391	,	2.8993564	,	0
3,19	,	26701	,	-19861	,	-16379	,	3.2636948	,	0
3,19	,	26717	,	-19852	,	-16382	,	3.6941364	,	0
3,19	,	26733	,	-19868	,	-16383	,	4.023091	,	0
3,19	,	26764	,	-19866	,	-16385	,	4.073164	,	0
3,19	,	26781	,	-19868	,	-16389	,	3.6621327	,	0
3,19	,	26797	,	-19871	,	-16384	,	2.7693734	,	0
3,19	,	26829	,	-19871	,	-16392	,	1.5109593	,	0
3,19	,	26845	,	-19876	,	-16386	,	0.045258522	,	0
3,19	,	26861	,	-19869	,	-16391	,	-1.4507151	,	0
3,19	,	26893	,	-19871	,	-16397	,	-2.7602637	,	0
3,19	,	26909	,	-19873	,	-16391	,	-3.6896384	,	0
3,19	,	26941	,	-19883	,	-16393	,	-4.224199	,	0
3,19	,	26957	,	-19884	,	-16392	,	-4.5509205	,	0
3,19	,	26973	,	-19877	,	-16387	,	-4.8441005	,	0
3,19	,	27005	,	-19887	,	-16392	,	-5.1093655	,	0
3,19	,	27021	,	-19895	,	-16401	,	-5.3587017	,	0
3,19	,	27037	,	-19887	,	-16402	,	-5.690517	,	0
3,19	,	27069	,	-19890	,	-16406	,	-6.0761237	,	0
3,19	,	27085	,	-19898	,	-16389	,	-6.392342	,	0
3,19	,	27117	,	-19909	,	-16403	,	-6.686674	,	0
3,19	,	27133	,	-19908	,	-16414	,	-7.1551237	,	0
3,19	,	27149	,	-19903	,	-16391	,	-7.845003	,	0
3,19	,	27181	,	-19911	,	-16405	,	-8.565051	,	0
3,19	,	27197	,	-19904	,	-16399	,	-9.087502	,	0
3,19	,	27213	,	-19896	,	-16391	,	-9.201746	,	0
3,19	,	27245	,	-19896	,	-16389	,	-8.678474	,	0
3,19	,	27261	,	-19879	,	-16389	,	-7.353566	,	0
3,19	,	27277	,	-19869	,	-16392	,	-5.1062646	,	1
3,20	,	27308	,	-19873	,	-16389	,	-1.9223318	,	3
3,20	,	27324	,	-19862	,	-16388	,	1.9206295	,	6
3,20	,	27357	,	-19862	,	-16385	,	5.961028	,	9
3,20	,	27373	,	-19863	,	-16375	,	9.726286	,	13
3,20	,	27389	,	-19855	,	-16375	,	12.792397	,	16
3,20	,	27421	,	-19859	,	-16380	,	14.898272	,	19
3,20	,	27436	,	-19857	,	-16381	,	15.947755	,	21
3,20	,	27452	,	-19851	,	-16377	,	15.979895	,	22
3,20	,	27484	,	-19845	,	-16381	,	15.237784	,	21
3,20	,	27501	,	-19858	,	-16377	,	14.031084	,	19
3,20	,	27533	,	-19854	,	-16375	,	12.486881	,	16
3,20	,	27549	,	-19841	,	-16368	,	10.684591	,	13
3,20	,	27565	,	-19846	,	-16369	,	8.885197	,	9
3,20	,	27596	,	-19841	,	-16373	,	7.360071	,	6
3,20	,	27612	,	-19836	,	-16361	,	6.240531	,	3
3,20	,	27629	,	-19836	,	-16376	,	5.5857263	,	1
3,20	,	27661	,	-19839	,	-16377	,	5.3453946	,	0
3,20	,	27676	,	-19851	,	-16372	,	5.2680435	,	0
3,20	,	27692	,	-19853	,	-16366	,	4.9567695	,	0
3,20	,	27725	,	-19845	,	-16378	,	4.1463833	,	0
3,20	,	27741	,	-19848	,	-16372	,	2.9235315	,	0
3,20	,	27772	,	-19858	,	-16387	,	1.5207853	,	0
3,20	,	27788	,	-19852	,	-16371	,	0.05717957	,	0
3,20	,	27804	,	-19858	,	-16377	,	-1.3833578	,	0
3,20	,	27836	,	-19849	,	-16389	,	-2.6537397	,	0
3,20	,	27852	,	-19862	,	-16379	,	-3.624673	,	0
3,20	,	27868	,	-19869	,	-16392	,	-4.3435745	,	0
3,20	,	27900	,	-19872	,	-16388	,	-5.0362477	,	0
3,20	,	27916	,	-19871	,	-16393	,	-5.8586416	,	0
3,20	,	27949	,	-19875	,	-16385	,	-6.767359	,	0
3,20	,	27965	,	-19873	,	-16386	,	-7.615489	,	0
3,20	,	27980	,	-19876	,	-16389	,	-8.246123	,	0
3,20	,	28012	,	-19888	,	-16385	,	-8.610911	,	0
3,20	,	28028	,	-19885	,	-16390	,	-8.830453	,	0
3,20	,	28044	,	-19884	,	-16403	,	-8.998056	,	0
3,20	,	28076	,	-19882	,	-16383	,	-9.022409	,	0
3,20	,	28092	,	-19888	,	-16396	,	-8.775938	,	0
3,20	,	28108	,	-19895	,	-16402	,	-8.299966	,	0
3,20	,	28140	,	-19895	,	-16402	,	-7.7874894	,	0
3,20	,	28156	,	-19886	,	-16394	,	-7.3452396	,	0
3,20	,	28188	,	-19881	,	-16392	,	-6.8271513	,	0
3,20	,	28204	,	-19871	,	-16389	,	-5.930875	,	0
3,20	,	28220	,	-19863	,	-16390	,	-4.3782296	,	0
3,20	,	28252	,	-19861	,	-16386	,	-2.05892	,	1
3,20	,	28268	,	-19855	,	-16387	,	0.8861182	,	3
3,21	,	28284	,	-19858	,	-16387	,	4.1136165	,	5
3,21	,	28316	,	-19850	,	-16378	,	7.2082777	,	8
3,21	,	28332	,	-19837	,	-16388	,	9.891859	,	11
3,21	,	28364	,	-19845	,	-16385	,	12.09596	,	13
3,21	,	28380	,	-19848	,	-16381	,	13.705393	,	15
3,21	,	28396	,	-19844	,	-16377	,	14.483817	,	16
3,21	,	28428	,	-19845	,	-16387	,	14.330523	,	16
3,21	,	28444	,	-19835	,	-16383	,	13.405563	,	15
3,21	,	28460	,	-19829	,	-16379	,	12.082199	,	13
3,21	,	28492	,	-19843	,	-16381	,	10.723406	,	11
3,21	,	28508	,	-19830	,	-16383	,	9.448285	,	8
3,21	,	28540	,	-19835	,	-16377	,	8.259991	,	5
3,21	,	28556	,	-19834	,	-16384	,	7.1794057	,	3
3,21	,	28572	,	-19838	,	-16385	,	6.166765	,	1
3,21	,	28604	,	-19843	,	-16377	,	5.1148825	,	0
3,21	,	28620	,	-19837	,	-16389	,	3.939806	,	0
3,21	,	28636	,	-19840	,	-16373	,	2.678373	,	0
3,21	,	28668	,	-19851	,	-16384	,	1.4013314	,	0
3,21	,	28684	,	-19842	,	-16388	,	0.09845233	,	0
3,21	,	28700	,	-19852	,	-16388	,	-1.2098888	,	0
3,21	,	28732	,	-19845	,	-16384	,	-2.4253488	,	0
3,21	,	28748	,	-19851	,	-16391	,	-3.438823	,	0
3,21	,	28780	,	-19847	,	-16374	,	-4.1591034	,	0
3,21	,	28796	,	-19861	,	-16387	,	-4.5929413	,	0
3,21	,	28812	,	-19856	,	-16392	,	-4.883328	,	0
3,21	,	28844	,	-19857	,	-16391	,	-5.1452417	,	0
3,21	,	28860	,	-19861	,	-16396	,	-5.3663054	,	0
3,21	,	28876	,	-19860	,	-16397	,	-5.515383	,	0
3,21	,	28908	,	-19877	,	-16399	,	-5.6477	,	0
3,21	,	28924	,	-19872	,	-16404	,	-5.92031	,	0
3,21	,	28956	,	-19881	,	-16400	,	-6.457023	,	0
3,21	,	28972	,	-19866	,	-16393	,	-7.176232	,	0
3,21	,	28988	,	-19868	,	-16409	,	-7.7695045	,	0
3,21	,	29020	,	-19881	,	-16403	,	-7.95975	,	0
3,21	,	29036	,	-19886	,	-16414	,	-7.825005	,	0
3,21	,	29052	,	-19887	,	-16413	,	-7.665696	,	0
3,21	,	29084	,	-19900	,	-16406	,	-7.714795	,	0
3,21	,	29100	,	-19897	,	-16408	,	-8.1036825	,	0
3,21	,	29116	,	-19884	,	-16415	,	-8.740974	,	0
3,21	,	29148	,	-19883	,	-16395	,	-9.2101965	,	0
3,21	,	29164	,	-19878	,	-16404	,	-9.051868	,	0
3,21	,	29196	,	-19870	,	-16393	,	-8.02622	,	0
3,21	,	29212	,	-19865	,	-16403	,	-6.087531	,	1
3,21	,	29228	,	-19865	,	-16384	,	-3.3667903	,	2
3,21	,	29259	,	-19867	,	-16399	,	-0.21255374	,	4
3,22	,	29275	,	-19863	,	-16405	,	2.899672	,	7
3,22	,	29292	,	-19848	,	-16394	,	5.636813	,	10
3,22	,	29324	,	-19842	,	-16396	,	7.996969	,	12
3,22	,	29340	,	-19852	,	-16392	,	10.076199	,	14
3,22	,	29371	,	-19849	,	-16398	,	11.729496	,	16
3,22	,	29388	,	-19849	,	-16388	,	12.683583	,	17
3,22	,	29404	,	-19852	,	-16395	,	12.804226	,	16
3,22	,	29436	,	-19845	,	-16386	,	12.136267	,	15
3,22	,	29452	,	-19843	,	-16399	,	10.891993	,	13
3,22	,	29468	,	-19839	,	-16373	,	9.398151	,	10
3,22	,	29500	,	-19849	,	-16385	,	7.9140983	,	7
3,22	,	29516	,	-19838	,	-16395	,	6.540021	,	5
3,22	,	29532	,	-19839	,	-16394	,	5.3456326	,	3
3,22	,	29564	,	-19845	,	-16392	,	4.3950863	,	1
3,22	,	29579	,	-19851	,	-16398	,	3.5964062	,	0
3,22	,	29612	,	-19841	,	-16394	,	2.7858043	,	0
3,22	,	29628	,	-19852	,	-16391	,	1.923729	,	0
3,22	,	29644	,	-19854	,	-16390	,	1.0096928	,	0
3,22	,	29676	,	-19859	,	-16402	,	-0.03133583	,	0
3,22	,	29692	,	-19856	,	-16391	,	-1.238951	,	0
3,22	,	29707	,	-19865	,	-16397	,	-2.5464861	,	0
3,22	,	29739	,	-19847	,	-16392	,	-3.7877293	,	0
3,22	,	29756	,	-19869	,	-16384	,	-4.750121	,	0
3,22	,	29788	,	-19867	,	-16407	,	-5.404999	,	0
3,22	,	29804	,	-19863	,	-16400	,	-5.8877673	,	0
3,22	,	29820	,	-19876	,	-16396	,	-6.261407	,	0
3,22	,	29852	,	-19870	,	-16381	,	-6.565078	,	0
3,22	,	29868	,	-19886	,	-16402	,	-6.885187	,	0
3,22	,	29883	,	-19869	,	-16396	,	-7.261073	,	0
3,22	,	29915	,	-19879	,	-16409	,	-7.5867233	,	0
3,22	,	29931	,	-19897	,	-16399	,	-7.7958694	,	0
3,22	,	29947	,	-19883	,	-16407	,	-8.040724	,	0
3,22	,	29980	,	-19893	,	-16408	,	-8.396528	,	0
3,22	,	29996	,	-19906	,	-16409	,	-8.818207	,	0
3,22	,	30027	,	-19892	,	-16413	,	-9.326855	,	0
3,22	,	30043	,	-19915	,	-16406	,	-9.893652	,	0
3,22	,	30059	,	-19907	,	-16423	,	-10.477684	,	0
3,22	,	30092	,	-19907	,	-16420	,	-11.033692	,	0
3,22	,	30108	,	-19917	,	-16395	,	-11.420605	,	0
3,22	,	30124	,	-19896	,	-16409	,	-11.481924	,	0
3,22	,	30155	,	-19879	,	-16419	,	-10.895103	,	0
3,22	,	30171	,	-19878	,	-16400	,	-9.176791	,	0
3,22	,	30203	,	-19879	,	-16404	,	-6.1833224	,	1
3,22	,	30219	,	-19869	,	-16402	,	-2.2808547	,	3
3,22	,	30235	,	-19855	,	-16401	,	2.056645	,	6
3,22	,	30268	,	-19861	,	-16401	,	6.4777	,	10
3,23	,	30283	,	-19859	,	-16396	,	10.572857	,	14
3,23	,	30300	,	-19852	,	-16398	,	13.8822775	,	18
3,23	,	30331	,	-19854	,	-16388	,	16.139051	,	21
3,23	,	30347	,	-19864	,	-16389	,	17.226316	,	23
3,23	,	30363	,	-19851	,	-16403	,	17.087776	,	24
3,23	,	30395	,	-19856	,	-16389	,	15.884621	,	23
3,23	,	30411	,	-19857	,	-16391	,	13.948497	,	21
3,23	,	30443	,	-19852	,	-16400	,	11.588569	,	18
3,23	,	30459	,	-19857	,	-16397	,	9.091366	,	14
3,23	,	30475	,	-19845	,	-16389	,	6.7444015	,	10
3,23	,	30507	,	-19835	,	-16386	,	4.8830295	,	6
3,23	,	30523	,	-19839	,	-16381	,	3.8329244	,	3
3,23	,	30539	,	-19842	,	-16389	,	3.626213	,	1
3,23	,	30571	,	-19844	,	-16385	,	3.9385161	,	0
3,23	,	30587	,	-19842	,	-16375	,	4.364533	,	0
3,23	,	30619	,	-19845	,	-16394	,	4.6345806	,	0
3,23	,	30635	,	-19847	,	-16379	,	4.606711	,	0
3,23	,	30651	,	-19850	,	-16387	,	4.197693	,	0
3,23	,	30683	,	-19851	,	-16388	,	3.385976	,	0
3,23	,	30699	,	-19855	,	-16396	,	2.2265797	,	0
3,23	,	30715	,	-19848	,	-16388	,	0.852178	,	0
3,23	,	30747	,	-19853	,	-16393	,	-0.5270264	,	0
3,23	,	30763	,	-19852	,	-16400	,	-1.7069203	,	0
3,23	,	30779	,	-19862	,	-16402	,	-2.621197	,	0
3,23	,	30811	,	-19868	,	-16391	,	-3.3951268	,	0
3,23	,	30827	,	-19867	,	-16407	,	-4.2212553	,	0
3,23	,	30859	,	-19862	,	-16402	,	-5.120452	,	0
3,23	,	30875	,	-19870	,	-16389	,	-5.926753	,	0
3,23	,	30891	,	-19882	,	-16401	,	-6.572539	,	0
3,23	,	30923	,	-19881	,	-16397	,	-7.206428	,	0
3,23	,	30939	,	-19877	,	-16397	,	-7.918974	,	0
3,23	,	30955	,	-19884	,	-16394	,	-8.583132	,	0
3,23	,	30987	,	-19887	,	-16402	,	-9.060689	,	0
3,23	,	31003	,	-19888	,	-16394	,	-9.330698	,	0
3,23	,	31035	,	-19895	,	-16394	,	-9.429889	,	0
3,23	,	31051	,	-19897	,	-16403	,	-9.435774	,	0
3,23	,	31067	,	-19890	,	-16414	,	-9.386543	,	0
3,23	,	31099	,	-19905	,	-16400	,	-9.236286	,	0
3,23	,	31115	,	-19907	,	-16397	,	-9.034916	,	0
3,23	,	31131	,	-19878	,	-16395	,	-8.79267	,	0
3,23	,	31163	,	-19877	,	-16391	,	-8.126411	,	0
3,23	,	31179	,	-19863	,	-16390	,	-6.514744	,	0
3,23	,	31195	,	-19858	,	-16397	,	-3.7439027	,	1
3,23	,	31227	,	-19845	,	-16385	,	0.07694268	,	3
3,23	,	31243	,	-19852	,	-16386	,	4.585864	,	6
3,24	,	31275	,	-19856	,	-16381	,	9.13184	,	10
3,24	,	31291	,	-19841	,	-16381	,	12.992873	,	14
3,24	,	31307	,	-19846	,	-16393	,	15.763758	,	17
3,24	,	31339	,	-19859	,	-16382	,	17.273685	,	19
3,24	,	31355	,	-19849	,	-16390	,	17.370216	,	20
3,24	,	31371	,	-19847	,	-16390	,	16.14209	,	20
3,24	,	31403	,	-19850	,	-16379	,	13.9966345	,	19
3,24	,	31419	,	-19843	,	-16377	,	11.400632	,	17
3,24	,	31451	,	-19840	,	-16384	,	8.790714	,	14
3,24	,	31467	,	-19839	,	-16381	,	6.55384	,	10
3,24	,	31483	,	-19846	,	-16393	,	4.869901	,	6
3,24	,	31515	,	-19846	,	-16382	,	3.654091	,	3
3,24	,	31531	,	-19837	,	-16379	,	2.7572386	,	1
3,24	,	31547	,	-19844	,	-16374	,	2.1379924	,	0
3,24	,	31579	,	-19843	,	-16380	,	1.7600933	,	0
3,24	,	31595	,	-19841	,	-16381	,	1.5205309	,	0
3,24	,	31627	,	-19844	,	-16377	,	1.3358405	,	0
3,24	,	31643	,	-19846	,	-16387	,	1.1449656	,	0
3,24	,	31659	,	-19840	,	-16390	,	0.9040815	,	0
3,24	,	31691	,	-19856	,	-16387	,	0.58163023	,	0
3,24	,	31707	,	-19860	,	-16385	,	0.037184715	,	0
3,24	,	31723	,	-19852	,	-16382	,	-0.87672466	,	0
3,24	,	31755	,	-19854	,	-16390	,	-2.0378518	,	0
3,24	,	31771	,	-19859	,	-16391	,	-3.166977	,	0
3,24	,	31787	,	-19857	,	-16370	,	-4.1004014	,	0
3,24	,	31819	,	-19864	,	-16386	,	-4.799661	,	0
3,24	,	31835	,	-19865	,	-16378	,	-5.305367	,	0
3,24	,	31867	,	-19868	,	-16393	,	-5.704499	,	0
3,24	,	31883	,	-19867	,	-16395	,	-6.0419273	,	0
3,24	,	31899	,	-19871	,	-16385	,	-6.2988625	,	0
3,24	,	31931	,	-19866	,	-16395	,	-6.428145	,	0
3,24	,	31947	,	-19879	,	-16394	,	-6.4117804	,	0
3,24	,	31963	,	-19875	,	-16397	,	-6.3300095	,	0
3,24	,	31995	,	-19894	,	-16385	,	-6.354803	,	0
3,24	,	32011	,	-19896	,	-16408	,	-6.7136497	,	0
3,24	,	32042	,	-19895	,	-16401	,	-7.543649	,	0
3,24	,	32058	,	-19900	,	-16401	,	-8.726464	,	0
3,24	,	32074	,	-19898	,	-16398	,	-9.988153	,	0
3,24	,	32107	,	-19885	,	-16398	,	-10.980271	,	0
3,24	,	32122	,	-19873	,	-16395	,	-11.216618	,	0
3,24	,	32138	,	-19874	,	-16387	,	-10.253515	,	0
3,24	,	32170	,	-19861	,	-16390	,	-7.977829	,	0
3,24	,	32187	,	-19846	,	-16383	,	-4.5302806	,	2
3,24	,	32203	,	-19854	,	-16386	,	-0.17194653	,	5
3,24	,	32235	,	-19849	,	-16379	,	4.5787706	,	9
3,24	,	32251	,	-19845	,	-16382	,	9.042268	,	13
3,25	,	32282	,	-19840	,	-16380	,	12.719931	,	17
3,25	,	32298	,	-19846	,	-16380	,	15.351213	,	20
3,25	,	32314	,	-19841	,	-16374	,	16.788372	,	22
3,25	,	32346	,	-19838	,	-16370	,	17.032286	,	23
3,25	,	32362	,	-19837	,	-16373	,	16.293522	,	23
3,25	,	32379	,	-19828	,	-16376	,	14.919042	,	21
3,25	,	32411	,	-19831	,	-16370	,	13.280813	,	18
3,25	,	32426	,	-19830	,	-16372	,	11.638908	,	14
3,25	,	32458	,	-19826	,	-16364	,	10.102175	,	10
3,25	,	32474	,	-19834	,	-16382	,	8.698527	,	6
3,25	,	32490	,	-19836	,	-16363	,	7.3606973	,	3
3,25	,	32523	,	-19827	,	-16373	,	6.005959	,	1
3,25	,	32538	,	-19838	,	-16368	,	4.6637	,	0
3,25	,	32554	,	-19845	,	-16371	,	3.3247402	,	0
3,25	,	32586	,	-19845	,	-16379	,	1.849565	,	0
3,25	,	32602	,	-19840	,	-16378	,	0.20564342	,	0
3,25	,	32618	,	-19845	,	-16381	,	-1.4200819	,	0
3,25	,	32653	,	-19851	,	-16385	,	-2.8434668	,	0
3,25	,	32666	,	-19851	,	-16384	,	-4.0365496	,	0
3,25	,	32698	,	-19847	,	-16391	,	-4.9918985	,	0
3,25	,	32714	,	-19858	,	-16376	,	-5.65587	,	0
3,25	,	32730	,	-19865	,	-16391	,	-6.1069174	,	0
3,25	,	32762	,	-19855	,	-16382	,	-6.5167108	,	0
3,25	,	32778	,	-19859	,	-16379	,	-6.8722043	,	0
3,25	,	32794	,	-19872	,	-16386	,	-7.0830655	,	0
3,25	,	32826	,	-19862	,	-16380	,	-7.2098417	,	0
3,25	,	32842	,	-19874	,	-16388	,	-7.320322	,	0
3,25	,	32874	,	-19873	,	-16389	,	-7.4261894	,	0
3,25	,	32890	,	-19879	,	-16385	,	-7.572222	,	0
3,25	,	32906	,	-19887	,	-16382	,	-7.8291035	,	0
3,25	,	32938	,	-19880	,	-16403	,	-8.237799	,	0
3,25	,	32954	,	-19881	,	-16380	,	-8.688904	,	0
3,25	,	32970	,	-19895	,	-16397	,	-9.016401	,	0
3,25	,	33002	,	-19897	,	-16402	,	-9.251974	,	0
3,25	,	33018	,	-19898	,	-16407	,	-9.5323715	,	0
3,25	,	33034	,	-19896	,	-16415	,	-9.850701	,	0
3,25	,	33066	,	-19905	,	-16409	,	-10.089604	,	0
3,25	,	33082	,	-19902	,	-16401	,	-10.179956	,	0
3,25	,	33114	,	-19910	,	-16408	,	-10.12232	,	0
3,25	,	33130	,	-19898	,	-16391	,	-9.907419	,	0
3,25	,	33146	,	-19861	,	-16383	,	-9.2466135	,	0
3,25	,	33178	,	-19859	,	-16396	,	-7.4624963	,	0
3,25	,	33194	,	-19858	,	-16378	,	-4.1026564	,	1
3,25	,	33210	,	-19853	,	-16380	,	0.5437522	,	4
3,25	,	33242	,	-19844	,	-16378	,	5.7706156	,	8
3,25	,	33258	,	-19848	,	-16371	,	10.881441	,	13
3,26	,	33290	,	-19838	,	-16370	,	15.286358	,	18
3,26	,	33306	,	-19832	,	-16375	,	18.611849	,	22
3,26	,	33322	,	-19836	,	-16377	,	20.740942	,	25
3,26	,	33354	,	-19837	,	-16373	,	21.634447	,	27
3,26	,	33370	,	-19833	,	-16377	,	21.28641	,	27
3,26	,	33386	,	-19840	,	-16372	,	19.82079	,	26
3,26	,	33419	,	-19837	,	-16370	,	17.457321	,	23
3,26	,	33434	,	-19828	,	-16371	,	14.517509	,	19
3,26	,	33450	,	-19821	,	-16366	,	11.505585	,	14
3,26	,	33482	,	-19817	,	-16367	,	8.975825	,	9
3,26	,	33498	,	-19821	,	-16364	,	7.244744	,	5
3,26	,	33530	,	-19818	,	-16363	,	6.282523	,	2
3,26	,	33546	,	-19836	,	-16376	,	5.786617	,	0
3,26	,	33562	,	-19831	,	-16371	,	5.297556	,	0
3,26	,	33594	,	-19838	,	-16369	,	4.4458222	,	0
3,26	,	33610	,	-19827	,	-16381	,	3.179689	,	0
3,26	,	33626	,	-19845	,	-16394	,	1.6641212	,	0
3,26	,	33658	,	-19843	,	-16377	,	0.0027120113	,	0
3,26	,	33674	,	-19837	,	-16376	,	-1.7374116	,	0
3,26	,	33706	,	-19844	,	-16381	,	-3.3548055	,	0
3,26	,	33722	,	-19846	,	-16388	,	-4.6630874	,	0
3,26	,	33738	,	-19855	,	-16399	,	-5.6619616	,	0
3,26	,	33770	,	-19852	,	-16399	,	-6.4548874	,	0
3,26	,	33786	,	-19853	,	-16393	,	-7.0876966	,	0
3,26	,	33802	,	-19861	,	-16408	,	-7.5346584	,	0
3,26	,	33834	,	-19865	,	-16405	,	-7.8429275	,	0
3,26	,	33850	,	-19857	,	-16399	,	-8.085563	,	0
3,26	,	33866	,	-19874	,	-16398	,	-8.252485	,	0
3,26	,	33898	,	-19866	,	-16405	,	-8.360178	,	0
3,26	,	33914	,	-19877	,	-16398	,	-8.465739	,	0
3,26	,	33946	,	-19882	,	-16403	,	-8.621481	,	0
3,26	,	33962	,	-19876	,	-16408	,	-8.869539	,	0
3,26	,	33978	,	-19879	,	-16400	,	-9.127687	,	0
3,26	,	34010	,	-19889	,	-16403	,	-9.27459	,	0
3,26	,	34026	,	-19886	,	-16404	,	-9.324489	,	0
3,26	,	34042	,	-19889	,	-16402	,	-9.314039	,	0
3,26	,	34074	,	-19876	,	-16403	,	-9.142778	,	0
3,26	,	34090	,	-19864	,	-16399	,	-8.526845	,	0
3,26	,	34122	,	-19865	,	-16378	,	-7.127241	,	0
3,26	,	34138	,	-19831	,	-16378	,	-4.7112174	,	1
3,26	,	34154	,	-19815	,	-16375	,	-1.0343451	,	3
3,26	,	34186	,	-19810	,	-16368	,	4.0651155	,	6
3,26	,	34202	,	-19814	,	-16370	,	10.213276	,	11
3,26	,	34218	,	-19808	,	-16373	,	16.488438	,	17
3,26	,	34250	,	-19804	,	-16364	,	21.925526	,	23
3,26	,	34265	,	-19802	,	-16368	,	25.887707	,	28
3,27	,	34297	,	-19799	,	-16366	,	28.09657	,	31
3,27	,	34313	,	-19786	,	-16367	,	28.611042	,	33
3,27	,	34330	,	-19787	,	-16378	,	27.791805	,	32
3,27	,	34362	,	-19793	,	-16360	,	26.03593	,	30
3,27	,	34378	,	-19783	,	-16347	,	23.593872	,	27
3,27	,	34394	,	-19780	,	-16349	,	20.741867	,	22
3,27	,	34425	,	-19780	,	-16352	,	17.838722	,	16
3,27	,	34441	,	-19775	,	-16345	,	15.153304	,	10
3,27	,	34458	,	-19768	,	-16353	,	12.86013	,	5
3,27	,	34490	,	-19765	,	-16352	,	11.11919	,	2
3,27	,	34506	,	-19779	,	-16352	,	9.942949	,	0
3,27	,	34537	,	-19776	,	-16348	,	9.061184	,	0
3,27	,	34554	,	-19765	,	-16350	,	8.185089	,	0
3,27	,	34569	,	-19777	,	-16345	,	7.26309	,	0
3,27	,	34601	,	-19774	,	-16348	,	6.2955403	,	0
3,27	,	34617	,	-19783	,	-16352	,	5.1893816	,	0
3,27	,	34633	,	-19777	,	-16353	,	3.8725462	,	0
3,27	,	34666	,	-19788	,	-16346	,	2.365687	,	0
3,27	,	34682	,	-19795	,	-16359	,	0.683779	,	0
3,27	,	34713	,	-19794	,	-16360	,	-1.2037076	,	0
3,27	,	34729	,	-19800	,	-16351	,	-3.240901	,	0
3,27	,	34745	,	-19789	,	-16365	,	-5.215845	,	0
3,27	,	34778	,	-19796	,	-16357	,	-6.817751	,	0
3,27	,	34794	,	-19799	,	-16374	,	-7.826525	,	0
3,27	,	34810	,	-19810	,	-16354	,	-8.298046	,	0
3,27	,	34842	,	-19811	,	-16365	,	-8.4995775	,	0
3,27	,	34857	,	-19822	,	-16366	,	-8.721473	,	0
3,27	,	34873	,	-19829	,	-16371	,	-9.192802	,	0
3,27	,	34905	,	-19823	,	-16362	,	-10.0003805	,	0
3,27	,	34921	,	-19826	,	-16369	,	-10.969884	,	0
3,27	,	34954	,	-19830	,	-16368	,	-11.796455	,	0
3,27	,	34969	,	-19829	,	-16380	,	-12.283478	,	0
3,27	,	34985	,	-19827	,	-16367	,	-12.3337555	,	0
3,27	,	35018	,	-19831	,	-16377	,	-11.888163	,	0
3,27	,	35033	,	-19839	,	-16375	,	-11.020598	,	0
3,27	,	35049	,	-19849	,	-16382	,	-10.0177765	,	0
3,27	,	35081	,	-19821	,	-16371	,	-9.118345	,	1
3,27	,	35097	,	-19834	,	-16361	,	-8.188211	,	1
3,27	,	35129	,	-19814	,	-16377	,	-6.9142575	,	1
3,27	,	35145	,	-19812	,	-16363	,	-5.078116	,	2
3,27	,	35161	,	-19799	,	-16368	,	-2.5582058	,	3
3,27	,	35193	,	-19794	,	-16366	,	0.6413369	,	5
3,27	,	35209	,	-19805	,	-16366	,	4.269023	,	8
3,27	,	35225	,	-19790	,	-16369	,	7.816477	,	11
3,27	,	35257	,	-19791	,	-16374	,	10.82968	,	14
3,27	,	35273	,	-19780	,	-16356	,	13.144187	,	16
3,28	,	35289	,	-19794	,	-16364	,	14.725538	,	18
3,28	,	35321	,	-19786	,	-16362	,	15.477123	,	19
3,28	,	35337	,	-19784	,	-16366	,	15.34146	,	18
3,28	,	35369	,	-19780	,	-16364	,	14.475168	,	17
3,28	,	35385	,	-19785	,	-16360	,	13.139974	,	15
3,28	,	35401	,	-19775	,	-16351	,	11.551075	,	12
3,28	,	35433	,	-19764	,	-16358	,	9.977642	,	9
3,28	,	35449	,	-19772	,	-16357	,	8.745033	,	6
3,28	,	35465	,	-19775	,	-16353	,	7.938736	,	3
3,28	,	35497	,	-19775	,	-16365	,	7.3336024	,	1
3,28	,	35513	,	-19777	,	-16352	,	6.6722417	,	0
3,28	,	35545	,	-19776	,	-16363	,	5.835881	,	0
3,28	,	35561	,	-19775	,	-16356	,	4.832217	,	0
3,28	,	35577	,	-19778	,	-16367	,	3.7330408	,	0
3,28	,	35609	,	-19783	,	-16369	,	2.5879514	,	0
3,28	,	35625	,	-19786	,	-16355	,	1.3813636	,	0
3,28	,	35641	,	-19784	,	-16365	,	0.101011515	,	0
3,28	,	35673	,	-19804	,	-16368	,	-1.2644033	,	0
3,28	,	35689	,	-19796	,	-16365	,	-2.800258	,	0
3,28	,	35705	,	-19787	,	-16369	,	-4.4474583	,	0
3,28	,	35737	,	-19793	,	-16350	,	-5.8581724	,	0
3,28	,	35753	,	-19791	,	-16363	,	-6.7149177	,	0
3,28	,	35785	,	-19798	,	-16375	,	-6.9647865	,	0
3,28	,	35801	,	-19817	,	-16370	,	-6.8504667	,	0
3,28	,	35817	,	-19816	,	-16372	,	-6.841179	,	0
3,28	,	35849	,	-19818	,	-16375	,	-7.276487	,	0
3,28	,	35865	,	-19820	,	-16372	,	-8.133449	,	0
3,28	,	35881	,	-19826	,	-16375	,	-9.201974	,	0
3,28	,	35913	,	-19824	,	-16373	,	-10.26655	,	0
3,28	,	35929	,	-19823	,	-16384	,	-11.1053095	,	0
3,28	,	35961	,	-19833	,	-16399	,	-11.547272	,	0
3,28	,	35977	,	-19830	,	-16385	,	-11.590475	,	0
3,28	,	35993	,	-19829	,	-16384	,	-11.304016	,	0
3,28	,	36025	,	-19844	,	-16387	,	-10.757942	,	0
3,28	,	36041	,	-19841	,	-16398	,	-10.13789	,	0
3,28	,	36057	,	-19833	,	-16393	,	-9.591084	,	0
3,28	,	36089	,	-19831	,	-16392	,	-8.994251	,	0
3,28	,	36105	,	-19810	,	-16386	,	-8.01536	,	0
3,28	,	36121	,	-19811	,	-16377	,	-6.2807617	,	0
3,28	,	36153	,	-19793	,	-16386	,	-3.5739713	,	1
3,28	,	36169	,	-19789	,	-16374	,	0.07664418	,	3
3,28	,	36201	,	-19786	,	-16377	,	4.4152994	,	6
3,28	,	36217	,	-19785	,	-16369	,	8.943056	,	10
3,28	,	36233	,	-19775	,	-16370	,	13.086731	,	14
3,28	,	36266	,	-19778	,	-16366	,	16.436752	,	18
3,29	,	36281	,	-19773	,	-16363	,	18.754932	,	21
3,29	,	36297	,	-19779	,	-16360	,	19.898777	,	23
3,29	,	36329	,	-19780	,	-16362	,	19.802502	,	24
3,29	,	36345	,	-19775	,	-16363	,	18.529133	,	23
3,29	,	36376	,	-19785	,	-16357	,	16.306082	,	21
3,29	,	36393	,	-19765	,	-16370	,	13.4960575	,	18
3,29	,	36409	,	-19775	,	-16372	,	10.57647	,	14
3,29	,	36441	,	-19762	,	-16350	,	7.9969783	,	10
3,29	,	36457	,	-19777	,	-16357	,	5.9858894	,	6
3,29	,	36473	,	-19777	,	-16360	,	4.480718	,	3
3,29	,	36505	,	-19771	,	-16352	,	3.2758327	,	1
3,29	,	36521	,	-19765	,	-16359	,	2.3186097	,	0
3,29	,	36552	,	-19755	,	-16357	,	1.7766514	,	0
3,29	,	36568	,	-19777	,	-16366	,	1.7546092	,	0
3,29	,	36585	,	-19777	,	-16363	,	1.9896402	,	0
3,29	,	36617	,	-19775	,	-16365	,	2.0415993	,	0
3,29	,	36633	,	-19780	,	-16368	,	1.696282	,	0
3,29	,	36649	,	-19785	,	-16371	,	0.9380874	,	0
3,29	,	36681	,	-19782	,	-16365	,	-0.18917865	,	0
3,29	,	36697	,	-19792	,	-16373	,	-1.5703585	,	0
3,29	,	36712	,	-19789	,	-16366	,	-3.067484	,	0
3,29	,	36745	,	-19784	,	-16377	,	-4.50916	,	0
3,29	,	36761	,	-19797	,	-16382	,	-5.694731	,	0
3,29	,	36793	,	-19809	,	-16383	,	-6.6267285	,	0
3,29	,	36809	,	-19805	,	-16371	,	-7.525815	,	0
3,29	,	36825	,	-19810	,	-16380	,	-8.505693	,	0
3,29	,	36857	,	-19815	,	-16387	,	-9.496615	,	0
3,29	,	36873	,	-19815	,	-16389	,	-10.401974	,	0
3,29	,	36888	,	-19821	,	-16382	,	-11.13864	,	0
3,29	,	36921	,	-19816	,	-16396	,	-11.617392	,	0
3,29	,	36936	,	-19839	,	-16385	,	-11.825329	,	0
3,29	,	37001	,	-19837	,	-16396	,	-12.670145	,	0
3,29	,	37032	,	-19850	,	-16396	,	-13.024317	,	0
3,29	,	37048	,	-19838	,	-16389	,	-13.190785	,	0
3,29	,	37064	,	-19822	,	-16382	,	-12.942804	,	0
3,29	,	37097	,	-19812	,	-16382	,	-11.824694	,	0
3,29	,	37113	,	-19805	,	-16391	,	-9.449946	,	1
3,29	,	37129	,	-19811	,	-16374	,	-5.854046	,	3
3,29	,	37161	,	-19797	,	-16378	,	-1.4908066	,	6
3,29	,	37177	,	-19792	,	-16375	,	3.1088724	,	10
3,29	,	37208	,	-19793	,	-16376	,	7.5307765	,	14
3,29	,	37224	,	-19795	,	-16378	,	11.354531	,	18
3,29	,	37240	,	-19801	,	-16373	,	14.121459	,	21
3,29	,	37273	,	-19797	,	-16369	,	15.501757	,	23
3,30	,	37289	,	-19806	,	-16368	,	15.423496	,	24
3,30	,	37305	,	-19795	,	-16374	,	14.071299	,	23
3,30	,	37336	,	-19783	,	-16372	,	11.922671	,	21
3,30	,	37352	,	-19785	,	-16373	,	9.664198	,	18
3,30	,	37384	,	-19786	,	-16363	,	7.8043203	,	14
3,30	,	37400	,	-19778	,	-16363	,	6.4994907	,	10
3,30	,	37416	,	-19788	,	-16371	,	5.7099385	,	6
3,30	,	37449	,	-19784	,	-16361	,	5.26359	,	3
3,30	,	37465	,	-19784	,	-16378	,	4.930279	,	1
3,30	,	37480	,	-19788	,	-16374	,	4.551114	,	0
3,30	,	37512	,	-19787	,	-16360	,	4.0411596	,	0
3,30	,	37528	,	-19798	,	-16369	,	3.3316858	,	0
3,30	,	37544	,	-19801	,	-16367	,	2.3103201	,	0
3,30	,	37576	,	-19785	,	-16378	,	0.96295357	,	0
3,30	,	37592	,	-19799	,	-16361	,	-0.46497595	,	0
3,30	,	37625	,	-19805	,	-16370	,	-1.761251	,	0
3,30	,	37640	,	-19806	,	-16377	,	-2.9718556	,	0
3,30	,	37656	,	-19808	,	-16377	,	-4.1740594	,	0
3,30	,	37689	,	-19814	,	-16372	,	-5.345777	,	0
3,30	,	37705	,	-19819	,	-16373	,	-6.466234	,	0
3,30	,	37720	,	-19818	,	-16377	,	-7.535063	,	0
3,30	,	37752	,	-19820	,	-16384	,	-8.487476	,	0
3,30	,	37768	,	-19828	,	-16389	,	-9.230524	,	0
3,30	,	37800	,	-19833	,	-16385	,	-9.782469	,	0
3,30	,	37816	,	-19832	,	-16389	,	-10.236626	,	0
3,30	,	37832	,	-19837	,	-16377	,	-10.618256	,	0
3,30	,	37864	,	-19835	,	-16387	,	-10.870857	,	0
3,30	,	37880	,	-19844	,	-16387	,	-10.938822	,	0
3,30	,	37896	,	-19842	,	-16385	,	-10.836198	,	0
3,30	,	37928	,	-19844	,	-16401	,	-10.604004	,	0
3,30	,	37944	,	-19851	,	-16395	,	-10.265419	,	0
3,30	,	37976	,	-19851	,	-16390	,	-9.877337	,	0
3,30	,	37992	,	-19848	,	-16379	,	-9.475569	,	0
3,30	,	38008	,	-19836	,	-16383	,	-8.927518	,	0
3,30	,	38040	,	-19825	,	-16389	,	-7.908076	,	0
3,30	,	38056	,	-19820	,	-16385	,	-6.0786767	,	1
3,30	,	38072	,	-19835	,	-16387	,	-3.4297419	,	2
3,30	,	38104	,	-19819	,	-16379	,	-0.37592554	,	4
3,30	,	38120	,	-19816	,	-16388	,	2.6422844	,	7
3,30	,	38152	,	-19815	,	-16380	,	5.4097314	,	10
3,30	,	38168	,	-19814	,	-16380	,	7.775682	,	12
3,30	,	38184	,	-19824	,	-16381	,	9.527591	,	14
3,30	,	38216	,	-19818	,	-16379	,	10.428999	,	15
3,30	,	38232	,	-19817	,	-16381	,	10.397581	,	15
3,30	,	38248	,	-19823	,	-16385	,	9.577774	,	14
3,31	,	38280	,	-19817	,	-16368	,	8.196537	,	13
3,31	,	38296	,	-19822	,	-16381	,	6.4946127	,	11
3,31	,	38312	,	-19819	,	-16373	,	4.7071013	,	8
3,31	,	38344	,	-19808	,	-16378	,	3.0756488	,	5
3,31	,	38360	,	-19817	,	-16386	,	1.8563919	,	3
3,31	,	38392	,	-19818	,	-16386	,	1.1366334	,	1
3,31	,	38408	,	-19816	,	-16384	,	0.77579844	,	0
3,31	,	38424	,	-19816	,	-16387	,	0.6042895	,	0
3,31	,	38456	,	-19825	,	-16391	,	0.48618472	,	0
3,31	,	38472	,	-19822	,	-16380	,	0.27189657	,	0
3,31	,	38488	,	-19815	,	-16387	,	-0.082951576	,	0
3,31	,	38520	,	-19823	,	-16387	,	-0.46552813	,	0
3,31	,	38536	,	-19845	,	-16394	,	-0.90405947	,	0
3,31	,	38568	,	-19842	,	-16386	,	-1.7181165	,	0
3,31	,	38584	,	-19847	,	-16392	,	-3.1449506	,	0
3,31	,	38600	,	-19839	,	-16389	,	-5.0264244	,	0
3,31	,	38632	,	-19850	,	-16405	,	-6.95866	,	0
3,31	,	38648	,	-19845	,	-16398	,	-8.593449	,	0
3,31	,	38664	,	-19851	,	-16405	,	-9.744602	,	0
3,31	,	38696	,	-19855	,	-16404	,	-10.368736	,	0
3,31	,	38712	,	-19859	,	-16406	,	-10.568984	,	0
3,31	,	38728	,	-19863	,	-16394	,	-10.524518	,	0
3,31	,	38760	,	-19862	,	-16405	,	-10.369733	,	0
3,31	,	38776	,	-19869	,	-16398	,	-10.164927	,	0
3,31	,	38808	,	-19874	,	-16409	,	-9.974235	,	0
3,31	,	38824	,	-19882	,	-16410	,	-9.918192	,	0
3,31	,	38840	,	-19885	,	-16399	,	-10.117012	,	0
3,31	,	38872	,	-19880	,	-16403	,	-10.55891	,	0
3,31	,	38888	,	-19888	,	-16424	,	-11.054174	,	0
3,31	,	38904	,	-19897	,	-16420	,	-11.447525	,	0
3,31	,	38936	,	-19883	,	-16420	,	-11.7068615	,	0
3,31	,	38952	,	-19894	,	-16422	,	-11.736647	,	0
3,31	,	38984	,	-19878	,	-16405	,	-11.360371	,	0
3,31	,	39000	,	-19869	,	-16410	,	-10.353246	,	0
3,31	,	39016	,	-19871	,	-16405	,	-8.500353	,	1
3,31	,	39048	,	-19855	,	-16396	,	-5.784564	,	2
3,31	,	39064	,	-19861	,	-16403	,	-2.3900528	,	4
3,31	,	39080	,	-19870	,	-16404	,	1.2735353	,	7
3,31	,	39112	,	-19859	,	-16406	,	4.603459	,	10
3,31	,	39128	,	-19863	,	-16413	,	7.1550426	,	13
3,31	,	39160	,	-19854	,	-16404	,	8.806141	,	15
3,31	,	39176	,	-19861	,	-16416	,	9.61818	,	16
3,31	,	39192	,	-19878	,	-16412	,	9.601267	,	16
3,31	,	39223	,	-19862	,	-16404	,	8.672754	,	15
3,31	,	39240	,	-19864	,	-16418	,	6.988292	,	14
3,31	,	39256	,	-19865	,	-16415	,	4.9825044	,	12
3,32	,	39288	,	-19865	,	-16408	,	3.031847	,	9
3,32	,	39304	,	-19867	,	-16412	,	1.3385057	,	6
3,32	,	39320	,	-19874	,	-16418	,	-0.04705763	,	3
3,32	,	39352	,	-19857	,	-16404	,	-1.1272217	,	1
3,32	,	39368	,	-19865	,	-16418	,	-1.7935872	,	0
3,32	,	39400	,	-19871	,	-16397	,	-1.9878352	,	0
3,32	,	39416	,	-19865	,	-16416	,	-1.8786494	,	0
3,32	,	39432	,	-19874	,	-16407	,	-1.680752	,	0
3,32	,	39464	,	-19878	,	-16414	,	-1.5709033	,	0
3,32	,	39479	,	-19894	,	-16419	,	-1.7919881	,	0
3,32	,	39496	,	-19891	,	-16422	,	-2.594614	,	0
3,32	,	39528	,	-19896	,	-16420	,	-4.0181475	,	0
3,32	,	39544	,	-19893	,	-16414	,	-5.8151417	,	0
3,32	,	39575	,	-19892	,	-16420	,	-7.585934	,	0
3,32	,	39592	,	-19900	,	-16419	,	-8.976192	,	0
3,32	,	39607	,	-19906	,	-16421	,	-9.873726	,	0
3,32	,	39639	,	-19902	,	-16422	,	-10.370878	,	0
3,32	,	39656	,	-19903	,	-16428	,	-10.521451	,	0
3,32	,	39672	,	-19911	,	-16424	,	-10.326673	,	0
3,32	,	39704	,	-19927	,	-16432	,	-9.96175	,	0
3,32	,	39719	,	-19920	,	-16436	,	-9.752959	,	0
3,32	,	39735	,	-19912	,	-16433	,	-9.789896	,	0
3,32	,	39767	,	-19921	,	-16435	,	-9.826434	,	0
3,32	,	39783	,	-19931	,	-16439	,	-9.698095	,	0
3,32	,	39816	,	-19924	,	-16433	,	-9.490442	,	0
3,32	,	39832	,	-19931	,	-16439	,	-9.275726	,	0
3,32	,	39847	,	-19929	,	-16438	,	-9.021017	,	0
3,32	,	39879	,	-19943	,	-16452	,	-8.737377	,	0
3,32	,	39896	,	-19934	,	-16437	,	-8.517181	,	0
3,32	,	39911	,	-19930	,	-16429	,	-8.3431225	,	0
3,32	,	39943	,	-19927	,	-16435	,	-7.9959955	,	0
3,32	,	39959	,	-19910	,	-16427	,	-7.1782246	,	0
3,32	,	39991	,	-19921	,	-16443	,	-5.67134	,	0
3,32	,	40007	,	-19919	,	-16437	,	-3.5590723	,	1
3,32	,	40023	,	-19918	,	-16423	,	-1.2172894	,	3
3,32	,	40055	,	-19918	,	-16435	,	0.9755428	,	5
3,32	,	40071	,	-19919	,	-16428	,	2.757102	,	7
3,32	,	40087	,	-19910	,	-16435	,	4.0064554	,	8
3,32	,	40120	,	-19918	,	-16438	,	4.7626977	,	9
3,32	,	40135	,	-19922	,	-16425	,	5.0659585	,	9
3,32	,	40151	,	-19910	,	-16435	,	4.920034	,	9
3,32	,	40183	,	-19912	,	-16438	,	4.4746904	,	9
3,32	,	40199	,	-19919	,	-16447	,	3.9325414	,	8
3,32	,	40232	,	-19917	,	-16432	,	3.331716	,	6
3,32	,	40248	,	-19914	,	-16437	,	2.6566763	,	4
3,32	,	40263	,	-19923	,	-16429	,	1.9433701	,	2
3,33	,	40296	,	-19922	,	-16440	,	1.1761332	,	1
3,33	,	40311	,	-19923	,	-16431	,	0.3151033	,	0
3,33	,	40327	,	-19929	,	-16435	,	-0.61876625	,	0
3,33	,	40359	,	-19928	,	-16435	,	-1.5954502	,	0
3,33	,	40375	,	-19921	,	-16438	,	-2.5414581	,	0
3,33	,	40407	,	-19919	,	-16440	,	-3.253854	,	0
3,33	,	40423	,	-19930	,	-16438	,	-3.5623288	,	0
3,33	,	40439	,	-19930	,	-16442	,	-3.543191	,	0
3,33	,	40471	,	-19930	,	-16442	,	-3.4062395	,	0
3,33	,	40488	,	-19938	,	-16433	,	-3.3053575	,	0
3,33	,	40503	,	-19938	,	-16443	,	-3.3574424	,	0
3,33	,	40535	,	-19942	,	-16453	,	-3.6448932	,	0
3,33	,	40551	,	-19935	,	-16439	,	-4.129061	,	0
3,33	,	40567	,	-19936	,	-16454	,	-4.6235003	,	0
3,33	,	40599	,	-19949	,	-16436	,	-4.963558	,	0
3,33	,	40615	,	-19937	,	-16439	,	-5.1577253	,	0
3,33	,	40647	,	-19956	,	-16449	,	-5.2914886	,	0
3,33	,	40663	,	-19959	,	-16449	,	-5.5206833	,	0
3,33	,	40679	,	-19960	,	-16449	,	-6.0442805	,	0
3,33	,	40711	,	-19969	,	-16454	,	-6.916711	,	0
3,33	,	40727	,	-19958	,	-16451	,	-8.004851	,	0
3,33	,	40743	,	-19960	,	-16455	,	-8.999241	,	0
3,33	,	40775	,	-19964	,	-16454	,	-9.562765	,	0
3,33	,	40791	,	-19963	,	-16455	,	-9.574083	,	0
3,33	,	40823	,	-19977	,	-16465	,	-9.161747	,	0
3,33	,	40839	,	-19975	,	-16448	,	-8.616068	,	0
3,33	,	40855	,	-19965	,	-16457	,	-8.136366	,	0
3,33	,	40887	,	-19962	,	-16454	,	-7.6034203	,	0
3,33	,	40903	,	-19967	,	-16446	,	-6.7862463	,	0
3,33	,	40919	,	-19957	,	-16456	,	-5.6105447	,	0
3,33	,	40951	,	-19963	,	-16455	,	-4.1272044	,	1
3,33	,	40967	,	-19949	,	-16444	,	-2.4191606	,	2
3,33	,	40983	,	-19961	,	-16440	,	-0.58314943	,	3
3,33	,	41015	,	-19945	,	-16445	,	1.2571992	,	4
3,33	,	41031	,	-19950	,	-16468	,	2.9972744	,	5
3,33	,	41063	,	-19947	,	-16442	,	4.5586333	,	6
3,33	,	41079	,	-19949	,	-16452	,	5.8158145	,	7
3,33	,	41095	,	-19954	,	-16443	,	6.607003	,	8
3,33	,	41127	,	-19941	,	-16442	,	6.848829	,	8
3,33	,	41143	,	-19943	,	-16446	,	6.6632547	,	7
3,33	,	41159	,	-19942	,	-16447	,	6.277066	,	6
3,33	,	41191	,	-19943	,	-16448	,	5.814293	,	5
3,33	,	41207	,	-19949	,	-16446	,	5.2687035	,	4
3,33	,	41239	,	-19947	,	-16448	,	4.5682354	,	3
3,33	,	41255	,	-19949	,	-16449	,	3.6763685	,	2
3,33	,	41271	,	-19950	,	-16457	,	2.6441822	,	1
3,34	,	41303	,	-19948	,	-16434	,	1.5698056	,	0
3,34	,	41319	,	-19951	,	-16449	,	0.55702114	,	0
3,34	,	41335	,	-19950	,	-16456	,	-0.3228829	,	0
3,34	,	41367	,	-19955	,	-16450	,	-1.0509307	,	0
3,34	,	41383	,	-19962	,	-16444	,	-1.6897347	,	0
3,34	,	41399	,	-19955	,	-16451	,	-2.341023	,	0
3,34	,	41431	,	-19955	,	-16455	,	-2.9731367	,	0
3,34	,	41447	,	-19955	,	-16453	,	-3.422185	,	0
3,34	,	41479	,	-19955	,	-16451	,	-3.5745416	,	0
3,34	,	41495	,	-19970	,	-16459	,	-3.4966695	,	0
3,34	,	41511	,	-19969	,	-16457	,	-3.4498405	,	0
3,34	,	41543	,	-19967	,	-16453	,	-3.6572928	,	0
3,34	,	41559	,	-19968	,	-16467	,	-4.0845637	,	0
3,34	,	41575	,	-19979	,	-16460	,	-4.607368	,	0
3,34	,	41607	,	-19977	,	-16467	,	-5.2158203	,	0
3,34	,	41623	,	-19983	,	-16450	,	-5.9288363	,	0
3,34	,	41655	,	-19981	,	-16453	,	-6.690438	,	0
3,34	,	41671	,	-19988	,	-16463	,	-7.412814	,	0
3,34	,	41687	,	-19990	,	-16466	,	-8.044062	,	0
3,34	,	41719	,	-19985	,	-16464	,	-8.532807	,	0
3,34	,	41735	,	-19986	,	-16475	,	-8.747901	,	0
3,34	,	41751	,	-19989	,	-16463	,	-8.568964	,	0
3,34	,	41783	,	-19995	,	-16470	,	-8.045926	,	0
3,34	,	41799	,	-19993	,	-16463	,	-7.3649516	,	0
3,34	,	41831	,	-19995	,	-16467	,	-6.6819572	,	0
3,34	,	41847	,	-20000	,	-16465	,	-6.0774784	,	0
3,34	,	41863	,	-19987	,	-16462	,	-5.5640507	,	0
3,34	,	41895	,	-19984	,	-16465	,	-4.993347	,	0
3,34	,	41911	,	-19979	,	-16470	,	-4.1134143	,	0
3,34	,	41927	,	-19969	,	-16470	,	-2.7374227	,	0
3,34	,	41959	,	-19959	,	-16458	,	-0.7477584	,	1
3,34	,	41974	,	-19964	,	-16470	,	1.8528662	,	2
3,34	,	41991	,	-19973	,	-16457	,	4.734962	,	4
3,34	,	42022	,	-19961	,	-16465	,	7.331888	,	6
3,34	,	42038	,	-19973	,	-16461	,	9.20619	,	8
3,34	,	42071	,	-19969	,	-16458	,	10.135501	,	9
3,34	,	42087	,	-19957	,	-16460	,	10.118061	,	9
3,34	,	42103	,	-19954	,	-16452	,	9.481112	,	9
3,34	,	42135	,	-19957	,	-16454	,	8.661441	,	9
3,34	,	42151	,	-19944	,	-16461	,	7.93797	,	8
3,34	,	42166	,	-19961	,	-16452	,	7.417375	,	7
3,34	,	42199	,	-19959	,	-16457	,	6.9802375	,	5
3,34	,	42215	,	-19952	,	-16447	,	6.410706	,	3
3,34	,	42246	,	-19941	,	-16455	,	5.7433968	,	1
3,34	,	42263	,	-19944	,	-16446	,	5.247099	,	0
3,35	,	42278	,	-19956	,	-16454	,	5.030729	,	0
3,35	,	42311	,	-19958	,	-16449	,	4.8507705	,	0
3,35	,	42327	,	-19949	,	-16447	,	4.417162	,	0
3,35	,	42342	,	-19963	,	-16447	,	3.669652	,	0
3,35	,	42374	,	-19965	,	-16458	,	2.612597	,	0
3,35	,	42390	,	-19959	,	-16455	,	1.2492845	,	0
3,35	,	42407	,	-19953	,	-16451	,	-0.21195209	,	0
3,35	,	42439	,	-19963	,	-16459	,	-1.4481775	,	0
3,35	,	42455	,	-19969	,	-16438	,	-2.363531	,	0
3,35	,	42487	,	-19981	,	-16457	,	-3.1698594	,	0
3,35	,	42503	,	-19971	,	-16451	,	-4.1172757	,	0
3,35	,	42519	,	-19974	,	-16462	,	-5.1901813	,	0
3,35	,	42550	,	-19968	,	-16462	,	-6.127289	,	0
3,35	,	42566	,	-19979	,	-16455	,	-6.699598	,	0
3,35	,	42582	,	-19988	,	-16458	,	-6.939457	,	0
3,35	,	42615	,	-19987	,	-16461	,	-7.093507	,	0
3,35	,	42631	,	-19982	,	-16456	,	-7.301258	,	0
3,35	,	42662	,	-19989	,	-16459	,	-7.472674	,	0
3,35	,	42678	,	-19992	,	-16465	,	-7.5225224	,	0
3,35	,	42694	,	-19991	,	-16467	,	-7.478203	,	0
3,35	,	42726	,	-19992	,	-16471	,	-7.3570986	,	0
3,35	,	42742	,	-19996	,	-16471	,	-7.14299	,	0
3,35	,	42758	,	-19999	,	-16465	,	-6.872176	,	0
3,35	,	42790	,	-20015	,	-16473	,	-6.696965	,	0
3,35	,	42806	,	-20007	,	-16474	,	-6.825513	,	0
3,35	,	42822	,	-19982	,	-16467	,	-7.1613765	,	0
3,35	,	42854	,	-19984	,	-16465	,	-7.1332717	,	0
3,35	,	42870	,	-19982	,	-16451	,	-6.21102	,	0
3,35	,	42902	,	-19970	,	-16459	,	-4.3032103	,	0
3,35	,	42918	,	-19965	,	-16450	,	-1.5554295	,	1
3,35	,	42934	,	-19965	,	-16455	,	1.7843657	,	3
3,35	,	42966	,	-19957	,	-16450	,	5.3335633	,	6
3,35	,	42982	,	-19954	,	-16459	,	8.706882	,	9
3,35	,	42998	,	-19960	,	-16459	,	11.579204	,	12
3,35	,	43030	,	-19957	,	-16455	,	13.627104	,	14
3,35	,	43046	,	-19962	,	-16457	,	14.612263	,	16
3,35	,	43078	,	-19964	,	-16442	,	14.462349	,	16
3,35	,	43094	,	-19939	,	-16442	,	13.368923	,	16
3,35	,	43110	,	-19948	,	-16451	,	11.856565	,	15
3,35	,	43142	,	-19946	,	-16464	,	10.422998	,	13
3,35	,	43158	,	-19949	,	-16442	,	9.203982	,	10
3,35	,	43174	,	-19941	,	-16446	,	8.146555	,	7
3,35	,	43206	,	-19945	,	-16447	,	7.2319775	,	4
3,35	,	43222	,	-19948	,	-16449	,	6.4315896	,	2
3,35	,	43238	,	-19944	,	-16443	,	5.6564064	,	0
3,35	,	43270	,	-19943	,	-16453	,	4.870371	,	0
3,36	,	43286	,	-19946	,	-16445	,	4.116823	,	0
3,36	,	43318	,	-19945	,	-16451	,	3.4151392	,	0
3,36	,	43334	,	-19950	,	-16445	,	2.7296112	,	0
3,36	,	43350	,	-19931	,	-16450	,	2.0862556	,	0
3,36	,	43382	,	-19944	,	-16444	,	1.6518042	,	0
3,36	,	43398	,	-19959	,	-16444	,	1.434902	,	0
3,36	,	43414	,	-19960	,	-16450	,	1.0757375	,	0
3,36	,	43446	,	-19957	,	-16448	,	0.24459499	,	0
3,36	,	43462	,	-19953	,	-16439	,	-0.98699754	,	0
3,36	,	43494	,	-19960	,	-16451	,	-2.309382	,	0
3,36	,	43510	,	-19952	,	-16451	,	-3.457934	,	0
3,36	,	43526	,	-19956	,	-16449	,	-4.248709	,	0
3,36	,	43558	,	-19962	,	-16445	,	-4.6065893	,	0
3,36	,	43574	,	-19960	,	-16458	,	-4.6366034	,	0
3,36	,	43590	,	-19960	,	-16458	,	-4.4888783	,	0
3,36	,	43622	,	-19960	,	-16454	,	-4.2238607	,	0
3,36	,	43638	,	-19971	,	-16454	,	-3.9060636	,	0
3,36	,	43654	,	-19975	,	-16453	,	-3.7254863	,	0
3,36	,	43686	,	-19972	,	-16455	,	-3.87214	,	0
3,36	,	43702	,	-19976	,	-16462	,	-4.3375673	,	0
3,36	,	43734	,	-19975	,	-16457	,	-4.966279	,	0
3,36	,	43750	,	-19970	,	-16464	,	-5.560243	,	0
3,36	,	43766	,	-19983	,	-16470	,	-5.953713	,	0
3,36	,	43798	,	-19979	,	-16463	,	-6.1375465	,	0
3,36	,	43814	,	-19978	,	-16469	,	-6.1713543	,	0
3,36	,	43830	,	-19974	,	-16453	,	-6.0090017	,	0
3,36	,	43862	,	-19961	,	-16450	,	-5.4934006	,	0
3,36	,	43878	,	-19955	,	-16438	,	-4.395734	,	0
3,36	,	43910	,	-19952	,	-16444	,	-2.5504467	,	1
3,36	,	43926	,	-19950	,	-16446	,	-0.0368526	,	2
3,36	,	43942	,	-19941	,	-16439	,	2.8683605	,	4
3,36	,	43974	,	-19944	,	-16437	,	5.849551	,	6
3,36	,	43990	,	-19934	,	-16429	,	8.613028	,	8
3,36	,	44006	,	-19936	,	-16439	,	10.931574	,	10
3,36	,	44038	,	-19933	,	-16440	,	12.652456	,	12
3,36	,	44053	,	-19931	,	-16449	,	13.675156	,	13
3,36	,	44070	,	-19929	,	-16433	,	13.991647	,	14
3,36	,	44102	,	-19929	,	-16436	,	13.684706	,	13
3,36	,	44118	,	-19928	,	-16435	,	12.864601	,	12
3,36	,	44150	,	-19917	,	-16432	,	11.697411	,	10
3,36	,	44166	,	-19919	,	-16441	,	10.453306	,	8
3,36	,	44182	,	-19922	,	-16440	,	9.343542	,	6
3,36	,	44214	,	-19935	,	-16428	,	8.299013	,	4
3,36	,	44229	,	-19925	,	-16425	,	7.0771947	,	2
3,36	,	44246	,	-19925	,	-16434	,	5.609289	,	1
3,37	,	44278	,	-19919	,	-16425	,	4.101204	,	0
3,37	,	44294	,	-19934	,	-16447	,	2.766214	,	0
3,37	,	44326	,	-19922	,	-16426	,	1.6288333	,	0
3,37	,	44342	,	-19935	,	-16444	,	0.6316532	,	0
3,37	,	44358	,	-19929	,	-16442	,	-0.263682	,	0
3,37	,	44390	,	-19942	,	-16438	,	-1.1118639	,	0
3,37	,	44405	,	-19929	,	-16432	,	-1.9575704	,	0
3,37	,	44421	,	-19932	,	-16436	,	-2.7183337	,	0
3,37	,	44453	,	-19945	,	-16439	,	-3.2808316	,	0
3,37	,	44469	,	-19940	,	-16441	,	-3.715148	,	0
3,37	,	44485	,	-19939	,	-16445	,	-4.122697	,	0
3,37	,	44518	,	-19945	,	-16443	,	-4.469407	,	0
3,37	,	44534	,	-19943	,	-16444	,	-4.7176113	,	0
3,37	,	44566	,	-19944	,	-16442	,	-4.862689	,	0
3,37	,	44582	,	-19944	,	-16450	,	-4.8775463	,	0
3,37	,	44598	,	-19958	,	-16443	,	-4.801296	,	0
3,37	,	44630	,	-19958	,	-16440	,	-4.8191714	,	0
3,37	,	44645	,	-19965	,	-16453	,	-5.129076	,	0
3,37	,	44661	,	-19964	,	-16454	,	-5.783388	,	0
3,37	,	44693	,	-19966	,	-16446	,	-6.67661	,	0
3,37	,	44710	,	-19966	,	-16454	,	-7.601343	,	0
3,37	,	44742	,	-19967	,	-16460	,	-8.338443	,	0
3,37	,	44758	,	-19975	,	-16471	,	-8.772186	,	0
3,37	,	44773	,	-19974	,	-16441	,	-8.938763	,	0
3,37	,	44805	,	-19977	,	-16460	,	-8.925535	,	0
3,37	,	44821	,	-19963	,	-16456	,	-8.705917	,	0
3,37	,	44837	,	-19949	,	-16441	,	-8.026497	,	0
3,37	,	44870	,	-19949	,	-16451	,	-6.5342746	,	0
3,37	,	44886	,	-19941	,	-16458	,	-4.1044116	,	1
3,37	,	44918	,	-19932	,	-16438	,	-0.89634466	,	3
3,37	,	44934	,	-19930	,	-16447	,	2.8147225	,	6
3,37	,	44949	,	-19921	,	-16440	,	6.6923504	,	9
3,37	,	44981	,	-19926	,	-16435	,	10.353722	,	12
3,37	,	44997	,	-19924	,	-16443	,	13.390497	,	15
3,37	,	45013	,	-19919	,	-16430	,	15.470608	,	18
3,37	,	45046	,	-19927	,	-16438	,	16.454891	,	20
3,37	,	45062	,	-19919	,	-16435	,	16.352646	,	20
3,37	,	45078	,	-19925	,	-16427	,	15.291502	,	19
3,37	,	45110	,	-19929	,	-16426	,	13.472343	,	17
3,37	,	45125	,	-19920	,	-16443	,	11.11447	,	14
3,37	,	45157	,	-19909	,	-16439	,	8.593153	,	11
3,37	,	45173	,	-19917	,	-16430	,	6.3994975	,	8
3,37	,	45189	,	-19907	,	-16440	,	4.8313007	,	5
3,37	,	45221	,	-19905	,	-16439	,	3.960906	,	2
3,37	,	45237	,	-19915	,	-16432	,	3.7239223	,	0
3,37	,	45253	,	-19905	,	-16423	,	3.8903596	,	0
3,38	,	45285	,	-19913	,	-16425	,	4.1920924	,	0
3,38	,	45301	,	-19907	,	-16432	,	4.4389114	,	0
3,38	,	45333	,	-19914	,	-16432	,	4.499459	,	0
3,38	,	45349	,	-19907	,	-16439	,	4.314784	,	0
3,38	,	45365	,	-19919	,	-16437	,	3.8748887	,	0
3,38	,	45397	,	-19921	,	-16438	,	3.1231966	,	0
3,38	,	45413	,	-19912	,	-16442	,	2.0327637	,	0
3,38	,	45429	,	-19932	,	-16426	,	0.7066492	,	0
3,38	,	45461	,	-19918	,	-16446	,	-0.75152194	,	0
3,38	,	45477	,	-19924	,	-16433	,	-2.2138147	,	0
3,38	,	45493	,	-19934	,	-16434	,	-3.5173075	,	0
3,38	,	45525	,	-19929	,	-16435	,	-4.6353865	,	0
3,38	,	45541	,	-19930	,	-16440	,	-5.570513	,	0
3,38	,	45573	,	-19933	,	-16435	,	-6.2405725	,	0
3,38	,	45589	,	-19936	,	-16440	,	-6.610114	,	0
3,38	,	45605	,	-19946	,	-16438	,	-6.779147	,	0
3,38	,	45637	,	-19942	,	-16438	,	-6.919314	,	0
3,38	,	45653	,	-19944	,	-16442	,	-7.1061697	,	0
3,38	,	45669	,	-19945	,	-16440	,	-7.273984	,	0
3,38	,	45701	,	-19941	,	-16446	,	-7.3123293	,	0
3,38	,	45717	,	-19949	,	-16440	,	-7.1391654	,	0
3,38	,	45749	,	-19956	,	-16441	,	-6.8085666	,	0
3,38	,	45765	,	-19965	,	-16451	,	-6.5583887	,	0
3,38	,	45781	,	-19962	,	-16455	,	-6.633234	,	0
3,38	,	45813	,	-19954	,	-16440	,	-7.0193367	,	0
3,38	,	45829	,	-19937	,	-16436	,	-7.3292904	,	0
3,38	,	45845	,	-19931	,	-16440	,	-6.9686165	,	0
3,38	,	45877	,	-19927	,	-16437	,	-5.5071735	,	0
3,38	,	45893	,	-19917	,	-16427	,	-2.9014182	,	1
3,38	,	45909	,	-19916	,	-16430	,	0.58751464	,	3
3,38	,	45941	,	-19908	,	-16424	,	4.540908	,	6
3,38	,	45957	,	-19906	,	-16433	,	8.500151	,	9
3,38	,	45989	,	-19902	,	-16425	,	12.05587	,	12
3,38	,	46005	,	-19908	,	-16431	,	14.848854	,	15
3,38	,	46021	,	-19905	,	-16432	,	16.575294	,	17
3,38	,	46053	,	-19906	,	-16429	,	17.08591	,	18
3,38	,	46069	,	-19913	,	-16423	,	16.41458	,	18
3,38	,	46085	,	-19907	,	-16427	,	14.711063	,	17
3,38	,	46117	,	-19889	,	-16419	,	12.349126	,	15
3,38	,	46133	,	-19893	,	-16417	,	9.959502	,	12
3,38	,	46165	,	-19887	,	-16433	,	8.076662	,	9
3,38	,	46181	,	-19890	,	-16422	,	6.883821	,	6
3,38	,	46197	,	-19885	,	-16425	,	6.3112698	,	3
3,38	,	46229	,	-19879	,	-16417	,	6.222245	,	1
3,38	,	46245	,	-19893	,	-16417	,	6.4443526	,	0
3,38	,	46261	,	-19893	,	-16423	,	6.656153	,	0
3,39	,	46293	,	-19889	,	-16422	,	6.520026	,	0
3,39	,	46309	,	-19895	,	-16421	,	5.9211335	,	0
3,39	,	46325	,	-19898	,	-16425	,	4.8880453	,	0
3,39	,	46357	,	-19891	,	-16423	,	3.5091398	,	0
3,39	,	46373	,	-19896	,	-16418	,	1.9878194	,	0
3,39	,	46405	,	-19896	,	-16426	,	0.5457108	,	0
3,39	,	46421	,	-19897	,	-16421	,	-0.69167197	,	0
3,39	,	46437	,	-19907	,	-16426	,	-1.7083216	,	0
3,39	,	46469	,	-19897	,	-16421	,	-2.564185	,	0
3,39	,	46485	,	-19899	,	-16421	,	-3.2456863	,	0
3,39	,	46501	,	-19900	,	-16421	,	-3.6426914	,	0
3,39	,	46533	,	-19904	,	-16424	,	-3.730004	,	0
3,39	,	46549	,	-19908	,	-16418	,	-3.6342132	,	0
3,39	,	46581	,	-19902	,	-16428	,	-3.508236	,	0
3,39	,	46597	,	-19910	,	-16422	,	-3.4152102	,	0
3,39	,	46613	,	-19911	,	-16430	,	-3.3871005	,	0
3,39	,	46645	,	-19920	,	-16414	,	-3.5140464	,	0
3,39	,	46661	,	-19917	,	-16426	,	-3.8912952	,	0
3,39	,	46677	,	-19924	,	-16432	,	-4.5232115	,	0
3,39	,	46709	,	-19911	,	-16431	,	-5.274935	,	0
3,39	,	46725	,	-19931	,	-16434	,	-5.952555	,	0
3,39	,	46741	,	-19935	,	-16431	,	-6.5435686	,	0
3,39	,	46772	,	-19935	,	-16432	,	-7.210968	,	0
3,39	,	46789	,	-19935	,	-16439	,	-7.987756	,	0
3,39	,	46821	,	-19931	,	-16425	,	-8.692157	,	0
3,39	,	46837	,	-19913	,	-16425	,	-8.986223	,	0
3,39	,	46853	,	-19905	,	-16436	,	-8.407263	,	0
3,39	,	46885	,	-19909	,	-16417	,	-6.651116	,	0
3,39	,	46901	,	-19901	,	-16411	,	-3.8582072	,	1
3,39	,	46917	,	-19882	,	-16419	,	-0.37715244	,	3
3,39	,	46949	,	-19873	,	-16421	,	3.6105068	,	6
3,39	,	46965	,	-19887	,	-16406	,	7.9050326	,	9
3,39	,	46996	,	-19874	,	-16404	,	11.990299	,	13
3,39	,	47012	,	-19880	,	-16402	,	15.282672	,	17
3,39	,	47028	,	-19878	,	-16407	,	17.416206	,	20
3,39	,	47061	,	-19876	,	-16415	,	18.242779	,	22
3,39	,	47077	,	-19870	,	-16412	,	17.863525	,	22
3,39	,	47093	,	-19884	,	-16396	,	16.53791	,	21
3,39	,	47125	,	-19877	,	-16402	,	14.47515	,	19
3,39	,	47141	,	-19868	,	-16394	,	11.927636	,	16
3,39	,	47157	,	-19866	,	-16403	,	9.344923	,	13
3,39	,	47189	,	-19861	,	-16400	,	7.1901245	,	9
3,39	,	47204	,	-19868	,	-16395	,	5.689588	,	5
3,39	,	47236	,	-19865	,	-16399	,	4.7788343	,	2
3,39	,	47252	,	-19864	,	-16394	,	4.2511973	,	0
3,39	,	47269	,	-19858	,	-16396	,	3.9655082	,	0
3,40	,	47301	,	-19856	,	-16395	,	3.9040148	,	0
3,40	,	47317	,	-19865	,	-16404	,	4.0390406	,	0
3,40	,	47332	,	-19869	,	-16400	,	4.1693807	,	0
3,40	,	47364	,	-19876	,	-16408	,	3.972503	,	0
3,40	,	47380	,	-19867	,	-16406	,	3.249411	,	0
3,40	,	47413	,	-19871	,	-16408	,	2.0862167	,	0
3,40	,	47429	,	-19876	,	-16406	,	0.71795297	,	0
3,40	,	47445	,	-19881	,	-16409	,	-0.71806586	,	0
3,40	,	47476	,	-19876	,	-16401	,	-2.1668572	,	0
3,40	,	47492	,	-19881	,	-16404	,	-3.512217	,	0
3,40	,	47508	,	-19879	,	-16402	,	-4.605242	,	0
3,40	,	47540	,	-19881	,	-16410	,	-5.3465357	,	0
3,40	,	47557	,	-19889	,	-16397	,	-5.734664	,	0
3,40	,	47588	,	-19884	,	-16403	,	-5.8746457	,	0
3,40	,	47604	,	-19890	,	-16409	,	-5.869558	,	0
3,40	,	47620	,	-19891	,	-16409	,	-5.7799063	,	0
3,40	,	47653	,	-19895	,	-16412	,	-5.681072	,	0
3,40	,	47669	,	-19907	,	-16420	,	-5.695267	,	0
3,40	,	47684	,	-19900	,	-16414	,	-5.9537153	,	0
3,40	,	47716	,	-19911	,	-16411	,	-6.473933	,	0
3,40	,	47732	,	-19915	,	-16425	,	-7.1974845	,	0
3,40	,	47749	,	-19916	,	-16416	,	-8.089567	,	0
3,40	,	47780	,	-19929	,	-16436	,	-9.113115	,	0
3,40	,	47796	,	-19914	,	-16409	,	-10.177986	,	0
3,40	,	47828	,	-19907	,	-16409	,	-10.988755	,	0
3,40	,	47844	,	-19889	,	-16407	,	-11.002354	,	0
3,40	,	47861	,	-19890	,	-16409	,	-9.721098	,	0
3,40	,	47893	,	-19878	,	-16405	,	-7.0123425	,	1
3,40	,	47908	,	-19876	,	-16405	,	-3.1356368	,	3
3,40	,	47924	,	-19859	,	-16401	,	1.4774914	,	6
3,40	,	47956	,	-19867	,	-16404	,	6.369055	,	10
3,40	,	47972	,	-19861	,	-16394	,	11.0026245	,	14
3,40	,	48004	,	-19857	,	-16398	,	14.840505	,	18
3,40	,	48020	,	-19867	,	-16405	,	17.508234	,	21
3,40	,	48036	,	-19858	,	-16390	,	18.792542	,	23
3,40	,	48068	,	-19850	,	-16383	,	18.74654	,	24
3,40	,	48084	,	-19855	,	-16398	,	17.726374	,	23
3,40	,	48100	,	-19853	,	-16383	,	16.09914	,	21
3,40	,	48132	,	-19844	,	-16387	,	14.136877	,	18
3,40	,	48149	,	-19845	,	-16380	,	12.139615	,	14
3,40	,	48164	,	-19838	,	-16391	,	10.392161	,	10
3,40	,	48196	,	-19845	,	-16382	,	9.030083	,	6
3,40	,	48212	,	-19836	,	-16386	,	8.023079	,	3
3,40	,	48244	,	-19847	,	-16394	,	7.259441	,	1
3,40	,	48260	,	-19845	,	-16378	,	6.5764194	,	0
3,41	,	48276	,	-19846	,	-16381	,	5.8046274	,	0
3,41	,	48308	,	-19840	,	-16385	,	4.9002647	,	0
3,41	,	48324	,	-19843	,	-16389	,	3.9534745	,	0
3,41	,	48340	,	-19845	,	-16389	,	3.0547948	,	0
3,41	,	48372	,	-19848	,	-16385	,	2.210205	,	0
3,41	,	48388	,	-19855	,	-16395	,	1.3444532	,	0
3,41	,	48420	,	-19852	,	-16390	,	0.36861026	,	0
3,41	,	48436	,	-19850	,	-16387	,	-0.68774855	,	0
3,41	,	48452	,	-19858	,	-16392	,	-1.6898227	,	0
3,41	,	48484	,	-19863	,	-16396	,	-2.598488	,	0
3,41	,	48500	,	-19859	,	-16385	,	-3.4727263	,	0
3,41	,	48516	,	-19873	,	-16394	,	-4.3424406	,	0
3,41	,	48548	,	-19864	,	-16395	,	-5.217601	,	0
3,41	,	48564	,	-19873	,	-16391	,	-6.0591383	,	0
3,41	,	48580	,	-19875	,	-16399	,	-6.794637	,	0
3,41	,	48612	,	-19881	,	-16399	,	-7.428644	,	0
3,41	,	48628	,	-19874	,	-16402	,	-7.9716845	,	0
3,41	,	48660	,	-19876	,	-16393	,	-8.314844	,	0
3,41	,	48676	,	-19877	,	-16403	,	-8.315798	,	0
3,41	,	48692	,	-19884	,	-16413	,	-7.974125	,	0
3,41	,	48724	,	-19889	,	-16388	,	-7.469352	,	0
3,41	,	48740	,	-19898	,	-16399	,	-7.077323	,	0
3,41	,	48756	,	-19904	,	-16411	,	-7.0649977	,	0
3,41	,	48788	,	-19906	,	-16414	,	-7.570439	,	0
3,41	,	48804	,	-19901	,	-16404	,	-8.488493	,	0
3,41	,	48836	,	-19885	,	-16406	,	-9.407476	,	0
3,41	,	48852	,	-19874	,	-16403	,	-9.6797085	,	0
3,41	,	48868	,	-19869	,	-16396	,	-8.726483	,	0
3,41	,	48900	,	-19855	,	-16387	,	-6.3232403	,	0
3,41	,	48916	,	-19843	,	-16387	,	-2.5550346	,	2
3,41	,	48932	,	-19841	,	-16396	,	2.2823439	,	5
3,41	,	48964	,	-19843	,	-16383	,	7.616691	,	9
3,41	,	48980	,	-19840	,	-16382	,	12.668584	,	14
3,41	,	48996	,	-19834	,	-16393	,	16.764944	,	19
3,41	,	49028	,	-19834	,	-16387	,	19.554192	,	23
3,41	,	49044	,	-19838	,	-16384	,	20.919937	,	25
3,41	,	49076	,	-19829	,	-16380	,	20.88869	,	26
3,41	,	49092	,	-19824	,	-16379	,	19.72569	,	26
3,41	,	49108	,	-19818	,	-16381	,	17.922283	,	24
3,41	,	49140	,	-19818	,	-16365	,	15.964101	,	21
3,41	,	49156	,	-19818	,	-16376	,	14.133163	,	17
3,41	,	49172	,	-19816	,	-16378	,	12.503389	,	12
3,41	,	49204	,	-19813	,	-16366	,	11.072975	,	7
3,41	,	49220	,	-19812	,	-16374	,	9.849808	,	3
3,41	,	49251	,	-19818	,	-16372	,	8.798815	,	1
3,41	,	49268	,	-19813	,	-16371	,	7.812586	,	0
3,42	,	49284	,	-19815	,	-16367	,	6.809224	,	0
3,42	,	49316	,	-19815	,	-16378	,	5.772294	,	0
3,42	,	49332	,	-19823	,	-16371	,	4.6727514	,	0
3,42	,	49348	,	-19820	,	-16376	,	3.4547596	,	0
3,42	,	49380	,	-19830	,	-16370	,	2.0879986	,	0
3,42	,	49396	,	-19828	,	-16377	,	0.5702152	,	0
3,42	,	49412	,	-19831	,	-16366	,	-1.0527555	,	0
3,42	,	49443	,	-19837	,	-16376	,	-2.684021	,	0
3,42	,	49460	,	-19839	,	-16381	,	-4.252624	,	0
3,42	,	49492	,	-19840	,	-16384	,	-5.7008195	,	0
3,42	,	49508	,	-19833	,	-16384	,	-6.891832	,	0
3,42	,	49524	,	-19833	,	-16386	,	-7.610094	,	0
3,42	,	49556	,	-19842	,	-16380	,	-7.7317524	,	0
3,42	,	49572	,	-19842	,	-16384	,	-7.377591	,	0
3,42	,	49587	,	-19855	,	-16383	,	-6.846774	,	0
3,42	,	49619	,	-19846	,	-16389	,	-6.431305	,	0
3,42	,	49636	,	-19848	,	-16386	,	-6.2152314	,	0
3,42	,	49668	,	-19861	,	-16379	,	-6.134692	,	0
3,42	,	49684	,	-19856	,	-16391	,	-6.2091174	,	0
3,42	,	49700	,	-19872	,	-16396	,	-6.522254	,	0
3,42	,	49732	,	-19872	,	-16394	,	-7.153905	,	0
3,42	,	49747	,	-19875	,	-16390	,	-8.121643	,	0
3,42	,	49764	,	-19866	,	-16393	,	-9.231561	,	0
3,42	,	49796	,	-19856	,	-16393	,	-10.0528555	,	0
3,42	,	49811	,	-19850	,	-16384	,	-10.08028	,	0
3,42	,	49844	,	-19840	,	-16380	,	-8.956441	,	0
3,42	,	49860	,	-19827	,	-16384	,	-6.5443363	,	1
3,42	,	49876	,	-19821	,	-16367	,	-2.898613	,	3
3,42	,	49907	,	-19817	,	-16366	,	1.6850023	,	6
3,42	,	49924	,	-19812	,	-16367	,	6.677335	,	10
3,42	,	49939	,	-19817	,	-16372	,	11.433313	,	14
3,42	,	49971	,	-19815	,	-16367	,	15.312411	,	18
3,42	,	49988	,	-19808	,	-16372	,	17.877583	,	21
3,42	,	50019	,	-19801	,	-16371	,	19.082249	,	23
3,42	,	50035	,	-19806	,	-16364	,	19.160883	,	24
3,42	,	50051	,	-19806	,	-16368	,	18.34701	,	23
3,42	,	50084	,	-19797	,	-16365	,	16.837246	,	21
3,42	,	50099	,	-19782	,	-16374	,	15.0018425	,	18
3,42	,	50115	,	-19796	,	-16352	,	13.303912	,	14
3,42	,	50148	,	-19798	,	-16361	,	11.885878	,	10
3,42	,	50164	,	-19792	,	-16365	,	10.5657835	,	6
3,42	,	50196	,	-19793	,	-16368	,	9.223436	,	3
3,42	,	50212	,	-19792	,	-16357	,	7.8908677	,	1
3,42	,	50228	,	-19790	,	-16355	,	6.632155	,	0
3,42	,	50259	,	-19805	,	-16366	,	5.4397264	,	0
3,43	,	50275	,	-19799	,	-16362	,	4.1769037	,	0
3,43	,	50291	,	-19806	,	-16373	,	2.7305532	,	0
3,43	,	50323	,	-19809	,	-16372	,	1.1113272	,	0
3,43	,	50340	,	-19808	,	-16352	,	-0.61600244	,	0
3,43	,	50356	,	-19812	,	-16355	,	-2.3314838	,	0
3,43	,	50387	,	-19803	,	-16364	,	-3.8440897	,	0
3,43	,	50404	,	-19815	,	-16364	,	-4.9674416	,	0
3,43	,	50435	,	-19809	,	-16370	,	-5.6367145	,	0
3,43	,	50451	,	-19830	,	-16370	,	-5.9736433	,	0
3,43	,	50467	,	-19829	,	-16368	,	-6.2779217	,	0
3,43	,	50499	,	-19821	,	-16369	,	-6.778816	,	0
3,43	,	50515	,	-19828	,	-16372	,	-7.377629	,	0
3,43	,	50531	,	-19827	,	-16376	,	-7.8491383	,	0
3,43	,	50564	,	-19832	,	-16370	,	-8.092597	,	0
3,43	,	50580	,	-19835	,	-16377	,	-8.126269	,	0
3,43	,	50611	,	-19848	,	-16377	,	-8.086031	,	0
3,43	,	50627	,	-19828	,	-16371	,	-8.106862	,	0
3,43	,	50643	,	-19847	,	-16375	,	-8.135977	,	0
3,43	,	50675	,	-19849	,	-16389	,	-8.117758	,	0
3,43	,	50691	,	-19855	,	-16386	,	-8.182381	,	0
3,43	,	50707	,	-19857	,	-16390	,	-8.459822	,	0
3,43	,	50739	,	-19860	,	-16387	,	-8.947658	,	0
3,43	,	50755	,	-19868	,	-16395	,	-9.579002	,	0
3,43	,	50771	,	-19854	,	-16403	,	-10.233881	,	0
3,43	,	50803	,	-19841	,	-16385	,	-10.578683	,	0
3,43	,	50819	,	-19820	,	-16374	,	-10.013351	,	0
3,43	,	50851	,	-19814	,	-16378	,	-7.955668	,	0
3,43	,	50867	,	-19810	,	-16373	,	-4.2462945	,	2
3,43	,	50883	,	-19799	,	-16367	,	0.73719597	,	5
3,43	,	50915	,	-19806	,	-16368	,	6.298317	,	9
3,43	,	50931	,	-19806	,	-16357	,	11.594992	,	14
3,43	,	50947	,	-19802	,	-16362	,	15.836355	,	19
3,43	,	50979	,	-19797	,	-16361	,	18.590038	,	23
3,43	,	50995	,	-19805	,	-16364	,	19.797407	,	25
3,43	,	51027	,	-19795	,	-16353	,	19.578365	,	26
3,43	,	51043	,	-19789	,	-16358	,	18.249825	,	26
3,43	,	51059	,	-19785	,	-16358	,	16.338913	,	24
3,43	,	51091	,	-19789	,	-16367	,	14.322544	,	21
3,43	,	51107	,	-19778	,	-16358	,	12.462882	,	17
3,43	,	51123	,	-19783	,	-16356	,	10.896228	,	12
3,43	,	51155	,	-19787	,	-16359	,	9.630742	,	7
3,43	,	51171	,	-19783	,	-16361	,	8.521464	,	3
3,43	,	51187	,	-19778	,	-16345	,	7.4619145	,	1
3,43	,	51219	,	-19778	,	-16358	,	6.5000286	,	0
3,43	,	51235	,	-19783	,	-16360	,	5.691408	,	0
3,43	,	51267	,	-19787	,	-16354	,	4.955602	,	0
3,44	,	51283	,	-19786	,	-16367	,	4.141073	,	0
3,44	,	51299	,	-19795	,	-16368	,	3.1404948	,	0
3,44	,	51331	,	-19799	,	-16361	,	1.8701551	,	0
3,44	,	51347	,	-19804	,	-16362	,	0.2590357	,	0
3,44	,	51363	,	-19802	,	-16359	,	-1.6559904	,	0
3,44	,	51395	,	-19802	,	-16374	,	-3.6633203	,	0
3,44	,	51411	,	-19819	,	-16371	,	-5.5286484	,	0
3,44	,	51443	,	-19806	,	-16372	,	-7.162856	,	0
3,44	,	51459	,	-19810	,	-16375	,	-8.460856	,	0
3,44	,	51475	,	-19800	,	-16383	,	-9.1847	,	0
3,44	,	51507	,	-19812	,	-16370	,	-9.17001	,	0
3,44	,	51523	,	-19824	,	-16371	,	-8.578751	,	0
3,44	,	51539	,	-19825	,	-16378	,	-7.874836	,	0
3,44	,	51571	,	-19828	,	-16379	,	-7.4659667	,	0
3,44	,	51587	,	-19832	,	-16372	,	-7.481939	,	0
3,44	,	51603	,	-19828	,	-16378	,	-7.8344727	,	0
3,44	,	51635	,	-19843	,	-16375	,	-8.356181	,	0
3,44	,	51651	,	-19835	,	-16382	,	-8.936966	,	0
3,44	,	51683	,	-19840	,	-16382	,	-9.473352	,	0
3,44	,	51699	,	-19834	,	-16387	,	-9.7903	,	0
3,44	,	51715	,	-19854	,	-16376	,	-9.800138	,	0
3,44	,	51747	,	-19836	,	-16378	,	-9.582878	,	0
3,44	,	51763	,	-19828	,	-16372	,	-9.100768	,	0
3,44	,	51779	,	-19810	,	-16371	,	-8.006676	,	0
3,44	,	51811	,	-19805	,	-16367	,	-5.8935933	,	1
3,44	,	51827	,	-19804	,	-16361	,	-2.6584382	,	3
3,44	,	51859	,	-19809	,	-16363	,	1.3267295	,	6
3,44	,	51875	,	-19800	,	-16353	,	5.391485	,	9
3,44	,	51891	,	-19793	,	-16354	,	8.986266	,	13
3,44	,	51923	,	-19786	,	-16358	,	11.9016	,	16
3,44	,	51939	,	-19795	,	-16368	,	14.088944	,	18
3,44	,	51955	,	-19790	,	-16352	,	15.430832	,	20
3,44	,	51987	,	-19790	,	-16357	,	15.816311	,	21
3,44	,	52003	,	-19784	,	-16354	,	15.317421	,	20
3,44	,	52019	,	-19774	,	-16358	,	14.22282	,	18
3,44	,	52051	,	-19793	,	-16350	,	12.853926	,	15
3,44	,	52067	,	-19780	,	-16353	,	11.320305	,	12
3,44	,	52099	,	-19766	,	-16352	,	9.723728	,	8
3,44	,	52115	,	-19777	,	-16356	,	8.363668	,	5
3,44	,	52131	,	-19773	,	-16354	,	7.3995333	,	3
3,44	,	52163	,	-19778	,	-16351	,	6.7046633	,	1
3,44	,	52178	,	-19783	,	-16350	,	6.063429	,	0
3,44	,	52195	,	-19787	,	-16357	,	5.2513514	,	0
3,44	,	52226	,	-19786	,	-16349	,	4.115253	,	0
3,44	,	52243	,	-19791	,	-16357	,	2.6560607	,	0
3,45	,	52275	,	-19788	,	-16359	,	0.99277973	,	0
3,45	,	52291	,	-19795	,	-16362	,	-0.7046782	,	0
3,45	,	52307	,	-19809	,	-16360	,	-2.3628814	,	0
3,45	,	52339	,	-19800	,	-16357	,	-4.048104	,	0
3,45	,	52355	,	-19807	,	-16357	,	-5.7323737	,	0
3,45	,	52371	,	-19807	,	-16356	,	-7.2389617	,	0
3,45	,	52403	,	-19810	,	-16372	,	-8.421273	,	0
3,45	,	52418	,	-19816	,	-16354	,	-9.233965	,	0
3,45	,	52451	,	-19810	,	-16365	,	-9.691125	,	0
3,45	,	52467	,	-19823	,	-16378	,	-9.822646	,	0
3,45	,	52483	,	-19812	,	-16367	,	-9.686308	,	0
3,45	,	52514	,	-19822	,	-16365	,	-9.33402	,	0
3,45	,	52531	,	-19831	,	-16375	,	-8.85729	,	0
3,45	,	52547	,	-19822	,	-16379	,	-8.419615	,	0
3,45	,	52579	,	-19819	,	-16373	,	-8.026352	,	0
3,45	,	52595	,	-19834	,	-16380	,	-7.5541506	,	0
3,45	,	52610	,	-19828	,	-16375	,	-7.0338135	,	0
3,45	,	52643	,	-19845	,	-16389	,	-6.632613	,	0
3,45	,	52659	,	-19841	,	-16373	,	-6.5276623	,	0
3,45	,	52690	,	-19823	,	-16367	,	-6.6943054	,	0
3,45	,	52706	,	-19819	,	-16366	,	-6.7135224	,	0
3,45	,	52722	,	-19810	,	-16369	,	-6.0521226	,	0
3,45	,	52754	,	-19804	,	-16357	,	-4.4215927	,	0
3,45	,	52770	,	-19795	,	-16363	,	-1.8089197	,	1
3,45	,	52786	,	-19790	,	-16357	,	1.5969265	,	3
3,45	,	52819	,	-19795	,	-16364	,	5.4156985	,	6
3,45	,	52835	,	-19795	,	-16358	,	9.078204	,	9
3,45	,	52866	,	-19795	,	-16368	,	11.992275	,	12
3,45	,	52882	,	-19786	,	-16356	,	13.818831	,	14
3,45	,	52899	,	-19796	,	-16357	,	14.534643	,	15
3,45	,	52930	,	-19793	,	-16359	,	14.230288	,	15
3,45	,	52946	,	-19791	,	-16366	,	13.034281	,	15
3,45	,	52962	,	-19787	,	-16361	,	11.22213	,	14
3,45	,	52994	,	-19783	,	-16363	,	9.193447	,	12
3,45	,	53010	,	-19781	,	-16361	,	7.3277793	,	9
3,45	,	53026	,	-19779	,	-16369	,	5.873087	,	6
3,45	,	53058	,	-19792	,	-16360	,	4.854813	,	3
3,45	,	53074	,	-19784	,	-16360	,	4.0831237	,	1
3,45	,	53106	,	-19781	,	-16371	,	3.3921094	,	0
3,45	,	53122	,	-19793	,	-16355	,	2.7482958	,	0
3,45	,	53138	,	-19800	,	-16362	,	2.0281658	,	0
3,45	,	53170	,	-19793	,	-16368	,	1.0342942	,	0
3,45	,	53186	,	-19804	,	-16383	,	-0.25847805	,	0
3,45	,	53202	,	-19791	,	-16377	,	-1.6918459	,	0
3,45	,	53234	,	-19809	,	-16380	,	-3.0644715	,	0
3,45	,	53250	,	-19806	,	-16371	,	-4.293354	,	0
3,46	,	53282	,	-19809	,	-16376	,	-5.40413	,	0
3,46	,	53298	,	-19811	,	-16388	,	-6.374177	,	0
3,46	,	53314	,	-19813	,	-16382	,	-7.142999	,	0
3,46	,	53346	,	-19813	,	-16379	,	-7.670212	,	0
3,46	,	53362	,	-19819	,	-16382	,	-7.946207	,	0
3,46	,	53378	,	-19827	,	-16392	,	-8.053865	,	0
3,46	,	53410	,	-19832	,	-16392	,	-8.182143	,	0
3,46	,	53426	,	-19835	,	-16395	,	-8.506338	,	0
3,46	,	53442	,	-19834	,	-16398	,	-9.046619	,	0
3,46	,	53474	,	-19845	,	-16395	,	-9.700862	,	0
3,46	,	53490	,	-19839	,	-16394	,	-10.365843	,	0
3,46	,	53522	,	-19846	,	-16398	,	-10.927921	,	0
3,46	,	53538	,	-19853	,	-16402	,	-11.302862	,	0
3,46	,	53554	,	-19869	,	-16400	,	-11.599394	,	0
3,46	,	53586	,	-19855	,	-16396	,	-12.008993	,	0
3,46	,	53602	,	-19850	,	-16408	,	-12.432791	,	0
3,46	,	53618	,	-19850	,	-16389	,	-12.477323	,	0
3,46	,	53650	,	-19839	,	-16398	,	-11.799879	,	0
3,46	,	53666	,	-19832	,	-16390	,	-10.209615	,	0
3,46	,	53698	,	-19830	,	-16388	,	-7.656275	,	1
3,46	,	53714	,	-19829	,	-16385	,	-4.3389997	,	3
3,46	,	53730	,	-19826	,	-16386	,	-0.68136454	,	6
3,46	,	53762	,	-19815	,	-16401	,	2.8990474	,	9
3,46	,	53778	,	-19813	,	-16380	,	6.170141	,	12
3,46	,	53794	,	-19809	,	-16394	,	9.026164	,	15
3,46	,	53826	,	-19811	,	-16388	,	11.345758	,	17
3,46	,	53842	,	-19820	,	-16390	,	12.918112	,	19
3,46	,	53858	,	-19816	,	-16378	,	13.495503	,	20
3,46	,	53890	,	-19808	,	-16381	,	13.038279	,	19
3,46	,	53906	,	-19811	,	-16379	,	11.826478	,	17
3,46	,	53938	,	-19810	,	-16387	,	10.221069	,	14
3,46	,	53954	,	-19811	,	-16379	,	8.466026	,	11
3,46	,	53970	,	-19815	,	-16378	,	6.6926575	,	8
3,46	,	54002	,	-19815	,	-16386	,	4.952147	,	5
3,46	,	54018	,	-19804	,	-16388	,	3.328981	,	3
3,46	,	54034	,	-19811	,	-16368	,	2.0124598	,	1
3,46	,	54066	,	-19814	,	-16385	,	1.1050041	,	0
3,46	,	54082	,	-19817	,	-16387	,	0.4869473	,	0
3,46	,	54114	,	-19821	,	-16386	,	-0.050714135	,	0
3,46	,	54130	,	-19817	,	-16379	,	-0.64271265	,	0
3,46	,	54146	,	-19826	,	-16385	,	-1.310656	,	0
3,46	,	54178	,	-19824	,	-16388	,	-2.0397959	,	0
3,46	,	54194	,	-19826	,	-16401	,	-2.803391	,	0
3,46	,	54210	,	-19841	,	-16397	,	-3.5972927	,	0
3,46	,	54242	,	-19839	,	-16390	,	-4.5265284	,	0
3,46	,	54258	,	-19831	,	-16407	,	-5.6183834	,	0
3,46	,	54274	,	-19839	,	-16390	,	-6.653442	,	0
3,47	,	54306	,	-19848	,	-16401	,	-7.442654	,	0
3,47	,	54322	,	-19839	,	-16403	,	-7.9967985	,	0
3,47	,	54354	,	-19844	,	-16400	,	-8.309225	,	0
3,47	,	54370	,	-19853	,	-16395	,	-8.351805	,	0
3,47	,	54386	,	-19847	,	-16404	,	-8.219572	,	0
3,47	,	54418	,	-19855	,	-16404	,	-8.017759	,	0
3,47	,	54434	,	-19857	,	-16405	,	-7.806554	,	0
3,47	,	54450	,	-19870	,	-16406	,	-7.7096586	,	0
3,47	,	54482	,	-19861	,	-16408	,	-7.858387	,	0
3,47	,	54498	,	-19872	,	-16402	,	-8.236021	,	0
3,47	,	54530	,	-19868	,	-16408	,	-8.712433	,	0
3,47	,	54546	,	-19880	,	-16410	,	-9.185881	,	0
3,47	,	54562	,	-19869	,	-16418	,	-9.591062	,	0
3,47	,	54594	,	-19865	,	-16409	,	-9.765198	,	0
3,47	,	54610	,	-19851	,	-16407	,	-9.3857765	,	0
3,47	,	54626	,	-19849	,	-16407	,	-8.124734	,	0
3,47	,	54658	,	-19839	,	-16399	,	-5.849028	,	1
3,47	,	54674	,	-19836	,	-16398	,	-2.6747737	,	3
3,47	,	54690	,	-19838	,	-16405	,	1.0560117	,	6
3,47	,	54722	,	-19839	,	-16407	,	4.807704	,	9
3,47	,	54738	,	-19832	,	-16386	,	8.040237	,	12
3,47	,	54770	,	-19842	,	-16404	,	10.4040165	,	15
3,47	,	54786	,	-19843	,	-16393	,	11.682752	,	17
3,47	,	54802	,	-19840	,	-16400	,	11.779388	,	18
3,47	,	54833	,	-19845	,	-16401	,	10.814317	,	18
3,47	,	54849	,	-19843	,	-16398	,	9.06251	,	17
3,47	,	54866	,	-19832	,	-16393	,	6.909173	,	15
3,47	,	54898	,	-19833	,	-16393	,	4.845883	,	12
3,47	,	54914	,	-19837	,	-16390	,	3.2412229	,	9
3,47	,	54945	,	-19827	,	-16403	,	2.1991322	,	6
3,47	,	54961	,	-19834	,	-16400	,	1.6965101	,	3
3,47	,	54977	,	-19836	,	-16392	,	1.6108263	,	1
3,47	,	55010	,	-19834	,	-16391	,	1.7083234	,	0
3,47	,	55025	,	-19833	,	-16402	,	1.7996188	,	0
3,47	,	55042	,	-19841	,	-16403	,	1.7838728	,	0
3,47	,	55074	,	-19843	,	-16398	,	1.5527494	,	0
3,47	,	55090	,	-19839	,	-16398	,	1.0366085	,	0
3,47	,	55106	,	-19848	,	-16400	,	0.2828114	,	0
3,47	,	55137	,	-19857	,	-16402	,	-0.6866926	,	0
3,47	,	55153	,	-19846	,	-16395	,	-1.899613	,	0
3,47	,	55185	,	-19855	,	-16404	,	-3.2318718	,	0
3,47	,	55201	,	-19855	,	-16400	,	-4.472332	,	0
3,47	,	55217	,	-19854	,	-16412	,	-5.490922	,	0
3,47	,	55249	,	-19859	,	-16398	,	-6.2141037	,	0
3,47	,	55265	,	-19860	,	-16413	,	-6.6330914	,	0
3,48	,	55281	,	-19865	,	-16415	,	-6.8255653	,	0
3,48	,	55314	,	-19862	,	-16412	,	-6.8804064	,	0
3,48	,	55330	,	-19863	,	-16420	,	-6.8142548	,	0
3,48	,	55361	,	-19878	,	-16417	,	-6.6550207	,	0
3,48	,	55377	,	-19866	,	-16417	,	-6.5283985	,	0
3,48	,	55393	,	-19875	,	-16427	,	-6.492486	,	0
3,48	,	55425	,	-19886	,	-16426	,	-6.550709	,	0
3,48	,	55441	,	-19882	,	-16414	,	-6.803796	,	0
3,48	,	55458	,	-19892	,	-16417	,	-7.3166866	,	0
3,48	,	55489	,	-19885	,	-16417	,	-8.010487	,	0
3,48	,	55505	,	-19881	,	-16412	,	-8.664885	,	0
3,48	,	55522	,	-19871	,	-16413	,	-8.920544	,	0
3,48	,	55553	,	-19863	,	-16411	,	-8.394323	,	0
3,48	,	55569	,	-19864	,	-16407	,	-6.8722873	,	0
3,48	,	55601	,	-19861	,	-16406	,	-4.4626346	,	1
3,48	,	55617	,	-19848	,	-16392	,	-1.48135	,	3
3,48	,	55633	,	-19851	,	-16409	,	1.7782936	,	5
3,48	,	55665	,	-19850	,	-16412	,	5.0096297	,	8
3,48	,	55681	,	-19854	,	-16393	,	7.8132563	,	11
3,48	,	55697	,	-19846	,	-16399	,	9.848667	,	13
3,48	,	55729	,	-19843	,	-16397	,	11.02219	,	15
3,48	,	55745	,	-19854	,	-16397	,	11.409579	,	16
3,48	,	55777	,	-19851	,	-16406	,	11.04015	,	16
3,48	,	55793	,	-19845	,	-16407	,	9.978146	,	15
3,48	,	55809	,	-19857	,	-16403	,	8.437013	,	13
3,48	,	55841	,	-19848	,	-16404	,	6.628707	,	11
3,48	,	55857	,	-19838	,	-16402	,	4.7984495	,	8
3,48	,	55873	,	-19843	,	-16408	,	3.3006825	,	5
3,48	,	55905	,	-19831	,	-16389	,	2.3991926	,	3
3,48	,	55921	,	-19843	,	-16403	,	2.144118	,	1
3,48	,	55937	,	-19833	,	-16401	,	2.394948	,	0
3,48	,	55969	,	-19843	,	-16401	,	2.8993855	,	0
3,48	,	55985	,	-19847	,	-16398	,	3.3594105	,	0
3,48	,	56017	,	-19849	,	-16403	,	3.4689825	,	0
3,48	,	56033	,	-19849	,	-16406	,	3.0576706	,	0
3,48	,	56049	,	-19850	,	-16398	,	2.1693559	,	0
3,48	,	56081	,	-19853	,	-16402	,	0.9680996	,	0
3,48	,	56097	,	-19849	,	-16410	,	-0.34792876	,	0
3,48	,	56113	,	-19849	,	-16423	,	-1.5580351	,	0
3,48	,	56145	,	-19856	,	-16398	,	-2.4988716	,	0
3,48	,	56161	,	-19858	,	-16408	,	-3.1780128	,	0
3,48	,	56193	,	-19856	,	-16413	,	-3.6869562	,	0
3,48	,	56209	,	-19866	,	-16404	,	-4.089979	,	0
3,48	,	56225	,	-19859	,	-16400	,	-4.4491553	,	0
3,48	,	56257	,	-19863	,	-16408	,	-4.7687054	,	0
3,48	,	56273	,	-19876	,	-16407	,	-5.036804	,	0
3,49	,	56289	,	-19867	,	-16420	,	-5.341498	,	0
3,49	,	56321	,	-19877	,	-16411	,	-5.734846	,	0
3,49	,	56337	,	-19879	,	-16413	,	-6.191606	,	0
3,49	,	56369	,	-19882	,	-16413	,	-6.7183723	,	0
3,49	,	56385	,	-19893	,	-16409	,	-7.352901	,	0
3,49	,	56401	,	-19885	,	-16408	,	-8.111742	,	0
3,49	,	56433	,	-19879	,	-16411	,	-8.836808	,	0
3,49	,	56449	,	-19873	,	-16408	,	-9.161001	,	0
3,49	,	56465	,	-19870	,	-16408	,	-8.743029	,	0
3,49	,	56497	,	-19853	,	-16402	,	-7.390883	,	0
3,49	,	56513	,	-19838	,	-16402	,	-4.9526653	,	1
3,49	,	56529	,	-19841	,	-16395	,	-1.3743048	,	3
3,49	,	56561	,	-19841	,	-16393	,	3.0140872	,	6
3,49	,	56577	,	-19837	,	-16406	,	7.5309935	,	10
3,49	,	56609	,	-19832	,	-16388	,	11.533358	,	14
3,49	,	56625	,	-19828	,	-16399	,	14.646167	,	18
3,49	,	56641	,	-19838	,	-16390	,	16.673414	,	21
3,49	,	56673	,	-19824	,	-16393	,	17.508892	,	23
3,49	,	56689	,	-19817	,	-16392	,	17.295471	,	23
3,49	,	56705	,	-19818	,	-16390	,	16.434782	,	22
3,49	,	56737	,	-19813	,	-16382	,	15.293347	,	20
3,49	,	56753	,	-19814	,	-16389	,	14.069978	,	17
3,49	,	56785	,	-19821	,	-16376	,	12.808929	,	13
3,49	,	56801	,	-19818	,	-16387	,	11.418936	,	9
3,49	,	56817	,	-19823	,	-16388	,	9.804312	,	5
3,49	,	56849	,	-19817	,	-16376	,	7.983884	,	2
3,49	,	56865	,	-19809	,	-16391	,	6.144531	,	0
3,49	,	56881	,	-19820	,	-16388	,	4.5513735	,	0
3,49	,	56913	,	-19816	,	-16387	,	3.3069444	,	0
3,49	,	56929	,	-19824	,	-16387	,	2.3102064	,	0
3,49	,	56945	,	-19817	,	-16386	,	1.430686	,	0
3,49	,	56977	,	-19826	,	-16383	,	0.6098815	,	0
3,49	,	56993	,	-19819	,	-16389	,	-0.15899289	,	0
3,49	,	57025	,	-19821	,	-16385	,	-0.8351555	,	0
3,49	,	57041	,	-19825	,	-16391	,	-1.3528206	,	0
3,49	,	57057	,	-19829	,	-16376	,	-1.7375708	,	0
3,49	,	57089	,	-19825	,	-16380	,	-2.086817	,	0
3,49	,	57105	,	-19832	,	-16388	,	-2.4444034	,	0
3,49	,	57120	,	-19822	,	-16391	,	-2.7773707	,	0
3,49	,	57153	,	-19835	,	-16390	,	-3.0241675	,	0
3,49	,	57169	,	-19831	,	-16392	,	-3.185919	,	0
3,49	,	57200	,	-19825	,	-16386	,	-3.276531	,	0
3,49	,	57216	,	-19842	,	-16394	,	-3.2747917	,	0
3,49	,	57233	,	-19837	,	-16394	,	-3.2774754	,	0
3,49	,	57264	,	-19835	,	-16384	,	-3.4002028	,	0
3,50	,	57281	,	-19847	,	-16405	,	-3.6289234	,	0
3,50	,	57297	,	-19841	,	-16386	,	-3.9619663	,	0
3,50	,	57329	,	-19856	,	-16411	,	-4.448493	,	0
3,50	,	57345	,	-19863	,	-16396	,	-5.189781	,	0
3,50	,	57361	,	-19858	,	-16398	,	-6.287183	,	0
3,50	,	57393	,	-19853	,	-16396	,	-7.582387	,	0
3,50	,	57408	,	-19836	,	-16388	,	-8.577496	,	0
3,50	,	57441	,	-19833	,	-16398	,	-8.669205	,	0
3,50	,	57457	,	-19815	,	-16380	,	-7.4284945	,	0
3,50	,	57473	,	-19815	,	-16381	,	-4.736505	,	1
3,50	,	57504	,	-19809	,	-16383	,	-0.83949184	,	3
3,50	,	57520	,	-19797	,	-16380	,	3.7492929	,	6
3,50	,	57537	,	-19795	,	-16373	,	8.509061	,	10
3,50	,	57569	,	-19785	,	-16376	,	13.017743	,	14
3,50	,	57585	,	-19782	,	-16374	,	16.942102	,	18
3,50	,	57616	,	-19783	,	-16378	,	20.010351	,	21
3,50	,	57632	,	-19770	,	-16373	,	22.028488	,	24
3,50	,	57648	,	-19779	,	-16361	,	22.960308	,	26
3,50	,	57680	,	-19770	,	-16380	,	22.863398	,	25
3,50	,	57696	,	-19777	,	-16371	,	21.820286	,	23
3,50	,	57712	,	-19770	,	-16355	,	19.974564	,	20
3,50	,	57744	,	-19766	,	-16372	,	17.57994	,	16
3,50	,	57760	,	-19758	,	-16346	,	15.030738	,	12
3,50	,	57776	,	-19766	,	-16356	,	12.702844	,	8
3,50	,	57808	,	-19761	,	-16360	,	10.735266	,	5
3,50	,	57824	,	-19759	,	-16362	,	9.098242	,	2
3,50	,	57856	,	-19758	,	-16367	,	7.7704735	,	0
3,50	,	57872	,	-19753	,	-16362	,	6.760813	,	0
3,50	,	57888	,	-19760	,	-16353	,	6.0541525	,	0
3,50	,	57920	,	-19756	,	-16354	,	5.553769	,	0
3,50	,	57937	,	-19751	,	-16358	,	5.1488113	,	0
3,50	,	57952	,	-19759	,	-16354	,	4.7992597	,	0
3,50	,	57984	,	-19758	,	-16368	,	4.442172	,	0
3,50	,	58000	,	-19764	,	-16354	,	3.9532998	,	0
3,50	,	58032	,	-19772	,	-16363	,	3.1875815	,	0
3,50	,	58048	,	-19764	,	-16358	,	2.0516706	,	0
3,50	,	58064	,	-19768	,	-16364	,	0.64952564	,	0
3,50	,	58096	,	-19769	,	-16364	,	-0.7833123	,	0
3,50	,	58112	,	-19776	,	-16364	,	-2.1001606	,	0
3,50	,	58128	,	-19774	,	-16364	,	-3.2698884	,	0
3,50	,	58160	,	-19772	,	-16370	,	-4.2455783	,	0
3,50	,	58176	,	-19778	,	-16362	,	-4.9415493	,	0
3,50	,	58192	,	-19771	,	-16371	,	-5.317334	,	0
3,50	,	58224	,	-19778	,	-16362	,	-5.3736997	,	0
3,50	,	58240	,	-19773	,	-16367	,	-5.137823	,	0
3,50	,	58272	,	-19786	,	-16369	,	-4.717557	,	0
3,51	,	58288	,	-19792	,	-16374	,	-4.3559046	,	0
3,51	,	58304	,	-19796	,	-16375	,	-4.3555465	,	0
3,51	,	58336	,	-19795	,	-16382	,	-4.855336	,	0
3,51	,	58352	,	-19796	,	-16375	,	-5.73018	,	0
3,51	,	58369	,	-19799	,	-16363	,	-6.7253666	,	0
3,51	,	58400	,	-19782	,	-16366	,	-7.5421133	,	0
3,51	,	58416	,	-19767	,	-16366	,	-7.726617	,	0
3,51	,	58448	,	-19761	,	-16373	,	-6.7490816	,	0
3,51	,	58464	,	-19751	,	-16347	,	-4.34505	,	0
3,51	,	58480	,	-19739	,	-16356	,	-0.6241846	,	2
3,51	,	58512	,	-19739	,	-16350	,	4.040373	,	5
3,51	,	58528	,	-19746	,	-16352	,	9.007074	,	9
3,51	,	58544	,	-19729	,	-16351	,	13.5089	,	13
3,51	,	58576	,	-19728	,	-16352	,	17.055954	,	17
3,51	,	58592	,	-19738	,	-16345	,	19.450382	,	20
3,51	,	58608	,	-19731	,	-16346	,	20.521545	,	22
3,51	,	58640	,	-19725	,	-16343	,	20.25848	,	23
3,51	,	58656	,	-19728	,	-16350	,	18.948675	,	23
3,51	,	58688	,	-19727	,	-16359	,	16.951061	,	21
3,51	,	58704	,	-19715	,	-16340	,	14.600678	,	18
3,51	,	58720	,	-19704	,	-16336	,	12.350306	,	14
3,51	,	58752	,	-19702	,	-16337	,	10.698572	,	10
3,51	,	58768	,	-19711	,	-16348	,	9.84808	,	6
3,51	,	58784	,	-19706	,	-16335	,	9.57224	,	3
3,51	,	58816	,	-19719	,	-16336	,	9.43767	,	1
3,51	,	58832	,	-19710	,	-16335	,	9.049376	,	0
3,51	,	58864	,	-19705	,	-16337	,	8.264057	,	0
3,51	,	58880	,	-19715	,	-16347	,	7.205691	,	0
3,51	,	58896	,	-19715	,	-16351	,	5.9792566	,	0
3,51	,	58928	,	-19711	,	-16342	,	4.606208	,	0
3,51	,	58944	,	-19714	,	-16341	,	3.1842864	,	0
3,51	,	58960	,	-19726	,	-16345	,	1.797905	,	0
3,51	,	58992	,	-19722	,	-16345	,	0.39027238	,	0
3,51	,	59008	,	-19727	,	-16344	,	-1.089087	,	0
3,51	,	59040	,	-19715	,	-16352	,	-2.51837	,	0
3,51	,	59056	,	-19730	,	-16349	,	-3.6858473	,	0
3,51	,	59072	,	-19732	,	-16346	,	-4.533379	,	0
3,51	,	59104	,	-19731	,	-16348	,	-5.1777864	,	0
3,51	,	59120	,	-19730	,	-16350	,	-5.6767917	,	0
3,51	,	59136	,	-19733	,	-16365	,	-5.983666	,	0
3,51	,	59168	,	-19741	,	-16343	,	-6.1090875	,	0
3,51	,	59184	,	-19736	,	-16355	,	-6.1523876	,	0
3,51	,	59200	,	-19752	,	-16354	,	-6.2262363	,	0
3,51	,	59232	,	-19758	,	-16349	,	-6.5039864	,	0
3,51	,	59248	,	-19748	,	-16362	,	-7.1236205	,	0
3,52	,	59279	,	-19753	,	-16360	,	-7.9413033	,	0
3,52	,	59296	,	-19753	,	-16367	,	-8.656015	,	0
3,52	,	59312	,	-19761	,	-16361	,	-9.103587	,	0
3,52	,	59344	,	-19751	,	-16360	,	-9.257068	,	0
3,52	,	59360	,	-19736	,	-16356	,	-8.983599	,	0
3,52	,	59376	,	-19731	,	-16354	,	-7.950992	,	0
3,52	,	59408	,	-19718	,	-16349	,	-5.869218	,	1
3,52	,	59424	,	-19709	,	-16342	,	-2.674624	,	3
3,52	,	59456	,	-19706	,	-16352	,	1.4596729	,	6
3,52	,	59472	,	-19708	,	-16345	,	6.078465	,	10
3,52	,	59487	,	-19710	,	-16340	,	10.491158	,	14
3,52	,	59520	,	-19713	,	-16347	,	13.990801	,	18
3,52	,	59536	,	-19697	,	-16341	,	16.154175	,	21
3,52	,	59552	,	-19697	,	-16344	,	17.036673	,	23
3,52	,	59584	,	-19704	,	-16344	,	16.937218	,	23
3,52	,	59600	,	-19703	,	-16351	,	16.02932	,	22
3,52	,	59616	,	-19694	,	-16342	,	14.445812	,	20
3,52	,	59648	,	-19688	,	-16339	,	12.521124	,	17
3,52	,	59664	,	-19698	,	-16335	,	10.646185	,	13
3,52	,	59696	,	-19687	,	-16338	,	9.009752	,	9
3,52	,	59712	,	-19693	,	-16337	,	7.647725	,	5
3,52	,	59728	,	-19687	,	-16338	,	6.5551248	,	2
3,52	,	59760	,	-19701	,	-16345	,	5.641388	,	0
3,52	,	59776	,	-19695	,	-16346	,	4.7235947	,	0
3,52	,	59792	,	-19701	,	-16348	,	3.6610909	,	0
3,52	,	59824	,	-19702	,	-16336	,	2.4301608	,	0
3,52	,	59839	,	-19698	,	-16355	,	1.092524	,	0
3,52	,	59871	,	-19695	,	-16331	,	-0.1814574	,	0
3,52	,	59888	,	-19716	,	-16349	,	-1.2566621	,	0
3,52	,	59904	,	-19714	,	-16357	,	-2.2645745	,	0
3,52	,	59936	,	-19715	,	-16349	,	-3.4119945	,	0
3,52	,	59952	,	-19716	,	-16350	,	-4.6800246	,	0
3,52	,	59968	,	-19717	,	-16360	,	-5.894296	,	0
3,52	,	59999	,	-19729	,	-16359	,	-6.9416966	,	0
3,52	,	60015	,	-19721	,	-16362	,	-7.8210244	,	0
3,52	,	60031	,	-19727	,	-16359	,	-8.504888	,	0
3,52	,	60063	,	-19739	,	-16369	,	-8.966496	,	0
3,52	,	60079	,	-19731	,	-16353	,	-9.291214	,	0
3,52	,	60112	,	-19745	,	-16363	,	-9.560544	,	0
3,52	,	60128	,	-19752	,	-16373	,	-9.865202	,	0
3,52	,	60143	,	-19758	,	-16372	,	-10.381826	,	0
3,52	,	60175	,	-19763	,	-16371	,	-11.221508	,	0
3,52	,	60191	,	-19756	,	-16368	,	-12.279048	,	0
3,52	,	60207	,	-19760	,	-16382	,	-13.239935	,	0
3,52	,	60239	,	-19774	,	-16377	,	-13.84279	,	0
3,52	,	60255	,	-19779	,	-16375	,	-14.139816	,	0
3,53	,	60287	,	-19769	,	-16371	,	-14.284687	,	0
3,53	,	60304	,	-19757	,	-16388	,	-14.137678	,	0
3,53	,	60320	,	-19748	,	-16359	,	-13.271839	,	0
3,53	,	60351	,	-19733	,	-16369	,	-11.267467	,	0
3,53	,	60368	,	-19738	,	-16371	,	-7.9710436	,	2
3,53	,	60383	,	-19739	,	-16359	,	-3.6925678	,	5
3,53	,	60415	,	-19726	,	-16371	,	0.92663956	,	9
3,53	,	60431	,	-19720	,	-16369	,	5.3632183	,	13
3,53	,	60447	,	-19727	,	-16366	,	9.307298	,	17
3,53	,	60479	,	-19721	,	-16372	,	12.448239	,	20
3,53	,	60496	,	-19728	,	-16365	,	14.49404	,	23
3,53	,	60527	,	-19726	,	-16365	,	15.288958	,	25
3,53	,	60543	,	-19738	,	-16375	,	14.802463	,	25
3,53	,	60559	,	-19728	,	-16364	,	13.136251	,	23
3,53	,	60591	,	-19729	,	-16374	,	10.613853	,	20
3,53	,	60607	,	-19731	,	-16367	,	7.717512	,	16
3,53	,	60623	,	-19720	,	-16364	,	4.918009	,	12
3,53	,	60655	,	-19717	,	-16363	,	2.6581402	,	8
3,53	,	60671	,	-19722	,	-16369	,	1.2480011	,	5
3,53	,	60703	,	-19723	,	-16373	,	0.6620734	,	2
3,53	,	60719	,	-19732	,	-16365	,	0.58074915	,	0
3,53	,	60735	,	-19726	,	-16367	,	0.6235169	,	0
3,53	,	60767	,	-19732	,	-16380	,	0.54979646	,	0
3,53	,	60783	,	-19730	,	-16362	,	0.28011662	,	0
3,53	,	60799	,	-19740	,	-16381	,	-0.21057907	,	0
3,53	,	60831	,	-19746	,	-16371	,	-0.99025106	,	0
3,53	,	60847	,	-19749	,	-16378	,	-2.151824	,	0
3,53	,	60863	,	-19753	,	-16379	,	-3.6881561	,	0
3,53	,	60895	,	-19751	,	-16388	,	-5.44129	,	0
3,53	,	60911	,	-19761	,	-16378	,	-7.184067	,	0
3,53	,	60943	,	-19764	,	-16380	,	-8.76005	,	0
3,53	,	60959	,	-19767	,	-16382	,	-10.118349	,	0
3,53	,	60975	,	-19773	,	-16386	,	-11.237343	,	0
3,53	,	61007	,	-19775	,	-16401	,	-12.107409	,	0
3,53	,	61023	,	-19766	,	-16385	,	-12.673431	,	0
3,53	,	61039	,	-19787	,	-16391	,	-12.848284	,	0
3,53	,	61071	,	-19788	,	-16399	,	-12.7358055	,	0
3,53	,	61087	,	-19786	,	-16394	,	-12.563979	,	0
3,53	,	61119	,	-19798	,	-16398	,	-12.42919	,	0
3,53	,	61135	,	-19799	,	-16399	,	-12.369925	,	0
3,53	,	61151	,	-19800	,	-16412	,	-12.416348	,	0
3,53	,	61183	,	-19808	,	-16411	,	-12.519379	,	0
3,53	,	61199	,	-19811	,	-16409	,	-12.636913	,	0
3,53	,	61215	,	-19817	,	-16419	,	-12.780255	,	0
3,53	,	61247	,	-19827	,	-16407	,	-12.992601	,	0
3,53	,	61263	,	-19829	,	-16416	,	-13.344977	,	0
3,54	,	61279	,	-19817	,	-16416	,	-13.77912	,	0
3,54	,	61311	,	-19813	,	-16414	,	-13.955316	,	0
3,54	,	61327	,	-19800	,	-16409	,	-13.396259	,	0
3,54	,	61359	,	-19808	,	-16410	,	-11.798468	,	0
3,54	,	61375	,	-19801	,	-16406	,	-9.234016	,	1
3,54	,	61391	,	-19806	,	-16410	,	-6.079701	,	3
3,54	,	61423	,	-19795	,	-16394	,	-2.771531	,	6
3,54	,	61439	,	-19806	,	-16414	,	0.33737516	,	9
3,54	,	61455	,	-19808	,	-16408	,	2.9133205	,	12
3,54	,	61487	,	-19802	,	-16390	,	4.665289	,	14
3,54	,	61503	,	-19799	,	-16411	,	5.552802	,	15
3,54	,	61535	,	-19805	,	-16405	,	5.754953	,	15
3,54	,	61551	,	-19806	,	-16405	,	5.4287324	,	15
3,54	,	61567	,	-19811	,	-16403	,	4.645568	,	14
3,54	,	61599	,	-19820	,	-16407	,	3.42661	,	12
3,54	,	61615	,	-19811	,	-16413	,	1.8117146	,	9
3,54	,	61631	,	-19811	,	-16417	,	0.018860579	,	6
3,54	,	61663	,	-19805	,	-16410	,	-1.5733759	,	3
3,54	,	61679	,	-19803	,	-16412	,	-2.6294537	,	1
3,54	,	61711	,	-19802	,	-16409	,	-2.9772236	,	0
3,54	,	61727	,	-19820	,	-16407	,	-2.71769	,	0
3,54	,	61743	,	-19813	,	-16420	,	-2.236352	,	0
3,54	,	61775	,	-19810	,	-16417	,	-1.8719984	,	0
3,54	,	61791	,	-19814	,	-16419	,	-1.6814488	,	0
3,54	,	61807	,	-19820	,	-16422	,	-1.6384335	,	0
3,54	,	61839	,	-19834	,	-16430	,	-1.8584994	,	0
3,54	,	61855	,	-19823	,	-16409	,	-2.5015874	,	0
3,54	,	61887	,	-19840	,	-16421	,	-3.5617316	,	0
3,54	,	61903	,	-19841	,	-16428	,	-4.949499	,	0
3,54	,	61919	,	-19846	,	-16427	,	-6.6060357	,	0
3,54	,	61951	,	-19844	,	-16415	,	-8.3832	,	0
3,54	,	61967	,	-19859	,	-16421	,	-10.070147	,	0
3,54	,	61983	,	-19848	,	-16432	,	-11.514991	,	0
3,54	,	62015	,	-19845	,	-16427	,	-12.515828	,	0
3,54	,	62031	,	-19855	,	-16437	,	-12.834884	,	0
3,54	,	62063	,	-19857	,	-16437	,	-12.470941	,	0
3,54	,	62079	,	-19868	,	-16431	,	-11.703533	,	0
3,54	,	62094	,	-19880	,	-16439	,	-10.9566345	,	0
3,54	,	62127	,	-19880	,	-16438	,	-10.639078	,	0
3,54	,	62143	,	-19877	,	-16443	,	-10.867519	,	0
3,54	,	62159	,	-19883	,	-16444	,	-11.41352	,	0
3,54	,	62191	,	-19889	,	-16445	,	-12.00613	,	0
3,54	,	62207	,	-19902	,	-16445	,	-12.578146	,	0
3,54	,	62222	,	-19901	,	-16462	,	-13.21817	,	0
3,54	,	62255	,	-19903	,	-16451	,	-13.9406185	,	0
3,54	,	62271	,	-19901	,	-16457	,	-14.567038	,	0
3,55	,	62303	,	-19900	,	-16452	,	-14.825857	,	0
3,55	,	62319	,	-19896	,	-16452	,	-14.484008	,	0
3,55	,	62335	,	-19888	,	-16450	,	-13.391076	,	0
3,55	,	62367	,	-19884	,	-16461	,	-11.472197	,	1
3,55	,	62382	,	-19882	,	-16444	,	-8.770964	,	2
3,55	,	62399	,	-19881	,	-16440	,	-5.5131197	,	4
3,55	,	62431	,	-19887	,	-16453	,	-2.0953798	,	7
3,55	,	62447	,	-19884	,	-16451	,	1.0138879	,	10
3,55	,	62479	,	-19893	,	-16449	,	3.40848	,	13
3,55	,	62495	,	-19883	,	-16452	,	4.855061	,	15
3,55	,	62511	,	-19886	,	-16456	,	5.379222	,	16
3,55	,	62543	,	-19882	,	-16447	,	5.2153482	,	16
3,55	,	62559	,	-19888	,	-16443	,	4.6274147	,	15
3,55	,	62575	,	-19895	,	-16444	,	3.7563982	,	14
3,55	,	62606	,	-19890	,	-16457	,	2.6241276	,	12
3,55	,	62622	,	-19883	,	-16441	,	1.35003	,	9
3,55	,	62638	,	-19895	,	-16452	,	0.18250573	,	6
3,55	,	62670	,	-19894	,	-16448	,	-0.76995754	,	3
3,55	,	62687	,	-19896	,	-16447	,	-1.5733154	,	1
3,55	,	62719	,	-19901	,	-16445	,	-2.3029962	,	0
3,55	,	62735	,	-19898	,	-16448	,	-2.9986715	,	0
3,55	,	62751	,	-19902	,	-16455	,	-3.649212	,	0
3,55	,	62782	,	-19903	,	-16449	,	-4.2138176	,	0
3,55	,	62798	,	-19901	,	-16451	,	-4.6528125	,	0
3,55	,	62814	,	-19900	,	-16460	,	-4.8916693	,	0
3,55	,	62847	,	-19915	,	-16461	,	-4.918175	,	0
3,55	,	62863	,	-19914	,	-16458	,	-4.916069	,	0
3,55	,	62895	,	-19922	,	-16463	,	-5.1245327	,	0
3,55	,	62910	,	-19926	,	-16469	,	-5.667408	,	0
3,55	,	62926	,	-19928	,	-16466	,	-6.5549	,	0
3,55	,	62958	,	-19931	,	-16463	,	-7.6865635	,	0
3,55	,	62974	,	-19934	,	-16472	,	-8.880656	,	0
3,55	,	62990	,	-19932	,	-16470	,	-9.933244	,	0
3,55	,	63022	,	-19935	,	-16471	,	-10.648524	,	0
3,55	,	63038	,	-19932	,	-16472	,	-10.882406	,	0
3,55	,	63054	,	-19938	,	-16470	,	-10.592872	,	0
3,55	,	63086	,	-19944	,	-16456	,	-9.903866	,	0
3,55	,	63102	,	-19944	,	-16473	,	-9.071398	,	0
3,55	,	63135	,	-19941	,	-16474	,	-8.277643	,	0
3,55	,	63150	,	-19955	,	-16475	,	-7.5840015	,	0
3,55	,	63167	,	-19959	,	-16467	,	-7.1227427	,	0
3,55	,	63198	,	-19957	,	-16475	,	-7.0597615	,	0
3,55	,	63214	,	-19967	,	-16473	,	-7.399271	,	0
3,55	,	63230	,	-19954	,	-16475	,	-7.9810143	,	0
3,55	,	63262	,	-19951	,	-16474	,	-8.487488	,	0
3,56	,	63278	,	-19945	,	-16473	,	-8.502222	,	0
3,56	,	63310	,	-19935	,	-16478	,	-7.6934357	,	0
3,56	,	63326	,	-19943	,	-16469	,	-5.9612865	,	0
3,56	,	63342	,	-19935	,	-16474	,	-3.5194306	,	1
3,56	,	63374	,	-19932	,	-16472	,	-0.74080324	,	3
3,56	,	63390	,	-19931	,	-16464	,	2.0617764	,	5
3,56	,	63406	,	-19939	,	-16472	,	4.588001	,	7
3,56	,	63438	,	-19936	,	-16468	,	6.493838	,	9
3,56	,	63454	,	-19937	,	-16464	,	7.5430493	,	10
3,56	,	63486	,	-19932	,	-16471	,	7.739297	,	11
3,56	,	63502	,	-19928	,	-16465	,	7.302243	,	11
3,56	,	63518	,	-19930	,	-16466	,	6.5415854	,	11
3,56	,	63550	,	-19936	,	-16469	,	5.6656747	,	10
3,56	,	63566	,	-19933	,	-16470	,	4.711934	,	8
3,56	,	63582	,	-19930	,	-16469	,	3.7004561	,	6
3,56	,	63614	,	-19926	,	-16467	,	2.76089	,	4
3,56	,	63630	,	-19928	,	-16471	,	2.0576959	,	2
3,56	,	63646	,	-19939	,	-16469	,	1.5993177	,	1
3,56	,	63678	,	-19924	,	-16463	,	1.2445123	,	0
3,56	,	63694	,	-19935	,	-16478	,	0.9261544	,	0
3,56	,	63726	,	-19937	,	-16475	,	0.62273884	,	0
3,56	,	63742	,	-19936	,	-16470	,	0.24313223	,	0
3,56	,	63758	,	-19944	,	-16468	,	-0.28508857	,	0
3,56	,	63790	,	-19944	,	-16464	,	-1.0060866	,	0
3,56	,	63806	,	-19945	,	-16475	,	-1.925907	,	0
3,56	,	63822	,	-19954	,	-16475	,	-2.9819	,	0
3,56	,	63854	,	-19946	,	-16481	,	-4.09386	,	0
3,56	,	63870	,	-19951	,	-16474	,	-5.124288	,	0
3,56	,	63902	,	-19952	,	-16475	,	-5.908328	,	0
3,56	,	63918	,	-19954	,	-16476	,	-6.3829837	,	0
3,56	,	63934	,	-19959	,	-16478	,	-6.590068	,	0
3,56	,	63966	,	-19967	,	-16473	,	-6.6612077	,	0
3,56	,	63982	,	-19970	,	-16480	,	-6.7989388	,	0
3,56	,	63998	,	-19966	,	-16474	,	-7.1188755	,	0
3,56	,	64030	,	-19965	,	-16483	,	-7.515869	,	0
3,56	,	64046	,	-19971	,	-16490	,	-7.783107	,	0
3,56	,	64062	,	-19976	,	-16480	,	-7.846366	,	0
3,56	,	64094	,	-19975	,	-16489	,	-7.7860403	,	0
3,56	,	64110	,	-19986	,	-16481	,	-7.7172413	,	0
3,56	,	64142	,	-19983	,	-16482	,	-7.7455163	,	0
3,56	,	64158	,	-19985	,	-16488	,	-7.896826	,	0
3,56	,	64174	,	-19990	,	-16482	,	-8.098605	,	0
3,56	,	64206	,	-19974	,	-16485	,	-8.218212	,	0
3,56	,	64222	,	-19970	,	-16493	,	-7.9796925	,	0
3,56	,	64238	,	-19961	,	-16469	,	-7.0270147	,	0
3,56	,	64270	,	-19959	,	-16479	,	-5.1719427	,	0
3,57	,	64286	,	-19950	,	-16475	,	-2.4829295	,	1
3,57	,	64318	,	-19946	,	-16474	,	0.80331016	,	3
3,57	,	64334	,	-19953	,	-16472	,	4.3143244	,	6
3,57	,	64350	,	-19957	,	-16471	,	7.5063705	,	9
3,57	,	64382	,	-19942	,	-16478	,	9.889795	,	12
3,57	,	64398	,	-19944	,	-16475	,	11.347035	,	14
3,57	,	64414	,	-19951	,	-16478	,	11.986561	,	15
3,57	,	64446	,	-19954	,	-16465	,	11.825317	,	15
3,57	,	64462	,	-19952	,	-16477	,	10.849965	,	15
3,57	,	64478	,	-19960	,	-16459	,	9.170725	,	14
3,57	,	64510	,	-19942	,	-16464	,	7.044766	,	12
3,57	,	64526	,	-19946	,	-16471	,	4.901404	,	9
3,57	,	64558	,	-19943	,	-16462	,	3.1690726	,	6
3,57	,	64574	,	-19941	,	-16474	,	2.0503685	,	3
3,57	,	64590	,	-19950	,	-16467	,	1.514302	,	1
3,57	,	64622	,	-19940	,	-16466	,	1.3763402	,	0
3,57	,	64638	,	-19934	,	-16462	,	1.5027707	,	0
3,57	,	64654	,	-19938	,	-16466	,	1.8971279	,	0
3,57	,	64686	,	-19945	,	-16467	,	2.469301	,	0
3,57	,	64702	,	-19949	,	-16461	,	2.927906	,	0
3,57	,	64734	,	-19949	,	-16472	,	2.9725256	,	0
3,57	,	64750	,	-19939	,	-16472	,	2.5402787	,	0
3,57	,	64766	,	-19950	,	-16469	,	1.8179754	,	0
3,57	,	64798	,	-19952	,	-16468	,	0.9681146	,	0
3,57	,	64814	,	-19949	,	-16472	,	0.027275205	,	0
3,57	,	64830	,	-19950	,	-16468	,	-0.92616665	,	0
3,57	,	64862	,	-19957	,	-16463	,	-1.7886056	,	0
3,57	,	64878	,	-19952	,	-16469	,	-2.5328493	,	0
3,57	,	64894	,	-19949	,	-16469	,	-3.1057808	,	0
3,57	,	64926	,	-19962	,	-16475	,	-3.4398246	,	0
3,57	,	64942	,	-19980	,	-16472	,	-3.719789	,	0
3,57	,	64974	,	-19979	,	-16468	,	-4.369426	,	0
3,57	,	64990	,	-19972	,	-16472	,	-5.5864763	,	0
3,57	,	65005	,	-19980	,	-16475	,	-7.125047	,	0
3,57	,	65037	,	-19970	,	-16465	,	-8.571783	,	0
3,57	,	65054	,	-19981	,	-16472	,	-9.599282	,	0
3,57	,	65070	,	-19980	,	-16478	,	-10.071724	,	0
3,57	,	65102	,	-19977	,	-16472	,	-10.016571	,	0
3,57	,	65118	,	-19981	,	-16482	,	-9.491854	,	0
3,57	,	65150	,	-19974	,	-16483	,	-8.562202	,	0
3,57	,	65166	,	-19980	,	-16475	,	-7.318579	,	0
3,57	,	65182	,	-19960	,	-16470	,	-5.8115172	,	1
3,57	,	65214	,	-19947	,	-16459	,	-3.897221	,	2
3,57	,	65229	,	-19949	,	-16459	,	-1.330878	,	3
3,57	,	65245	,	-19945	,	-16463	,	1.8545372	,	5
3,58	,	65277	,	-19937	,	-16453	,	5.32078	,	8
3,58	,	65294	,	-19936	,	-16462	,	8.698028	,	11
3,58	,	65310	,	-19928	,	-16461	,	11.691393	,	14
3,58	,	65342	,	-19929	,	-16462	,	14.089507	,	16
3,58	,	65358	,	-19936	,	-16445	,	15.708923	,	18
3,58	,	65389	,	-19922	,	-16474	,	16.395313	,	18
3,58	,	65405	,	-19920	,	-16443	,	16.22296	,	17
3,58	,	65421	,	-19924	,	-16444	,	15.458843	,	16
3,58	,	65453	,	-19916	,	-16455	,	14.316664	,	14
3,58	,	65470	,	-19918	,	-16449	,	12.955324	,	11
3,58	,	65486	,	-19912	,	-16457	,	11.540361	,	8
3,58	,	65517	,	-19906	,	-16449	,	10.246429	,	5
3,58	,	65533	,	-19911	,	-16451	,	9.225079	,	3
3,58	,	65565	,	-19908	,	-16446	,	8.479972	,	1
3,58	,	65581	,	-19904	,	-16447	,	7.9057584	,	0
3,58	,	65597	,	-19904	,	-16448	,	7.4437275	,	0
3,58	,	65629	,	-19894	,	-16451	,	7.1069283	,	0
3,58	,	65646	,	-19902	,	-16442	,	6.920003	,	0
3,58	,	65662	,	-19909	,	-16454	,	6.774187	,	0
3,58	,	65693	,	-19897	,	-16447	,	6.4552794	,	0
3,58	,	65709	,	-19915	,	-16443	,	5.843279	,	0
3,58	,	65741	,	-19910	,	-16448	,	4.87236	,	0
3,58	,	65757	,	-19909	,	-16436	,	3.537469	,	0
3,58	,	65773	,	-19917	,	-16444	,	1.9802525	,	0
3,58	,	65805	,	-19916	,	-16444	,	0.34288168	,	0
3,58	,	65821	,	-19917	,	-16448	,	-1.2742008	,	0
3,58	,	65837	,	-19910	,	-16448	,	-2.6994643	,	0
3,58	,	65869	,	-19919	,	-16444	,	-3.7425864	,	0
3,58	,	65885	,	-19928	,	-16451	,	-4.4010625	,	0
3,58	,	65901	,	-19928	,	-16447	,	-4.8940105	,	0
3,58	,	65933	,	-19922	,	-16445	,	-5.3780394	,	0
3,58	,	65949	,	-19937	,	-16458	,	-5.8294024	,	0
3,58	,	65981	,	-19932	,	-16447	,	-6.244315	,	0
3,58	,	65998	,	-19923	,	-16448	,	-6.5969057	,	0
3,58	,	66013	,	-19938	,	-16450	,	-6.7451906	,	0
3,58	,	66046	,	-19929	,	-16455	,	-6.63886	,	0
3,58	,	66061	,	-19945	,	-16452	,	-6.3902774	,	0
3,58	,	66077	,	-19926	,	-16472	,	-6.1059413	,	0
3,58	,	66109	,	-19940	,	-16447	,	-5.7625732	,	0
3,58	,	66125	,	-19924	,	-16437	,	-5.258458	,	0
3,58	,	66157	,	-19901	,	-16444	,	-4.359084	,	0
3,58	,	66173	,	-19896	,	-16438	,	-2.6126318	,	0
3,58	,	66189	,	-19901	,	-16441	,	0.22627664	,	1
3,58	,	66221	,	-19892	,	-16441	,	3.8447125	,	3
3,58	,	66237	,	-19888	,	-16431	,	7.67496	,	6
3,58	,	66253	,	-19884	,	-16427	,	11.243138	,	9
3,59	,	66285	,	-19878	,	-16434	,	14.229662	,	12
3,59	,	66301	,	-19886	,	-16424	,	16.4137	,	14
3,59	,	66317	,	-19881	,	-16423	,	17.59625	,	16
3,59	,	66349	,	-19890	,	-16422	,	17.638252	,	17
3,59	,	66365	,	-19872	,	-16428	,	16.611912	,	17
3,59	,	66397	,	-19866	,	-16418	,	14.920959	,	16
3,59	,	66413	,	-19865	,	-16425	,	13.142982	,	14
3,59	,	66429	,	-19867	,	-16426	,	11.646406	,	11
3,59	,	66461	,	-19868	,	-16421	,	10.457331	,	8
3,59	,	66477	,	-19861	,	-16421	,	9.45865	,	5
3,59	,	66493	,	-19864	,	-16420	,	8.584463	,	3
3,59	,	66525	,	-19852	,	-16415	,	7.853095	,	1
3,59	,	66541	,	-19855	,	-16428	,	7.341883	,	0
3,59	,	66573	,	-19856	,	-16409	,	7.080799	,	0
3,59	,	66589	,	-19854	,	-16419	,	6.9585257	,	0
3,59	,	66605	,	-19861	,	-16425	,	6.792467	,	0
3,59	,	66637	,	-19865	,	-16419	,	6.382413	,	0
3,59	,	66653	,	-19863	,	-16423	,	5.5703554	,	0
3,59	,	66669	,	-19858	,	-16420	,	4.3902993	,	0
3,59	,	66701	,	-19865	,	-16421	,	3.050024	,	0
3,59	,	66717	,	-19875	,	-16414	,	1.6740348	,	0
3,59	,	66733	,	-19860	,	-16423	,	0.26096058	,	0
3,59	,	66765	,	-19868	,	-16428	,	-1.077561	,	0
3,59	,	66781	,	-19873	,	-16435	,	-2.1807206	,	0
3,59	,	66813	,	-19875	,	-16420	,	-3.058903	,	0
3,59	,	66829	,	-19876	,	-16430	,	-3.8054414	,	0
3,59	,	66845	,	-19879	,	-16425	,	-4.464298	,	0
3,59	,	66877	,	-19879	,	-16426	,	-5.0372233	,	0
3,59	,	66893	,	-19876	,	-16424	,	-5.475652	,	0
3,59	,	66909	,	-19889	,	-16426	,	-5.731516	,	0
3,59	,	66941	,	-19891	,	-16426	,	-5.9006796	,	0
3,59	,	66957	,	-19890	,	-16425	,	-6.146532	,	0
3,59	,	66988	,	-19883	,	-16434	,	-6.4463263	,	0
3,59	,	67005	,	-19895	,	-16438	,	-6.630398	,	0
3,59	,	67021	,	-19890	,	-16427	,	-6.6279507	,	0
3,59	,	67053	,	-19873	,	-16423	,	-6.376735	,	0
3,59	,	67069	,	-19869	,	-16426	,	-5.606874	,	0
3,59	,	67085	,	-19865	,	-16412	,	-4.0474987	,	0
3,59	,	67117	,	-19846	,	-16420	,	-1.6339874	,	1
3,59	,	67133	,	-19839	,	-16417	,	1.6183927	,	3
3,59	,	67148	,	-19853	,	-16409	,	5.5080376	,	6
3,59	,	67181	,	-19836	,	-16411	,	9.478695	,	9
3,59	,	67197	,	-19836	,	-16412	,	12.965887	,	12
3,59	,	67229	,	-19833	,	-16411	,	15.678175	,	15
3,59	,	67245	,	-19823	,	-16417	,	17.516348	,	17
3,59	,	67261	,	-19826	,	-16403	,	18.52111	,	18
4,0	,	67293	,	-19820	,	-16401	,	18.79023	,	19
4,0	,	67309	,	-19823	,	-16403	,	18.40122	,	18
4,0	,	67324	,	-19815	,	-16395	,	17.45216	,	16
4,0	,	67357	,	-19811	,	-16404	,	16.126064	,	13
4,0	,	67373	,	-19822	,	-16398	,	14.611974	,	10
4,0	,	67405	,	-19814	,	-16388	,	12.956826	,	7
4,0	,	67421	,	-19809	,	-16392	,	11.19952	,	4
4,0	,	67436	,	-19810	,	-16396	,	9.514358	,	2
4,0	,	67469	,	-19807	,	-16403	,	8.062899	,	1
4,0	,	67484	,	-19804	,	-16390	,	6.910146	,	0
4,0	,	67500	,	-19811	,	-16390	,	6.0475173	,	0
4,0	,	67532	,	-19810	,	-16400	,	5.360993	,	0
4,0	,	67549	,	-19809	,	-16396	,	4.6962323	,	0
4,0	,	67565	,	-19811	,	-16392	,	3.9733965	,	0
4,0	,	67596	,	-19811	,	-16401	,	3.1883295	,	0
4,0	,	67612	,	-19809	,	-16398	,	2.3849318	,	0
4,0	,	67645	,	-19815	,	-16396	,	1.6125946	,	0
4,0	,	67661	,	-19823	,	-16406	,	0.82269955	,	0
4,0	,	67677	,	-19807	,	-16395	,	-0.0547415	,	0
4,0	,	67708	,	-19825	,	-16410	,	-0.9517852	,	0
4,0	,	67725	,	-19825	,	-16390	,	-1.8228935	,	0
4,0	,	67740	,	-19826	,	-16399	,	-2.7416124	,	0
4,0	,	67772	,	-19838	,	-16395	,	-3.7617927	,	0
4,0	,	67788	,	-19832	,	-16399	,	-4.894002	,	0
4,0	,	67820	,	-19845	,	-16393	,	-6.1041775	,	0
4,0	,	67836	,	-19845	,	-16405	,	-7.3450313	,	0
4,0	,	67852	,	-19843	,	-16402	,	-8.550737	,	0
4,0	,	67885	,	-19839	,	-16402	,	-9.522486	,	0
4,0	,	67901	,	-19848	,	-16401	,	-10.029509	,	0
4,0	,	67917	,	-19861	,	-16406	,	-10.095112	,	0
4,0	,	67948	,	-19862	,	-16411	,	-10.02616	,	0
4,0	,	67964	,	-19861	,	-16410	,	-10.083927	,	0
4,0	,	67980	,	-19861	,	-16408	,	-10.256338	,	0
4,0	,	68013	,	-19851	,	-16402	,	-10.319328	,	0
4,0	,	68028	,	-19834	,	-16400	,	-9.88909	,	0
4,0	,	68060	,	-19833	,	-16397	,	-8.528915	,	0
4,0	,	68076	,	-19820	,	-16402	,	-6.0193586	,	1
4,0	,	68092	,	-19815	,	-16387	,	-2.454832	,	3
4,0	,	68124	,	-19817	,	-16390	,	1.8182924	,	6
4,0	,	68140	,	-19807	,	-16391	,	6.271941	,	10
4,0	,	68156	,	-19809	,	-16397	,	10.380448	,	14
4,0	,	68188	,	-19802	,	-16385	,	13.755916	,	18
4,0	,	68204	,	-19792	,	-16376	,	16.216116	,	21
4,0	,	68236	,	-19787	,	-16392	,	17.832655	,	23
4,0	,	68252	,	-19795	,	-16384	,	18.738869	,	24
4,0	,	68268	,	-19792	,	-16388	,	18.905056	,	23
4,1	,	68300	,	-19783	,	-16382	,	18.28725	,	21
4,1	,	68316	,	-19785	,	-16380	,	17.048012	,	18
4,1	,	68332	,	-19786	,	-16389	,	15.427239	,	14
4,1	,	68364	,	-19788	,	-16381	,	13.55812	,	10
4,1	,	68380	,	-19792	,	-16382	,	11.485005	,	6
4,1	,	68412	,	-19768	,	-16392	,	9.344904	,	3
4,1	,	68428	,	-19777	,	-16379	,	7.4949718	,	1
4,1	,	68444	,	-19780	,	-16383	,	6.205973	,	0
4,1	,	68476	,	-19778	,	-16381	,	5.38661	,	0
4,1	,	68492	,	-19791	,	-16382	,	4.7538347	,	0
4,1	,	68508	,	-19781	,	-16384	,	4.0418186	,	0
4,1	,	68540	,	-19792	,	-16387	,	3.1194105	,	0
4,1	,	68556	,	-19786	,	-16377	,	1.9980562	,	0
4,1	,	68572	,	-19786	,	-16380	,	0.79057705	,	0
4,1	,	68605	,	-19797	,	-16386	,	-0.36568844	,	0
4,1	,	68620	,	-19784	,	-16387	,	-1.4090154	,	0
4,1	,	68652	,	-19794	,	-16385	,	-2.272503	,	0
4,1	,	68668	,	-19794	,	-16384	,	-2.8961158	,	0
4,1	,	68684	,	-19796	,	-16392	,	-3.3279676	,	0
4,1	,	68716	,	-19802	,	-16385	,	-3.6664352	,	0
4,1	,	68732	,	-19805	,	-16387	,	-4.023454	,	0
4,1	,	68748	,	-19808	,	-16380	,	-4.496535	,	0
4,1	,	68780	,	-19817	,	-16391	,	-5.1404495	,	0
4,1	,	68796	,	-19810	,	-16381	,	-5.9585943	,	0
4,1	,	68828	,	-19817	,	-16386	,	-6.842574	,	0
4,1	,	68844	,	-19810	,	-16390	,	-7.595973	,	0
4,1	,	68860	,	-19817	,	-16401	,	-8.040511	,	0
4,1	,	68892	,	-19822	,	-16391	,	-8.126963	,	0
4,1	,	68908	,	-19831	,	-16394	,	-8.00782	,	0
4,1	,	68924	,	-19824	,	-16398	,	-7.9007673	,	0
4,1	,	68956	,	-19828	,	-16398	,	-7.862138	,	0
4,1	,	68972	,	-19820	,	-16399	,	-7.76435	,	0
4,1	,	68988	,	-19807	,	-16386	,	-7.351535	,	0
4,1	,	69020	,	-19796	,	-16395	,	-6.2568226	,	0
4,1	,	69036	,	-19785	,	-16381	,	-4.148286	,	1
4,1	,	69068	,	-19779	,	-16388	,	-0.92799926	,	3
4,1	,	69084	,	-19774	,	-16376	,	3.189288	,	6
4,1	,	69100	,	-19777	,	-16388	,	7.7037125	,	10
4,1	,	69132	,	-19773	,	-16376	,	11.956875	,	14
4,1	,	69148	,	-19771	,	-16373	,	15.363706	,	18
4,1	,	69164	,	-19770	,	-16380	,	17.587067	,	21
4,1	,	69196	,	-19773	,	-16378	,	18.516651	,	23
4,1	,	69213	,	-19767	,	-16372	,	18.212914	,	23
4,1	,	69244	,	-19768	,	-16371	,	16.909153	,	22
4,1	,	69260	,	-19764	,	-16366	,	14.949071	,	20
4,2	,	69276	,	-19761	,	-16367	,	12.700874	,	17
4,2	,	69308	,	-19761	,	-16369	,	10.497944	,	13
4,2	,	69324	,	-19756	,	-16377	,	8.572157	,	9
4,2	,	69340	,	-19756	,	-16373	,	7.05054	,	5
4,2	,	69372	,	-19763	,	-16377	,	5.9390707	,	2
4,2	,	69388	,	-19761	,	-16368	,	5.089875	,	0
4,2	,	69404	,	-19765	,	-16370	,	4.3089113	,	0
4,2	,	69436	,	-19764	,	-16375	,	3.479592	,	0
4,2	,	69452	,	-19768	,	-16369	,	2.563646	,	0
4,2	,	69484	,	-19765	,	-16376	,	1.5745673	,	0
4,2	,	69500	,	-19766	,	-16373	,	0.58853865	,	0
4,2	,	69516	,	-19761	,	-16369	,	-0.2646438	,	0
4,2	,	69548	,	-19760	,	-16375	,	-0.84881437	,	0
4,2	,	69564	,	-19759	,	-16386	,	-1.074084	,	0
4,2	,	69580	,	-19770	,	-16364	,	-0.98807156	,	0
4,2	,	69612	,	-19775	,	-16379	,	-0.8393382	,	0
4,2	,	69628	,	-19762	,	-16380	,	-0.8751395	,	0
4,2	,	69660	,	-19773	,	-16379	,	-1.1011517	,	0
4,2	,	69676	,	-19785	,	-16378	,	-1.4918686	,	0
4,2	,	69692	,	-19787	,	-16384	,	-2.2142184	,	0
4,2	,	69724	,	-19786	,	-16386	,	-3.378564	,	0
4,2	,	69740	,	-19790	,	-16389	,	-4.841595	,	0
4,2	,	69756	,	-19789	,	-16393	,	-6.345482	,	0
4,2	,	69788	,	-19789	,	-16386	,	-7.642772	,	0
4,2	,	69804	,	-19794	,	-16387	,	-8.543715	,	0
4,2	,	69820	,	-19797	,	-16385	,	-8.996535	,	0
4,2	,	69852	,	-19797	,	-16391	,	-9.078534	,	0
4,2	,	69868	,	-19808	,	-16394	,	-8.932915	,	0
4,2	,	69899	,	-19807	,	-16398	,	-8.749392	,	0
4,2	,	69916	,	-19803	,	-16386	,	-8.63031	,	0
4,2	,	69932	,	-19784	,	-16382	,	-8.382612	,	0
4,2	,	69964	,	-19782	,	-16378	,	-7.567079	,	0
4,2	,	69980	,	-19764	,	-16390	,	-5.7960386	,	0
4,2	,	69996	,	-19757	,	-16379	,	-2.8980258	,	1
4,2	,	70028	,	-19754	,	-16388	,	1.036752	,	3
4,2	,	70044	,	-19757	,	-16366	,	5.5679026	,	6
4,2	,	70075	,	-19747	,	-16374	,	10.0333395	,	10
4,2	,	70091	,	-19751	,	-16371	,	13.850262	,	14
4,2	,	70108	,	-19743	,	-16367	,	16.645964	,	17
4,2	,	70140	,	-19748	,	-16375	,	18.247295	,	19
4,2	,	70155	,	-19746	,	-16374	,	18.627148	,	20
4,2	,	70171	,	-19741	,	-16366	,	17.893	,	20
4,2	,	70203	,	-19734	,	-16365	,	16.357025	,	19
4,2	,	70219	,	-19732	,	-16368	,	14.477866	,	17
4,2	,	70235	,	-19731	,	-16372	,	12.646456	,	14
4,2	,	70267	,	-19729	,	-16368	,	11.05936	,	10
4,3	,	70283	,	-19732	,	-16357	,	9.743616	,	6
4,3	,	70316	,	-19721	,	-16358	,	8.660787	,	3
4,3	,	70332	,	-19725	,	-16368	,	7.815645	,	1
4,3	,	70348	,	-19728	,	-16362	,	7.189814	,	0
4,3	,	70379	,	-19733	,	-16375	,	6.6161466	,	0
4,3	,	70395	,	-19733	,	-16361	,	5.8712683	,	0
4,3	,	70411	,	-19743	,	-16366	,	4.799631	,	0
4,3	,	70443	,	-19734	,	-16363	,	3.351995	,	0
4,3	,	70460	,	-19742	,	-16369	,	1.6421666	,	0
4,3	,	70491	,	-19740	,	-16379	,	-0.11683774	,	0
4,3	,	70507	,	-19738	,	-16362	,	-1.7204587	,	0
4,3	,	70523	,	-19736	,	-16359	,	-2.9686637	,	0
4,3	,	70555	,	-19750	,	-16365	,	-3.7703917	,	0
4,3	,	70571	,	-19752	,	-16373	,	-4.280588	,	0
4,3	,	70587	,	-19751	,	-16372	,	-4.7382607	,	0
4,3	,	70619	,	-19754	,	-16370	,	-5.2288094	,	0
4,3	,	70635	,	-19744	,	-16376	,	-5.662362	,	0
4,3	,	70651	,	-19752	,	-16376	,	-5.866827	,	0
4,3	,	70684	,	-19752	,	-16378	,	-5.752226	,	0
4,3	,	70700	,	-19753	,	-16374	,	-5.385572	,	0
4,3	,	70731	,	-19767	,	-16394	,	-4.944101	,	0
4,3	,	70747	,	-19759	,	-16375	,	-4.659769	,	0
4,3	,	70763	,	-19783	,	-16382	,	-4.734091	,	0
4,3	,	70795	,	-19781	,	-16376	,	-5.351381	,	0
4,3	,	70811	,	-19782	,	-16384	,	-6.5809546	,	0
4,3	,	70827	,	-19782	,	-16380	,	-8.189215	,	0
4,3	,	70859	,	-19782	,	-16387	,	-9.765415	,	0
4,3	,	70875	,	-19789	,	-16379	,	-10.982084	,	0
4,3	,	70907	,	-19771	,	-16382	,	-11.62732	,	0
4,3	,	70923	,	-19762	,	-16375	,	-11.413142	,	0
4,3	,	70939	,	-19757	,	-16380	,	-10.005594	,	0
4,3	,	70971	,	-19739	,	-16379	,	-7.2678165	,	1
4,3	,	70987	,	-19737	,	-16373	,	-3.2983623	,	3
4,3	,	71003	,	-19734	,	-16359	,	1.5504284	,	6
4,3	,	71035	,	-19733	,	-16353	,	6.656744	,	10
4,3	,	71051	,	-19727	,	-16362	,	11.345743	,	15
4,3	,	71067	,	-19730	,	-16364	,	15.102715	,	19
4,3	,	71099	,	-19727	,	-16358	,	17.606808	,	22
4,3	,	71115	,	-19712	,	-16364	,	18.805481	,	24
4,3	,	71147	,	-19719	,	-16367	,	18.948912	,	25
4,3	,	71163	,	-19718	,	-16362	,	18.319868	,	24
4,3	,	71179	,	-19709	,	-16369	,	17.095371	,	22
4,3	,	71212	,	-19706	,	-16351	,	15.525951	,	19
4,3	,	71228	,	-19701	,	-16337	,	13.936524	,	15
4,3	,	71243	,	-19706	,	-16352	,	12.533654	,	10
4,3	,	71275	,	-19707	,	-16352	,	11.304968	,	6
4,4	,	71291	,	-19705	,	-16358	,	10.11227	,	3
4,4	,	71323	,	-19710	,	-16351	,	8.848185	,	1
4,4	,	71339	,	-19710	,	-16348	,	7.461324	,	0
4,4	,	71355	,	-19708	,	-16357	,	5.9548497	,	0
4,4	,	71387	,	-19708	,	-16351	,	4.4136415	,	0
4,4	,	71403	,	-19723	,	-16359	,	2.894175	,	0
4,4	,	71419	,	-19714	,	-16359	,	1.3437195	,	0
4,4	,	71451	,	-19722	,	-16365	,	-0.24581766	,	0
4,4	,	71467	,	-19726	,	-16363	,	-1.8017808	,	0
4,4	,	71499	,	-19736	,	-16361	,	-3.336969	,	0
4,4	,	71515	,	-19731	,	-16362	,	-4.9170823	,	0
4,4	,	71531	,	-19739	,	-16366	,	-6.4954486	,	0
4,4	,	71563	,	-19733	,	-16366	,	-7.909447	,	0
4,4	,	71579	,	-19754	,	-16372	,	-9.04961	,	0
4,4	,	71595	,	-19749	,	-16367	,	-9.994392	,	0
4,4	,	71627	,	-19746	,	-16366	,	-10.81744	,	0
4,4	,	71643	,	-19752	,	-16378	,	-11.3922	,	0
4,4	,	71659	,	-19751	,	-16373	,	-11.57691	,	0
4,4	,	71691	,	-19761	,	-16369	,	-11.38755	,	0
4,4	,	71707	,	-19760	,	-16373	,	-10.963408	,	0
4,4	,	71739	,	-19770	,	-16384	,	-10.490238	,	0
4,4	,	71755	,	-19763	,	-16380	,	-10.105545	,	0
4,4	,	71771	,	-19775	,	-16376	,	-9.839195	,	0
4,4	,	71803	,	-19779	,	-16377	,	-9.70377	,	0
4,4	,	71819	,	-19787	,	-16392	,	-9.791317	,	0
4,4	,	71835	,	-19777	,	-16389	,	-10.129835	,	0
4,4	,	71867	,	-19788	,	-16395	,	-10.550747	,	0
4,4	,	71883	,	-19771	,	-16396	,	-10.786467	,	0
4,4	,	71915	,	-19765	,	-16379	,	-10.511397	,	0
4,4	,	71931	,	-19740	,	-16378	,	-9.289058	,	0
4,4	,	71947	,	-19744	,	-16362	,	-6.7363935	,	1
4,4	,	71979	,	-19737	,	-16371	,	-2.8723464	,	3
4,4	,	71995	,	-19736	,	-16364	,	1.8067689	,	6
4,4	,	72011	,	-19730	,	-16367	,	6.624247	,	10
4,4	,	72043	,	-19732	,	-16373	,	10.969191	,	14
4,4	,	72059	,	-19730	,	-16368	,	14.360956	,	18
4,4	,	72075	,	-19728	,	-16366	,	16.507734	,	21
4,4	,	72107	,	-19723	,	-16372	,	17.377338	,	23
4,4	,	72123	,	-19721	,	-16356	,	17.1708	,	23
4,4	,	72155	,	-19723	,	-16368	,	16.174328	,	22
4,4	,	72171	,	-19718	,	-16367	,	14.645168	,	20
4,4	,	72187	,	-19721	,	-16370	,	12.809987	,	17
4,4	,	72218	,	-19713	,	-16361	,	10.880817	,	13
4,4	,	72235	,	-19722	,	-16355	,	9.027898	,	9
4,4	,	72251	,	-19710	,	-16355	,	7.359221	,	5
4,5	,	72283	,	-19713	,	-16364	,	5.97467	,	2
4,5	,	72299	,	-19726	,	-16364	,	4.8930335	,	0
4,5	,	72331	,	-19729	,	-16360	,	3.8955278	,	0
4,5	,	72347	,	-19720	,	-16372	,	2.7405412	,	0
4,5	,	72363	,	-19722	,	-16351	,	1.4724941	,	0
4,5	,	72394	,	-19739	,	-16371	,	0.22784805	,	0
4,5	,	72411	,	-19733	,	-16376	,	-1.0525122	,	0
4,5	,	72427	,	-19742	,	-16365	,	-2.4701807	,	0
4,5	,	72459	,	-19736	,	-16378	,	-3.9705203	,	0
4,5	,	72475	,	-19743	,	-16371	,	-5.389133	,	0
4,5	,	72491	,	-19741	,	-16367	,	-6.562251	,	0
4,5	,	72522	,	-19743	,	-16381	,	-7.383942	,	0
4,5	,	72538	,	-19749	,	-16379	,	-7.8274994	,	0
4,5	,	72571	,	-19747	,	-16380	,	-7.955201	,	0
4,5	,	72587	,	-19758	,	-16382	,	-7.886778	,	0
4,5	,	72603	,	-19760	,	-16370	,	-7.7973413	,	0
4,5	,	72635	,	-19766	,	-16384	,	-7.8760824	,	0
4,5	,	72650	,	-19775	,	-16378	,	-8.2502985	,	0
4,5	,	72667	,	-19773	,	-16380	,	-8.964239	,	0
4,5	,	72699	,	-19778	,	-16377	,	-9.92178	,	0
4,5	,	72715	,	-19776	,	-16389	,	-10.89752	,	0
4,5	,	72746	,	-19774	,	-16382	,	-11.625951	,	0
4,5	,	72762	,	-19773	,	-16390	,	-11.856617	,	0
4,5	,	72778	,	-19781	,	-16391	,	-11.47696	,	0
4,5	,	72811	,	-19786	,	-16403	,	-10.634876	,	0
4,5	,	72827	,	-19790	,	-16382	,	-9.653156	,	0
4,5	,	72843	,	-19786	,	-16381	,	-8.78833	,	0
