Data recorded on Mon Jul 24 12-23-40 CAT 2017
Time: 12:23:56
Time		Millis		IR PPG		Red PPG		Filtered		SSF
24,5	,	35112	,	-24082	,	-22815	,	0.31225002	,	0
24,5	,	35144	,	-24093	,	-22816	,	-0.6053363	,	0
24,5	,	35160	,	-24087	,	-22814	,	-1.205879	,	0
24,5	,	35192	,	-24113	,	-22816	,	-1.6666088	,	0
24,5	,	35208	,	-24106	,	-22819	,	-2.3355095	,	0
24,5	,	35225	,	-24104	,	-22821	,	-3.412311	,	0
24,5	,	35256	,	-24114	,	-22825	,	-4.7533245	,	0
24,5	,	35272	,	-24107	,	-22825	,	-6.1107903	,	0
24,5	,	35288	,	-24116	,	-22830	,	-7.285635	,	0
24,5	,	35320	,	-24115	,	-22819	,	-8.149196	,	0
24,5	,	35336	,	-24123	,	-22825	,	-8.697698	,	0
24,5	,	35368	,	-24122	,	-22826	,	-9.008306	,	0
24,5	,	35384	,	-24131	,	-22826	,	-9.17692	,	0
24,5	,	35400	,	-24143	,	-22834	,	-9.36343	,	0
24,5	,	35432	,	-24148	,	-22840	,	-9.813301	,	0
24,5	,	35448	,	-24145	,	-22835	,	-10.6531315	,	0
24,5	,	35464	,	-24141	,	-22839	,	-11.682721	,	0
24,5	,	35496	,	-24126	,	-22838	,	-12.410299	,	0
24,5	,	35512	,	-24133	,	-22847	,	-12.313044	,	0
24,5	,	35544	,	-24117	,	-22822	,	-11.126047	,	0
24,5	,	35560	,	-24107	,	-22827	,	-8.804031	,	1
24,5	,	35576	,	-24107	,	-22815	,	-5.4141593	,	3
24,5	,	35608	,	-24105	,	-22821	,	-1.2753267	,	6
24,5	,	35624	,	-24106	,	-22825	,	3.0373883	,	10
24,5	,	35640	,	-24107	,	-22826	,	6.90186	,	14
24,5	,	35672	,	-24104	,	-22825	,	9.84147	,	17
24,5	,	35688	,	-24091	,	-22825	,	11.702473	,	19
24,5	,	35704	,	-24109	,	-22821	,	12.602417	,	20
24,5	,	35736	,	-24106	,	-22826	,	12.606836	,	20
24,5	,	35752	,	-24108	,	-22837	,	11.698225	,	19
24,5	,	35784	,	-24091	,	-22806	,	10.08634	,	17
24,5	,	35800	,	-24107	,	-22818	,	8.209393	,	14
24,5	,	35816	,	-24098	,	-22818	,	6.391985	,	10
24,5	,	35848	,	-24108	,	-22809	,	4.7302604	,	6
24,5	,	35864	,	-24110	,	-22822	,	3.1940355	,	3
24,5	,	35880	,	-24108	,	-22816	,	1.7148366	,	1
24,5	,	35912	,	-24107	,	-22825	,	0.3205309	,	0
24,5	,	35928	,	-24107	,	-22821	,	-0.8523457	,	0
24,5	,	35960	,	-24114	,	-22818	,	-1.7209855	,	0
24,5	,	35976	,	-24114	,	-22814	,	-2.3493247	,	0
24,5	,	35992	,	-24119	,	-22829	,	-2.87263	,	0
24,5	,	36024	,	-24111	,	-22818	,	-3.357988	,	0
24,5	,	36040	,	-24124	,	-22826	,	-3.7874103	,	0
24,5	,	36056	,	-24128	,	-22829	,	-4.2083344	,	0
24,5	,	36088	,	-24125	,	-22835	,	-4.737611	,	0
24,5	,	36104	,	-24139	,	-22838	,	-5.4197235	,	0
24,5	,	36120	,	-24131	,	-22840	,	-6.235944	,	0
24,6	,	36152	,	-24147	,	-22837	,	-7.1464167	,	0
24,6	,	36168	,	-24139	,	-22832	,	-8.0998955	,	0
24,6	,	36200	,	-24147	,	-22843	,	-9.009101	,	0
24,6	,	36216	,	-24147	,	-22848	,	-9.749789	,	0
24,6	,	36232	,	-24148	,	-22837	,	-10.232096	,	0
24,6	,	36264	,	-24159	,	-22851	,	-10.442671	,	0
24,6	,	36280	,	-24164	,	-22849	,	-10.506727	,	0
24,6	,	36296	,	-24161	,	-22846	,	-10.60187	,	0
24,6	,	36328	,	-24155	,	-22836	,	-10.706753	,	0
24,6	,	36344	,	-24145	,	-22839	,	-10.533639	,	0
24,6	,	36376	,	-24133	,	-22831	,	-9.665455	,	0
24,6	,	36392	,	-24129	,	-22828	,	-7.7646284	,	0
24,6	,	36408	,	-24125	,	-22828	,	-4.788088	,	1
24,6	,	36440	,	-24106	,	-22830	,	-0.9551153	,	3
24,6	,	36456	,	-24122	,	-22835	,	3.387917	,	6
24,6	,	36472	,	-24112	,	-22803	,	7.6981544	,	10
24,6	,	36504	,	-24111	,	-22823	,	11.3731985	,	14
24,6	,	36520	,	-24102	,	-22819	,	14.086058	,	17
24,6	,	36535	,	-24111	,	-22823	,	15.768	,	19
24,6	,	36568	,	-24111	,	-22822	,	16.375093	,	20
24,6	,	36584	,	-24107	,	-22820	,	15.8908825	,	20
24,6	,	36616	,	-24104	,	-22816	,	14.503213	,	19
24,6	,	36632	,	-24093	,	-22819	,	12.62549	,	17
24,6	,	36648	,	-24101	,	-22818	,	10.710773	,	14
24,6	,	36680	,	-24098	,	-22816	,	9.012653	,	10
24,6	,	36696	,	-24106	,	-22832	,	7.5323863	,	6
24,6	,	36712	,	-24091	,	-22805	,	6.211353	,	3
24,6	,	36743	,	-24105	,	-22823	,	5.067007	,	1
24,6	,	36759	,	-24103	,	-22816	,	4.0808682	,	0
24,6	,	36792	,	-24107	,	-22824	,	3.1344464	,	0
24,6	,	36808	,	-24109	,	-22820	,	2.12426	,	0
24,6	,	36824	,	-24123	,	-22827	,	0.95132625	,	0
24,6	,	36856	,	-24113	,	-22837	,	-0.48510993	,	0
24,6	,	36872	,	-24127	,	-22826	,	-2.1496642	,	0
24,6	,	36888	,	-24121	,	-22825	,	-3.8929057	,	0
24,6	,	36920	,	-24128	,	-22839	,	-5.5545344	,	0
24,6	,	36935	,	-24133	,	-22832	,	-7.0115457	,	0
24,6	,	36952	,	-24146	,	-22835	,	-8.283141	,	0
24,6	,	36983	,	-24144	,	-22832	,	-9.506306	,	0
24,6	,	36999	,	-24149	,	-22843	,	-10.7361355	,	0
24,6	,	37032	,	-24144	,	-22848	,	-11.845597	,	0
24,6	,	37048	,	-24151	,	-22837	,	-12.616432	,	0
24,6	,	37064	,	-24156	,	-22846	,	-12.93536	,	0
24,6	,	37096	,	-24155	,	-22850	,	-12.861042	,	0
24,6	,	37111	,	-24164	,	-22848	,	-12.514139	,	0
24,6	,	37127	,	-24160	,	-22843	,	-12.013258	,	0
24,7	,	37159	,	-24172	,	-22866	,	-11.470424	,	0
24,7	,	37176	,	-24188	,	-22831	,	-11.0812845	,	0
24,7	,	37208	,	-24177	,	-22844	,	-11.095255	,	0
24,7	,	37223	,	-24162	,	-22844	,	-11.407963	,	0
24,7	,	37239	,	-24142	,	-22837	,	-11.361216	,	0
24,7	,	37271	,	-24132	,	-22830	,	-10.126331	,	0
24,7	,	37288	,	-24129	,	-22830	,	-7.251767	,	1
24,7	,	37304	,	-24134	,	-22821	,	-2.9591684	,	3
24,7	,	37335	,	-24111	,	-22822	,	2.0867176	,	7
24,7	,	37352	,	-24115	,	-22830	,	7.2703037	,	12
24,7	,	37368	,	-24108	,	-22827	,	12.12412	,	17
24,7	,	37399	,	-24109	,	-22836	,	16.204529	,	21
24,7	,	37415	,	-24111	,	-22810	,	19.125387	,	25
24,7	,	37448	,	-24109	,	-22821	,	20.627522	,	27
24,7	,	37464	,	-24106	,	-22816	,	20.67353	,	28
24,7	,	37479	,	-24119	,	-22819	,	19.424849	,	27
24,7	,	37511	,	-24111	,	-22821	,	17.095129	,	25
24,7	,	37527	,	-24109	,	-22809	,	14.005858	,	21
24,7	,	37543	,	-24088	,	-22812	,	10.733652	,	16
24,7	,	37575	,	-24104	,	-22814	,	7.9389477	,	11
24,7	,	37591	,	-24101	,	-22812	,	5.9274836	,	7
24,7	,	37623	,	-24101	,	-22826	,	4.5829315	,	3
24,7	,	37639	,	-24102	,	-22820	,	3.690331	,	1
24,7	,	37655	,	-24111	,	-22815	,	3.0345933	,	0
24,7	,	37687	,	-24105	,	-22815	,	2.3878279	,	0
24,7	,	37703	,	-24115	,	-22818	,	1.6134737	,	0
24,7	,	37719	,	-24115	,	-22811	,	0.66169643	,	0
24,7	,	37751	,	-24109	,	-22825	,	-0.43650222	,	0
24,7	,	37767	,	-24116	,	-22822	,	-1.5322874	,	0
24,7	,	37799	,	-24118	,	-22826	,	-2.500355	,	0
24,7	,	37815	,	-24121	,	-22819	,	-3.3395529	,	0
24,7	,	37831	,	-24121	,	-22827	,	-4.0789742	,	0
24,7	,	37863	,	-24128	,	-22835	,	-4.731825	,	0
24,7	,	37879	,	-24123	,	-22808	,	-5.3043804	,	0
24,7	,	37895	,	-24134	,	-22830	,	-5.787792	,	0
24,7	,	37928	,	-24149	,	-22830	,	-6.2810097	,	0
24,7	,	37943	,	-24133	,	-22836	,	-6.961363	,	0
24,7	,	37975	,	-24138	,	-22830	,	-7.752721	,	0
24,7	,	37991	,	-24146	,	-22838	,	-8.393556	,	0
24,7	,	38007	,	-24147	,	-22842	,	-8.801466	,	0
24,7	,	38039	,	-24165	,	-22837	,	-9.117536	,	0
24,7	,	38055	,	-24170	,	-22841	,	-9.617474	,	0
24,7	,	38071	,	-24161	,	-22844	,	-10.477762	,	0
24,7	,	38103	,	-24177	,	-22855	,	-11.565225	,	0
24,7	,	38119	,	-24164	,	-22828	,	-12.605833	,	0
24,8	,	38151	,	-24157	,	-22843	,	-13.258261	,	0
24,8	,	38167	,	-24148	,	-22839	,	-13.06962	,	0
24,8	,	38183	,	-24142	,	-22830	,	-11.685554	,	0
24,8	,	38215	,	-24133	,	-22840	,	-9.026627	,	1
24,8	,	38231	,	-24126	,	-22827	,	-5.26221	,	3
24,8	,	38247	,	-24124	,	-22829	,	-0.75197554	,	6
24,8	,	38279	,	-24112	,	-22822	,	4.0397553	,	10
24,8	,	38295	,	-24114	,	-22827	,	8.667231	,	14
24,8	,	38311	,	-24107	,	-22822	,	12.742058	,	18
24,8	,	38343	,	-24108	,	-22822	,	15.946096	,	22
24,8	,	38359	,	-24118	,	-22829	,	18.017025	,	25
24,8	,	38391	,	-24106	,	-22823	,	18.757792	,	27
24,8	,	38407	,	-24109	,	-22820	,	18.21576	,	26
24,8	,	38423	,	-24115	,	-22818	,	16.654667	,	24
24,8	,	38455	,	-24108	,	-22820	,	14.346278	,	21
24,8	,	38471	,	-24115	,	-22825	,	11.577844	,	17
24,8	,	38487	,	-24106	,	-22826	,	8.681583	,	13
24,8	,	38519	,	-24112	,	-22823	,	5.974767	,	9
24,8	,	38535	,	-24113	,	-22836	,	3.664894	,	5
24,8	,	38567	,	-24112	,	-22811	,	1.803782	,	2
24,8	,	38583	,	-24117	,	-22826	,	0.3622532	,	0
24,8	,	38599	,	-24113	,	-22823	,	-0.7178867	,	0
24,8	,	38631	,	-24119	,	-22814	,	-1.5023673	,	0
24,8	,	38647	,	-24119	,	-22825	,	-2.0646372	,	0
24,8	,	38663	,	-24120	,	-22837	,	-2.4861681	,	0
24,8	,	38695	,	-24127	,	-22826	,	-2.838657	,	0
24,8	,	38711	,	-24119	,	-22830	,	-3.173425	,	0
24,8	,	38727	,	-24137	,	-22826	,	-3.5293787	,	0
24,8	,	38759	,	-24121	,	-22825	,	-3.9497936	,	0
24,8	,	38775	,	-24134	,	-22851	,	-4.4036446	,	0
24,8	,	38807	,	-24138	,	-22826	,	-4.84423	,	0
24,8	,	38823	,	-24138	,	-22844	,	-5.3298287	,	0
24,8	,	38839	,	-24146	,	-22843	,	-5.914268	,	0
24,8	,	38871	,	-24149	,	-22848	,	-6.6113358	,	0
24,8	,	38887	,	-24153	,	-22841	,	-7.433005	,	0
24,8	,	38903	,	-24148	,	-22850	,	-8.3025055	,	0
24,8	,	38935	,	-24155	,	-22845	,	-9.037526	,	0
24,8	,	38951	,	-24157	,	-22842	,	-9.501291	,	0
24,8	,	38983	,	-24157	,	-22852	,	-9.6797085	,	0
24,8	,	38999	,	-24159	,	-22847	,	-9.596716	,	0
24,8	,	39015	,	-24151	,	-22850	,	-9.237185	,	0
24,8	,	39047	,	-24128	,	-22832	,	-8.413625	,	0
24,8	,	39063	,	-24130	,	-22835	,	-6.7578464	,	0
24,8	,	39079	,	-24128	,	-22830	,	-4.1051126	,	1
24,8	,	39111	,	-24121	,	-22837	,	-0.7103329	,	3
24,8	,	39127	,	-24127	,	-22828	,	2.9579005	,	6
24,9	,	39143	,	-24119	,	-22831	,	6.3962765	,	9
24,9	,	39175	,	-24121	,	-22829	,	9.198756	,	12
24,9	,	39191	,	-24118	,	-22830	,	11.149585	,	14
24,9	,	39222	,	-24129	,	-22838	,	12.141062	,	15
24,9	,	39239	,	-24132	,	-22842	,	12.067049	,	15
24,9	,	39255	,	-24122	,	-22827	,	10.934855	,	15
24,9	,	39287	,	-24124	,	-22839	,	9.0478115	,	14
24,9	,	39303	,	-24125	,	-22832	,	6.8556995	,	12
24,9	,	39319	,	-24116	,	-22834	,	4.7367263	,	9
24,9	,	39351	,	-24105	,	-22828	,	3.0689478	,	6
24,9	,	39367	,	-24107	,	-22823	,	2.216177	,	3
24,9	,	39398	,	-24112	,	-22827	,	2.2534287	,	1
24,9	,	39415	,	-24124	,	-22830	,	2.820335	,	0
24,9	,	39431	,	-24129	,	-22834	,	3.301949	,	0
24,9	,	39463	,	-24115	,	-22826	,	3.2503595	,	0
24,9	,	39479	,	-24132	,	-22845	,	2.6243527	,	0
24,9	,	39494	,	-24130	,	-22817	,	1.5368271	,	0
24,9	,	39527	,	-24136	,	-22831	,	0.05594468	,	0
24,9	,	39542	,	-24136	,	-22835	,	-1.6978176	,	0
24,9	,	39558	,	-24155	,	-22836	,	-3.6050243	,	0
24,9	,	39591	,	-24147	,	-22829	,	-5.642719	,	0
24,9	,	39607	,	-24152	,	-22843	,	-7.718204	,	0
24,9	,	39638	,	-24160	,	-22835	,	-9.6172905	,	0
24,9	,	39654	,	-24155	,	-22841	,	-11.169896	,	0
24,9	,	39671	,	-24167	,	-22842	,	-12.285908	,	0
24,9	,	39703	,	-24178	,	-22843	,	-13.021693	,	0
24,9	,	39719	,	-24165	,	-22864	,	-13.533805	,	0
24,9	,	39735	,	-24172	,	-22832	,	-13.793003	,	0
24,9	,	39766	,	-24183	,	-22846	,	-13.693119	,	0
24,9	,	39782	,	-24174	,	-22854	,	-13.304237	,	0
24,9	,	39814	,	-24174	,	-22846	,	-12.678532	,	0
24,9	,	39830	,	-24174	,	-22843	,	-11.730788	,	0
24,9	,	39847	,	-24150	,	-22843	,	-10.308946	,	0
24,9	,	39879	,	-24146	,	-22838	,	-8.1428585	,	1
24,9	,	39895	,	-24136	,	-22834	,	-4.9981403	,	3
24,9	,	39910	,	-24139	,	-22836	,	-0.97467804	,	6
24,9	,	39942	,	-24124	,	-22833	,	3.5126097	,	10
24,9	,	39959	,	-24131	,	-22829	,	7.967318	,	14
24,9	,	39975	,	-24127	,	-22826	,	11.902672	,	18
24,9	,	40006	,	-24128	,	-22823	,	14.877657	,	21
24,9	,	40022	,	-24120	,	-22829	,	16.650158	,	23
24,9	,	40055	,	-24140	,	-22833	,	17.164825	,	24
24,9	,	40071	,	-24136	,	-22823	,	16.374146	,	23
24,9	,	40087	,	-24122	,	-22820	,	14.402634	,	21
24,9	,	40118	,	-24123	,	-22832	,	11.7765045	,	18
24,10	,	40134	,	-24136	,	-22826	,	9.059839	,	14
24,10	,	40150	,	-24119	,	-22818	,	6.523045	,	10
24,10	,	40182	,	-24116	,	-22831	,	4.399439	,	6
24,10	,	40198	,	-24128	,	-22812	,	2.9275231	,	3
24,10	,	40230	,	-24130	,	-22818	,	2.0293877	,	1
24,10	,	40247	,	-24127	,	-22833	,	1.403981	,	0
24,10	,	40263	,	-24133	,	-22827	,	0.84614	,	0
24,10	,	40295	,	-24133	,	-22828	,	0.25930965	,	0
24,10	,	40310	,	-24140	,	-22838	,	-0.43620336	,	0
24,10	,	40326	,	-24135	,	-22833	,	-1.2793052	,	0
24,10	,	40358	,	-24147	,	-22832	,	-2.2441823	,	0
24,10	,	40374	,	-24139	,	-22831	,	-3.274237	,	0
24,10	,	40406	,	-24155	,	-22839	,	-4.316177	,	0
24,10	,	40422	,	-24155	,	-22852	,	-5.3845096	,	0
24,10	,	40438	,	-24152	,	-22819	,	-6.497277	,	0
24,10	,	40470	,	-24164	,	-22850	,	-7.565835	,	0
24,10	,	40486	,	-24166	,	-22845	,	-8.534832	,	0
24,10	,	40502	,	-24166	,	-22844	,	-9.425868	,	0
24,10	,	40534	,	-24162	,	-22850	,	-10.157846	,	0
24,10	,	40550	,	-24180	,	-22843	,	-10.6083355	,	0
24,10	,	40566	,	-24165	,	-22841	,	-10.781405	,	0
24,10	,	40598	,	-24184	,	-22851	,	-10.737078	,	0
24,10	,	40614	,	-24179	,	-22856	,	-10.558823	,	0
24,10	,	40646	,	-24169	,	-22854	,	-10.282236	,	0
24,10	,	40662	,	-24195	,	-22856	,	-9.853617	,	0
24,10	,	40679	,	-24191	,	-22850	,	-9.400398	,	0
24,10	,	40710	,	-24178	,	-22849	,	-9.093614	,	0
24,10	,	40726	,	-24173	,	-22851	,	-8.732428	,	0
24,10	,	40742	,	-24147	,	-22839	,	-7.8114185	,	0
24,10	,	40774	,	-24132	,	-22830	,	-5.742875	,	0
24,10	,	40790	,	-24146	,	-22830	,	-2.223063	,	2
24,10	,	40822	,	-24132	,	-22827	,	2.381684	,	5
24,10	,	40838	,	-24122	,	-22821	,	7.3580265	,	9
24,10	,	40854	,	-24112	,	-22823	,	12.196145	,	13
24,10	,	40886	,	-24115	,	-22829	,	16.57455	,	17
24,10	,	40902	,	-24116	,	-22804	,	20.11605	,	21
24,10	,	40918	,	-24130	,	-22822	,	22.340439	,	24
24,10	,	40950	,	-24121	,	-22819	,	22.851446	,	26
24,10	,	40966	,	-24107	,	-22821	,	21.70064	,	26
24,10	,	40982	,	-24121	,	-22820	,	19.416256	,	24
24,10	,	41014	,	-24111	,	-22814	,	16.546944	,	21
24,10	,	41030	,	-24109	,	-22820	,	13.497775	,	17
24,10	,	41062	,	-24122	,	-22821	,	10.586524	,	13
24,10	,	41078	,	-24122	,	-22815	,	7.890877	,	9
24,10	,	41094	,	-24102	,	-22817	,	5.425697	,	5
24,11	,	41126	,	-24105	,	-22836	,	3.4685926	,	2
24,11	,	41142	,	-24117	,	-22794	,	2.2606835	,	0
24,11	,	41158	,	-24114	,	-22819	,	1.6359816	,	0
24,11	,	41190	,	-24114	,	-22813	,	1.2730992	,	0
24,11	,	41206	,	-24126	,	-22813	,	0.9491408	,	0
24,11	,	41238	,	-24125	,	-22819	,	0.45572042	,	0
24,11	,	41254	,	-24125	,	-22820	,	-0.34116203	,	0
24,11	,	41270	,	-24132	,	-22817	,	-1.4007934	,	0
24,11	,	41302	,	-24131	,	-22819	,	-2.6161942	,	0
24,11	,	41318	,	-24128	,	-22828	,	-3.8437107	,	0
24,11	,	41334	,	-24126	,	-22828	,	-4.857741	,	0
24,11	,	41366	,	-24145	,	-22829	,	-5.5339727	,	0
24,11	,	41382	,	-24146	,	-22822	,	-6.044465	,	0
24,11	,	41398	,	-24144	,	-22831	,	-6.6325607	,	0
24,11	,	41430	,	-24147	,	-22837	,	-7.309786	,	0
24,11	,	41446	,	-24147	,	-22841	,	-7.9298415	,	0
24,11	,	41478	,	-24157	,	-22834	,	-8.396755	,	0
24,11	,	41494	,	-24160	,	-22839	,	-8.756437	,	0
24,11	,	41510	,	-24154	,	-22837	,	-9.078542	,	0
24,11	,	41542	,	-24162	,	-22837	,	-9.30972	,	0
24,11	,	41558	,	-24164	,	-22835	,	-9.389587	,	0
24,11	,	41574	,	-24166	,	-22845	,	-9.351897	,	0
24,11	,	41606	,	-24158	,	-22823	,	-9.192075	,	0
24,11	,	41622	,	-24176	,	-22834	,	-8.860357	,	0
24,11	,	41654	,	-24139	,	-22830	,	-8.289824	,	0
24,11	,	41670	,	-24134	,	-22830	,	-7.1513486	,	0
24,11	,	41686	,	-24125	,	-22818	,	-4.9698095	,	1
24,11	,	41718	,	-24117	,	-22816	,	-1.6062627	,	3
24,11	,	41734	,	-24113	,	-22806	,	2.6728454	,	6
24,11	,	41750	,	-24108	,	-22811	,	7.3770466	,	10
24,11	,	41782	,	-24122	,	-22807	,	11.858595	,	14
24,11	,	41798	,	-24104	,	-22808	,	15.450872	,	18
24,11	,	41814	,	-24100	,	-22809	,	17.822441	,	21
24,11	,	41846	,	-24104	,	-22791	,	19.037537	,	23
24,11	,	41862	,	-24117	,	-22805	,	19.150368	,	24
24,11	,	41894	,	-24098	,	-22801	,	18.138157	,	23
24,11	,	41909	,	-24105	,	-22797	,	16.221241	,	21
24,11	,	41925	,	-24098	,	-22797	,	13.828971	,	18
24,11	,	41958	,	-24102	,	-22806	,	11.334677	,	14
24,11	,	41974	,	-24086	,	-22803	,	9.045557	,	10
24,11	,	41990	,	-24100	,	-22795	,	7.226588	,	6
24,11	,	42022	,	-24090	,	-22796	,	5.957757	,	3
24,11	,	42038	,	-24097	,	-22802	,	5.1305037	,	1
24,11	,	42069	,	-24096	,	-22811	,	4.573752	,	0
24,11	,	42085	,	-24105	,	-22785	,	4.0702004	,	0
24,11	,	42101	,	-24108	,	-22797	,	3.3700345	,	0
24,12	,	42134	,	-24117	,	-22802	,	2.2608023	,	0
24,12	,	42150	,	-24104	,	-22804	,	0.70197713	,	0
24,12	,	42166	,	-24101	,	-22806	,	-1.0230672	,	0
24,12	,	42198	,	-24121	,	-22807	,	-2.5392222	,	0
24,12	,	42214	,	-24117	,	-22810	,	-3.7834525	,	0
24,12	,	42229	,	-24134	,	-22813	,	-4.9476595	,	0
24,12	,	42261	,	-24128	,	-22812	,	-6.211291	,	0
24,12	,	42278	,	-24133	,	-22823	,	-7.5874467	,	0
24,12	,	42310	,	-24142	,	-22808	,	-8.953191	,	0
24,12	,	42326	,	-24125	,	-22809	,	-10.152131	,	0
24,12	,	42342	,	-24144	,	-22814	,	-10.981827	,	0
24,12	,	42374	,	-24152	,	-22815	,	-11.397083	,	0
24,12	,	42390	,	-24136	,	-22823	,	-11.553437	,	0
24,12	,	42406	,	-24150	,	-22818	,	-11.47974	,	0
24,12	,	42437	,	-24149	,	-22819	,	-11.138359	,	0
24,12	,	42453	,	-24151	,	-22817	,	-10.605579	,	0
24,12	,	42485	,	-24155	,	-22830	,	-9.977162	,	0
24,12	,	42501	,	-24153	,	-22827	,	-9.319666	,	0
24,12	,	42517	,	-24164	,	-22837	,	-8.699583	,	0
24,12	,	42549	,	-24133	,	-22799	,	-8.077975	,	0
24,12	,	42565	,	-24118	,	-22809	,	-7.0406027	,	0
24,12	,	42581	,	-24114	,	-22809	,	-4.964918	,	1
24,12	,	42614	,	-24114	,	-22802	,	-1.6480634	,	3
24,12	,	42630	,	-24103	,	-22803	,	2.55086	,	6
24,12	,	42661	,	-24104	,	-22805	,	7.0684776	,	10
24,12	,	42677	,	-24092	,	-22803	,	11.383261	,	14
24,12	,	42694	,	-24106	,	-22794	,	15.037268	,	18
24,12	,	42725	,	-24104	,	-22794	,	17.56726	,	21
24,12	,	42741	,	-24099	,	-22803	,	18.643814	,	23
24,12	,	42757	,	-24102	,	-22820	,	18.294657	,	24
24,12	,	42789	,	-24103	,	-22786	,	16.788662	,	23
24,12	,	42805	,	-24105	,	-22800	,	14.431727	,	21
24,12	,	42822	,	-24097	,	-22799	,	11.576711	,	18
24,12	,	42853	,	-24097	,	-22793	,	8.653702	,	14
24,12	,	42869	,	-24095	,	-22791	,	6.058938	,	10
24,12	,	42901	,	-24094	,	-22796	,	4.0319276	,	6
24,12	,	42917	,	-24095	,	-22794	,	2.6403499	,	3
24,12	,	42933	,	-24096	,	-22792	,	1.8065741	,	1
24,12	,	42965	,	-24109	,	-22793	,	1.3058139	,	0
24,12	,	42981	,	-24093	,	-22801	,	0.87322056	,	0
24,12	,	42997	,	-24093	,	-22788	,	0.46982074	,	0
24,12	,	43029	,	-24093	,	-22794	,	0.26333165	,	0
24,12	,	43045	,	-24103	,	-22794	,	0.29065856	,	0
24,12	,	43077	,	-24104	,	-22797	,	0.34951222	,	0
24,12	,	43094	,	-24112	,	-22804	,	0.17014292	,	0
24,12	,	43109	,	-24113	,	-22802	,	-0.42912924	,	0
24,13	,	43142	,	-24115	,	-22808	,	-1.4682461	,	0
24,13	,	43157	,	-24109	,	-22809	,	-2.771	,	0
24,13	,	43173	,	-24120	,	-22811	,	-4.0675607	,	0
24,13	,	43205	,	-24120	,	-22810	,	-5.202313	,	0
24,13	,	43221	,	-24117	,	-22820	,	-6.1261196	,	0
24,13	,	43237	,	-24132	,	-22798	,	-6.810177	,	0
24,13	,	43269	,	-24119	,	-22820	,	-7.286104	,	0
24,13	,	43285	,	-24143	,	-22826	,	-7.63643	,	0
24,13	,	43317	,	-24149	,	-22835	,	-8.071622	,	0
24,13	,	43333	,	-24130	,	-22821	,	-8.785712	,	0
24,13	,	43349	,	-24136	,	-22819	,	-9.564374	,	0
24,13	,	43381	,	-24121	,	-22816	,	-9.917514	,	0
24,13	,	43397	,	-24106	,	-22803	,	-9.37738	,	0
24,13	,	43413	,	-24112	,	-22803	,	-7.6258183	,	0
24,13	,	43445	,	-24104	,	-22803	,	-4.7312956	,	1
24,13	,	43461	,	-24100	,	-22812	,	-1.1082282	,	3
24,13	,	43493	,	-24090	,	-22786	,	2.8039522	,	6
24,13	,	43509	,	-24085	,	-22797	,	6.689399	,	9
24,13	,	43525	,	-24078	,	-22801	,	10.32887	,	12
24,13	,	43557	,	-24106	,	-22812	,	13.396122	,	15
24,13	,	43573	,	-24102	,	-22800	,	15.300931	,	18
24,13	,	43589	,	-24110	,	-22803	,	15.522486	,	19
24,13	,	43621	,	-24100	,	-22796	,	14.039592	,	19
24,13	,	43637	,	-24094	,	-22800	,	11.358818	,	18
24,13	,	43653	,	-24090	,	-22793	,	8.273315	,	16
24,13	,	43685	,	-24090	,	-22801	,	5.502298	,	13
24,13	,	43701	,	-24086	,	-22796	,	3.4553037	,	10
24,13	,	43733	,	-24093	,	-22791	,	2.2235358	,	7
24,13	,	43749	,	-24085	,	-22800	,	1.6735084	,	4
24,13	,	43765	,	-24092	,	-22800	,	1.5976617	,	1
24,13	,	43797	,	-24098	,	-22804	,	1.7442302	,	0
24,13	,	43813	,	-24117	,	-22795	,	1.7062631	,	0
24,13	,	43829	,	-24101	,	-22797	,	1.0757815	,	0
24,13	,	43861	,	-24106	,	-22797	,	-0.16024184	,	0
24,13	,	43877	,	-24098	,	-22809	,	-1.6185198	,	0
24,13	,	43909	,	-24107	,	-22806	,	-2.899694	,	0
24,13	,	43925	,	-24114	,	-22808	,	-3.8622742	,	0
24,13	,	43941	,	-24107	,	-22795	,	-4.5793333	,	0
24,13	,	43973	,	-24112	,	-22799	,	-5.088286	,	0
24,13	,	43989	,	-24109	,	-22812	,	-5.3390136	,	0
24,13	,	44005	,	-24119	,	-22811	,	-5.340251	,	0
24,13	,	44037	,	-24124	,	-22806	,	-5.246099	,	0
24,13	,	44053	,	-24125	,	-22820	,	-5.28269	,	0
24,13	,	44069	,	-24124	,	-22813	,	-5.5454717	,	0
24,13	,	44101	,	-24128	,	-22812	,	-5.9522963	,	0
24,13	,	44117	,	-24130	,	-22809	,	-6.389778	,	0
24,14	,	44149	,	-24109	,	-22804	,	-6.686471	,	0
24,14	,	44165	,	-24108	,	-22823	,	-6.4808817	,	0
24,14	,	44181	,	-24092	,	-22775	,	-5.377447	,	0
24,14	,	44213	,	-24078	,	-22797	,	-3.1267474	,	1
24,14	,	44229	,	-24079	,	-22797	,	0.30975723	,	3
24,14	,	44245	,	-24078	,	-22791	,	4.587045	,	6
24,14	,	44277	,	-24071	,	-22786	,	9.043896	,	10
24,14	,	44293	,	-24072	,	-22778	,	13.044441	,	14
24,14	,	44325	,	-24072	,	-22788	,	16.125511	,	18
24,14	,	44341	,	-24068	,	-22784	,	18.00451	,	21
24,14	,	44357	,	-24083	,	-22788	,	18.555313	,	22
24,14	,	44389	,	-24071	,	-22790	,	17.761263	,	22
24,14	,	44405	,	-24074	,	-22797	,	15.824976	,	21
24,14	,	44421	,	-24076	,	-22778	,	13.158247	,	19
24,14	,	44453	,	-24067	,	-22788	,	10.197183	,	16
24,14	,	44468	,	-24079	,	-22780	,	7.3204703	,	12
24,14	,	44484	,	-24073	,	-22781	,	4.7520666	,	8
24,14	,	44517	,	-24070	,	-22779	,	2.5963922	,	4
24,14	,	44533	,	-24071	,	-22780	,	0.9712882	,	1
24,14	,	44565	,	-24071	,	-22774	,	-0.06831503	,	0
24,14	,	44581	,	-24069	,	-22782	,	-0.58639574	,	0
24,14	,	44597	,	-24068	,	-22780	,	-0.6825061	,	0
24,14	,	44629	,	-24076	,	-22790	,	-0.48545334	,	0
24,14	,	44645	,	-24073	,	-22778	,	-0.19197398	,	0
24,14	,	44661	,	-24065	,	-22783	,	0.06327197	,	0
24,14	,	44692	,	-24093	,	-22790	,	0.20841357	,	0
24,14	,	44709	,	-24091	,	-22792	,	-0.018580966	,	0
24,14	,	44741	,	-24091	,	-22791	,	-0.90263635	,	0
24,14	,	44757	,	-24097	,	-22796	,	-2.3928864	,	0
24,14	,	44773	,	-24083	,	-22798	,	-4.155844	,	0
24,14	,	44805	,	-24105	,	-22799	,	-5.814904	,	0
24,14	,	44820	,	-24107	,	-22800	,	-7.230379	,	0
24,14	,	44837	,	-24103	,	-22801	,	-8.469159	,	0
24,14	,	44868	,	-24110	,	-22810	,	-9.505335	,	0
24,14	,	44884	,	-24119	,	-22795	,	-10.290607	,	0
24,14	,	44900	,	-24119	,	-22804	,	-10.907832	,	0
24,14	,	44933	,	-24114	,	-22797	,	-11.388238	,	0
24,14	,	44949	,	-24099	,	-22794	,	-11.509449	,	0
24,14	,	44981	,	-24087	,	-22790	,	-10.831347	,	0
24,14	,	44997	,	-24076	,	-22784	,	-8.92633	,	0
24,14	,	45013	,	-24065	,	-22778	,	-5.6153274	,	1
24,14	,	45044	,	-24058	,	-22772	,	-1.0456629	,	4
24,14	,	45061	,	-24052	,	-22768	,	4.356215	,	8
24,14	,	45077	,	-24032	,	-22767	,	10.064464	,	13
24,14	,	45109	,	-24029	,	-22785	,	15.660508	,	18
24,14	,	45125	,	-24041	,	-22753	,	20.702702	,	23
24,15	,	45156	,	-24032	,	-22760	,	24.564116	,	28
24,15	,	45172	,	-24033	,	-22761	,	26.740307	,	31
24,15	,	45188	,	-24043	,	-22758	,	27.071926	,	33
24,15	,	45221	,	-24042	,	-22760	,	25.599442	,	32
24,15	,	45237	,	-24027	,	-22760	,	22.627855	,	29
24,15	,	45253	,	-24030	,	-22756	,	18.830158	,	25
24,15	,	45285	,	-24020	,	-22759	,	14.9627905	,	20
24,15	,	45300	,	-24013	,	-22752	,	11.625911	,	15
24,15	,	45316	,	-24014	,	-22761	,	9.221878	,	10
24,15	,	45349	,	-24020	,	-22751	,	7.809872	,	5
24,15	,	45364	,	-24020	,	-22749	,	7.0781	,	2
24,15	,	45396	,	-24019	,	-22745	,	6.6139784	,	0
24,15	,	45412	,	-24016	,	-22752	,	6.1601	,	0
24,15	,	45429	,	-24024	,	-22747	,	5.6158237	,	0
24,15	,	45461	,	-24026	,	-22744	,	4.8946915	,	0
24,15	,	45476	,	-24021	,	-22757	,	3.9299867	,	0
24,15	,	45492	,	-24029	,	-22754	,	2.7657175	,	0
24,15	,	45524	,	-24038	,	-22756	,	1.4356964	,	0
24,15	,	45540	,	-24042	,	-22753	,	-0.14473295	,	0
24,15	,	45572	,	-24041	,	-22765	,	-2.010235	,	0
24,15	,	45588	,	-24032	,	-22736	,	-3.9545841	,	0
24,15	,	45604	,	-24055	,	-22752	,	-5.679411	,	0
24,15	,	45636	,	-24057	,	-22756	,	-7.147403	,	0
24,15	,	45653	,	-24045	,	-22761	,	-8.464185	,	0
24,15	,	45668	,	-24057	,	-22768	,	-9.528831	,	0
24,15	,	45700	,	-24064	,	-22773	,	-10.227556	,	0
24,15	,	45716	,	-24058	,	-22770	,	-10.631363	,	0
24,15	,	45748	,	-24058	,	-22769	,	-10.759199	,	0
24,15	,	45765	,	-24058	,	-22766	,	-10.50761	,	0
24,15	,	45780	,	-24039	,	-22770	,	-9.733483	,	0
24,15	,	45812	,	-24034	,	-22773	,	-8.202577	,	0
24,15	,	45828	,	-24029	,	-22752	,	-5.7232404	,	1
24,15	,	45844	,	-24001	,	-22734	,	-2.2740479	,	3
24,15	,	45876	,	-23999	,	-22736	,	2.1157978	,	6
24,15	,	45892	,	-23999	,	-22734	,	7.2247	,	10
24,15	,	45908	,	-23981	,	-22731	,	12.516672	,	15
24,15	,	45940	,	-23979	,	-22734	,	17.463127	,	20
24,15	,	45956	,	-23995	,	-22735	,	21.594425	,	24
24,15	,	45988	,	-23983	,	-22730	,	24.347637	,	28
24,15	,	46004	,	-23978	,	-22722	,	25.40245	,	30
24,15	,	46020	,	-23967	,	-22727	,	24.97913	,	30
24,15	,	46052	,	-23977	,	-22728	,	23.55367	,	28
24,15	,	46068	,	-23981	,	-22725	,	21.431137	,	25
24,15	,	46084	,	-23964	,	-22724	,	18.780258	,	21
24,15	,	46116	,	-23960	,	-22723	,	15.965995	,	16
24,16	,	46132	,	-23960	,	-22713	,	13.466938	,	11
24,16	,	46164	,	-23947	,	-22700	,	11.584378	,	7
24,16	,	46180	,	-23954	,	-22715	,	10.424152	,	3
24,16	,	46196	,	-23968	,	-22727	,	9.810849	,	1
24,16	,	46228	,	-23968	,	-22720	,	9.244274	,	0
24,16	,	46244	,	-23954	,	-22729	,	8.326997	,	0
24,16	,	46260	,	-23984	,	-22731	,	6.9884524	,	0
24,16	,	46292	,	-23974	,	-22709	,	5.170473	,	0
24,16	,	46308	,	-23977	,	-22728	,	2.8539958	,	0
24,16	,	46324	,	-23989	,	-22726	,	0.23514915	,	0
24,16	,	46356	,	-23981	,	-22730	,	-2.4535167	,	0
24,16	,	46372	,	-23979	,	-22729	,	-4.931047	,	0
24,16	,	46404	,	-23990	,	-22735	,	-6.867471	,	0
24,16	,	46420	,	-23989	,	-22737	,	-8.150688	,	0
24,16	,	46436	,	-23987	,	-22739	,	-8.854046	,	0
24,16	,	46468	,	-24012	,	-22739	,	-9.133756	,	0
24,16	,	46484	,	-23995	,	-22733	,	-9.270685	,	0
24,16	,	46500	,	-24001	,	-22752	,	-9.40739	,	0
24,16	,	46532	,	-23990	,	-22719	,	-9.381872	,	0
24,16	,	46548	,	-24017	,	-22740	,	-9.0674715	,	0
24,16	,	46580	,	-24012	,	-22747	,	-8.659378	,	0
24,16	,	46596	,	-24021	,	-22745	,	-8.476591	,	0
24,16	,	46612	,	-24022	,	-22740	,	-8.659442	,	0
24,16	,	46644	,	-24008	,	-22739	,	-9.080711	,	0
24,16	,	46660	,	-23998	,	-22731	,	-9.307152	,	0
24,16	,	46676	,	-24000	,	-22735	,	-8.814475	,	0
24,16	,	46708	,	-23978	,	-22722	,	-7.2992654	,	0
24,16	,	46724	,	-23968	,	-22727	,	-4.613071	,	1
24,16	,	46740	,	-23957	,	-22734	,	-0.7040591	,	3
24,16	,	46772	,	-23951	,	-22712	,	4.217149	,	6
24,16	,	46788	,	-23943	,	-22711	,	9.663514	,	10
24,16	,	46820	,	-23941	,	-22703	,	15.02896	,	15
24,16	,	46836	,	-23949	,	-22705	,	19.663357	,	20
24,16	,	46852	,	-23945	,	-22716	,	22.927177	,	24
24,16	,	46884	,	-23948	,	-22707	,	24.405182	,	27
24,16	,	46900	,	-23951	,	-22708	,	24.039253	,	28
24,16	,	46916	,	-23950	,	-22711	,	22.043556	,	27
24,16	,	46948	,	-23951	,	-22702	,	18.821007	,	25
24,16	,	46964	,	-23943	,	-22714	,	14.923026	,	22
24,16	,	46996	,	-23938	,	-22697	,	10.992184	,	18
24,16	,	47012	,	-23940	,	-22710	,	7.6036863	,	13
24,16	,	47028	,	-23941	,	-22705	,	5.048537	,	8
24,16	,	47060	,	-23941	,	-22704	,	3.3051362	,	4
24,16	,	47076	,	-23939	,	-22710	,	2.2117436	,	1
24,16	,	47092	,	-23948	,	-22711	,	1.5737331	,	0
24,16	,	47124	,	-23945	,	-22713	,	1.1612453	,	0
24,17	,	47140	,	-23953	,	-22701	,	0.7556728	,	0
24,17	,	47156	,	-23946	,	-22717	,	0.2259072	,	0
24,17	,	47188	,	-23953	,	-22721	,	-0.43743873	,	0
24,17	,	47204	,	-23959	,	-22726	,	-1.2041826	,	0
24,17	,	47235	,	-23971	,	-22704	,	-2.1554215	,	0
24,17	,	47252	,	-23970	,	-22719	,	-3.44084	,	0
24,17	,	47268	,	-23967	,	-22720	,	-5.0356703	,	0
24,17	,	47300	,	-23979	,	-22727	,	-6.707754	,	0
24,17	,	47316	,	-23974	,	-22728	,	-8.2465105	,	0
24,17	,	47332	,	-23973	,	-22730	,	-9.48518	,	0
24,17	,	47364	,	-23991	,	-22733	,	-10.301172	,	0
24,17	,	47379	,	-23991	,	-22731	,	-10.805639	,	0
24,17	,	47412	,	-23996	,	-22734	,	-11.230499	,	0
24,17	,	47428	,	-23992	,	-22737	,	-11.639959	,	0
24,17	,	47444	,	-24015	,	-22742	,	-12.008903	,	0
24,17	,	47476	,	-24002	,	-22738	,	-12.40395	,	0
24,17	,	47492	,	-24002	,	-22744	,	-12.788582	,	0
24,17	,	47508	,	-23994	,	-22738	,	-12.866461	,	0
24,17	,	47540	,	-23975	,	-22734	,	-12.220928	,	0
24,17	,	47555	,	-23976	,	-22726	,	-10.468752	,	0
24,17	,	47572	,	-23972	,	-22725	,	-7.5150642	,	1
24,17	,	47604	,	-23955	,	-22724	,	-3.6097913	,	3
24,17	,	47619	,	-23952	,	-22718	,	0.9288516	,	6
24,17	,	47651	,	-23952	,	-22714	,	5.7365413	,	10
24,17	,	47667	,	-23941	,	-22719	,	10.331092	,	14
24,17	,	47684	,	-23949	,	-22706	,	14.25451	,	18
24,17	,	47716	,	-23959	,	-22715	,	17.068165	,	21
24,17	,	47732	,	-23951	,	-22726	,	18.369404	,	23
24,17	,	47748	,	-23955	,	-22721	,	18.063454	,	24
24,17	,	47779	,	-23941	,	-22720	,	16.47398	,	23
24,17	,	47795	,	-23943	,	-22723	,	14.182543	,	21
24,17	,	47828	,	-23952	,	-22717	,	11.707956	,	18
24,17	,	47844	,	-23945	,	-22710	,	9.287418	,	14
24,17	,	47860	,	-23940	,	-22705	,	7.06175	,	10
24,17	,	47891	,	-23941	,	-22711	,	5.2364564	,	6
24,17	,	47907	,	-23945	,	-22725	,	3.9193902	,	3
24,17	,	47923	,	-23936	,	-22705	,	3.0627244	,	1
24,17	,	47955	,	-23941	,	-22719	,	2.5932515	,	0
24,17	,	47971	,	-23950	,	-22717	,	2.367157	,	0
24,17	,	47987	,	-23952	,	-22716	,	2.0962267	,	0
24,17	,	48019	,	-23950	,	-22712	,	1.5445651	,	0
24,17	,	48035	,	-23961	,	-22727	,	0.658353	,	0
24,17	,	48067	,	-23955	,	-22718	,	-0.52665126	,	0
24,17	,	48083	,	-23970	,	-22727	,	-1.9428294	,	0
24,17	,	48099	,	-23964	,	-22730	,	-3.5154433	,	0
24,18	,	48131	,	-23963	,	-22735	,	-5.1020436	,	0
24,18	,	48148	,	-23964	,	-22745	,	-6.44011	,	0
24,18	,	48163	,	-23971	,	-22725	,	-7.333744	,	0
24,18	,	48195	,	-23988	,	-22740	,	-7.8759346	,	0
24,18	,	48211	,	-23984	,	-22741	,	-8.386155	,	0
24,18	,	48243	,	-23987	,	-22734	,	-9.067287	,	0
24,18	,	48259	,	-24004	,	-22737	,	-9.920459	,	0
24,18	,	48275	,	-24008	,	-22746	,	-10.996677	,	0
24,18	,	48307	,	-24000	,	-22759	,	-12.309739	,	0
24,18	,	48323	,	-23993	,	-22751	,	-13.54013	,	0
24,18	,	48339	,	-23973	,	-22740	,	-14.067064	,	0
24,18	,	48371	,	-23965	,	-22741	,	-13.234167	,	0
24,18	,	48387	,	-23962	,	-22726	,	-10.69595	,	0
24,18	,	48403	,	-23956	,	-22733	,	-6.631771	,	2
24,18	,	48435	,	-23965	,	-22730	,	-1.6651435	,	6
24,18	,	48451	,	-23951	,	-22725	,	3.3940902	,	10
24,18	,	48483	,	-23957	,	-22723	,	7.876342	,	15
24,18	,	48499	,	-23958	,	-22723	,	11.343887	,	19
24,18	,	48515	,	-23955	,	-22726	,	13.5146265	,	22
24,18	,	48547	,	-23967	,	-22731	,	14.278146	,	24
24,18	,	48563	,	-23965	,	-22737	,	13.659608	,	24
24,18	,	48579	,	-23965	,	-22728	,	11.843348	,	24
24,18	,	48611	,	-23965	,	-22737	,	9.228736	,	22
24,18	,	48627	,	-23959	,	-22713	,	6.322618	,	18
24,18	,	48659	,	-23953	,	-22725	,	3.6399097	,	14
24,18	,	48675	,	-23957	,	-22730	,	1.5976315	,	9
24,18	,	48691	,	-23957	,	-22726	,	0.34387493	,	5
24,18	,	48723	,	-23960	,	-22732	,	-0.2464571	,	2
24,18	,	48739	,	-23967	,	-22733	,	-0.43916416	,	0
24,18	,	48755	,	-23976	,	-22730	,	-0.5853493	,	0
24,18	,	48787	,	-23967	,	-22725	,	-0.9853624	,	0
24,18	,	48803	,	-23974	,	-22734	,	-1.6812168	,	0
24,18	,	48819	,	-23978	,	-22732	,	-2.5511343	,	0
24,18	,	48851	,	-23981	,	-22748	,	-3.5256636	,	0
24,18	,	48867	,	-23980	,	-22729	,	-4.554597	,	0
24,18	,	48899	,	-23988	,	-22747	,	-5.5515184	,	0
24,18	,	48915	,	-23994	,	-22737	,	-6.496346	,	0
24,18	,	48931	,	-23991	,	-22746	,	-7.4290586	,	0
24,18	,	48963	,	-23999	,	-22748	,	-8.3212185	,	0
24,18	,	48979	,	-23996	,	-22752	,	-9.085115	,	0
24,18	,	48995	,	-24006	,	-22750	,	-9.664257	,	0
24,18	,	49027	,	-24002	,	-22752	,	-10.052874	,	0
24,18	,	49043	,	-24011	,	-22752	,	-10.263129	,	0
24,18	,	49075	,	-24016	,	-22760	,	-10.353769	,	0
24,18	,	49091	,	-24022	,	-22767	,	-10.460717	,	0
24,18	,	49107	,	-24011	,	-22753	,	-10.635622	,	0
24,19	,	49139	,	-23992	,	-22745	,	-10.601978	,	0
24,19	,	49155	,	-23972	,	-22747	,	-9.730059	,	0
24,19	,	49171	,	-23972	,	-22745	,	-7.4132504	,	0
24,19	,	49203	,	-23958	,	-22739	,	-3.5243855	,	2
24,19	,	49219	,	-23955	,	-22734	,	1.5653272	,	5
24,19	,	49251	,	-23961	,	-22735	,	7.1713476	,	10
24,19	,	49267	,	-23943	,	-22729	,	12.486638	,	15
24,19	,	49283	,	-23951	,	-22734	,	16.892372	,	20
24,19	,	49315	,	-23952	,	-22740	,	19.994537	,	24
24,19	,	49331	,	-23952	,	-22714	,	21.50684	,	27
24,19	,	49347	,	-23958	,	-22727	,	21.34233	,	28
24,19	,	49379	,	-23937	,	-22727	,	19.735905	,	28
24,19	,	49395	,	-23948	,	-22730	,	17.237043	,	26
24,19	,	49411	,	-23947	,	-22722	,	14.39674	,	23
24,19	,	49443	,	-23948	,	-22730	,	11.504887	,	18
24,19	,	49459	,	-23944	,	-22725	,	8.730217	,	13
24,19	,	49491	,	-23929	,	-22720	,	6.3318715	,	8
24,19	,	49507	,	-23947	,	-22725	,	4.591929	,	4
24,19	,	49523	,	-23941	,	-22721	,	3.514061	,	1
24,19	,	49555	,	-23946	,	-22741	,	2.8360398	,	0
24,19	,	49571	,	-23952	,	-22712	,	2.2829764	,	0
24,19	,	49587	,	-23958	,	-22733	,	1.6008393	,	0
24,19	,	49618	,	-23966	,	-22726	,	0.5574461	,	0
24,19	,	49635	,	-23973	,	-22729	,	-0.9991869	,	0
24,19	,	49667	,	-23977	,	-22731	,	-3.0934956	,	0
24,19	,	49683	,	-23970	,	-22735	,	-5.52685	,	0
24,19	,	49699	,	-23967	,	-22733	,	-7.8428698	,	0
24,19	,	49731	,	-23982	,	-22741	,	-9.5945635	,	0
24,19	,	49747	,	-23974	,	-22735	,	-10.645033	,	0
24,19	,	49763	,	-23985	,	-22741	,	-11.074012	,	0
24,19	,	49794	,	-24000	,	-22748	,	-11.101231	,	0
24,19	,	49810	,	-24002	,	-22750	,	-11.124353	,	0
24,19	,	49843	,	-24007	,	-22751	,	-11.463265	,	0
24,19	,	49859	,	-24016	,	-22747	,	-12.184186	,	0
24,19	,	49875	,	-24019	,	-22763	,	-13.221591	,	0
24,19	,	49906	,	-24020	,	-22763	,	-14.424345	,	0
24,19	,	49923	,	-24023	,	-22763	,	-15.54137	,	0
24,19	,	49939	,	-24023	,	-22758	,	-16.308687	,	0
24,19	,	49971	,	-24004	,	-22752	,	-16.44503	,	0
24,19	,	49987	,	-23986	,	-22751	,	-15.512005	,	0
24,19	,	50018	,	-23972	,	-22756	,	-12.998269	,	0
24,19	,	50034	,	-23961	,	-22721	,	-8.653128	,	2
24,19	,	50050	,	-23949	,	-22735	,	-2.6679149	,	6
24,19	,	50083	,	-23944	,	-22726	,	4.3924885	,	11
24,19	,	50099	,	-23951	,	-22731	,	11.677103	,	18
24,19	,	50115	,	-23935	,	-22728	,	18.227499	,	25
24,20	,	50146	,	-23934	,	-22727	,	23.353933	,	31
24,20	,	50162	,	-23932	,	-22719	,	26.77069	,	36
24,20	,	50178	,	-23926	,	-22720	,	28.436817	,	39
24,20	,	50210	,	-23933	,	-22717	,	28.455988	,	40
24,20	,	50226	,	-23930	,	-22743	,	27.005907	,	38
24,20	,	50259	,	-23935	,	-22710	,	24.32265	,	34
24,20	,	50275	,	-23930	,	-22720	,	20.745358	,	29
24,20	,	50290	,	-23931	,	-22723	,	16.70129	,	22
24,20	,	50323	,	-23927	,	-22711	,	12.642522	,	15
24,20	,	50339	,	-23935	,	-22719	,	8.927942	,	9
24,20	,	50355	,	-23928	,	-22726	,	5.7477508	,	4
24,20	,	50387	,	-23935	,	-22725	,	3.177268	,	1
24,20	,	50402	,	-23926	,	-22722	,	1.2443767	,	0
24,20	,	50434	,	-23929	,	-22723	,	-0.036309958	,	0
24,20	,	50451	,	-23934	,	-22732	,	-0.7177094	,	0
24,20	,	50467	,	-23938	,	-22737	,	-1.0113014	,	0
24,20	,	50498	,	-23936	,	-22723	,	-1.1797483	,	0
24,20	,	50514	,	-23952	,	-22732	,	-1.429605	,	0
24,20	,	50530	,	-23962	,	-22738	,	-2.0243368	,	0
24,20	,	50562	,	-23965	,	-22732	,	-3.250178	,	0
24,20	,	50578	,	-23959	,	-22742	,	-5.1143646	,	0
24,20	,	50594	,	-23973	,	-22739	,	-7.301516	,	0
24,20	,	50627	,	-23973	,	-22737	,	-9.488928	,	0
24,20	,	50643	,	-23972	,	-22736	,	-11.45131	,	0
24,20	,	50674	,	-23970	,	-22737	,	-12.92544	,	0
24,20	,	50690	,	-23980	,	-22753	,	-13.691414	,	0
24,20	,	50706	,	-23985	,	-22733	,	-13.782755	,	0
24,20	,	50738	,	-23984	,	-22748	,	-13.428259	,	0
24,20	,	50754	,	-24006	,	-22743	,	-12.910883	,	0
24,20	,	50770	,	-24000	,	-22752	,	-12.559446	,	0
24,20	,	50802	,	-24015	,	-22747	,	-12.6116905	,	0
24,20	,	50818	,	-24012	,	-22755	,	-13.095018	,	0
24,20	,	50850	,	-24021	,	-22753	,	-13.887715	,	0
24,20	,	50866	,	-24005	,	-22752	,	-14.717913	,	0
24,20	,	50882	,	-24000	,	-22742	,	-15.123989	,	0
24,20	,	50915	,	-23978	,	-22730	,	-14.530761	,	0
24,20	,	50930	,	-23967	,	-22754	,	-12.417889	,	0
24,20	,	50946	,	-23965	,	-22720	,	-8.5813265	,	2
24,20	,	50978	,	-23953	,	-22725	,	-3.3143172	,	5
24,20	,	50994	,	-23950	,	-22721	,	2.7591996	,	10
24,20	,	51026	,	-23954	,	-22720	,	8.884506	,	16
24,20	,	51042	,	-23956	,	-22721	,	14.227773	,	22
24,20	,	51058	,	-23947	,	-22724	,	18.112392	,	27
24,20	,	51090	,	-23942	,	-22722	,	20.317347	,	30
24,20	,	51106	,	-23936	,	-22721	,	21.05802	,	32
24,20	,	51122	,	-23946	,	-22721	,	20.675495	,	32
24,21	,	51154	,	-23948	,	-22725	,	19.35574	,	30
24,21	,	51170	,	-23942	,	-22734	,	17.200182	,	27
24,21	,	51186	,	-23935	,	-22723	,	14.498043	,	22
24,21	,	51218	,	-23926	,	-22726	,	11.762436	,	16
24,21	,	51234	,	-23946	,	-22718	,	9.414539	,	10
24,21	,	51266	,	-23930	,	-22719	,	7.5239463	,	5
24,21	,	51282	,	-23943	,	-22724	,	5.983683	,	2
24,21	,	51298	,	-23947	,	-22721	,	4.6523542	,	0
24,21	,	51330	,	-23947	,	-22724	,	3.3200855	,	0
24,21	,	51346	,	-23952	,	-22729	,	1.8481879	,	0
24,21	,	51362	,	-23954	,	-22725	,	0.22890711	,	0
24,21	,	51394	,	-23947	,	-22728	,	-1.4385971	,	0
24,21	,	51410	,	-23952	,	-22725	,	-2.936033	,	0
24,21	,	51442	,	-23968	,	-22732	,	-4.140118	,	0
24,21	,	51458	,	-23969	,	-22737	,	-5.209526	,	0
24,21	,	51474	,	-23973	,	-22746	,	-6.364395	,	0
24,21	,	51506	,	-23975	,	-22747	,	-7.6346316	,	0
24,21	,	51522	,	-23981	,	-22742	,	-8.917481	,	0
24,21	,	51538	,	-23989	,	-22747	,	-10.137703	,	0
24,21	,	51570	,	-23978	,	-22757	,	-11.224379	,	0
24,21	,	51586	,	-23980	,	-22756	,	-11.965171	,	0
24,21	,	51602	,	-23979	,	-22758	,	-12.099419	,	0
24,21	,	51634	,	-23991	,	-22770	,	-11.585251	,	0
24,21	,	51650	,	-23995	,	-22741	,	-10.677743	,	0
24,21	,	51682	,	-24017	,	-22759	,	-9.84061	,	0
24,21	,	51698	,	-24011	,	-22764	,	-9.55784	,	0
24,21	,	51714	,	-24011	,	-22768	,	-9.990637	,	0
24,21	,	51746	,	-24023	,	-22763	,	-10.912698	,	0
24,21	,	51762	,	-24018	,	-22758	,	-12.022444	,	0
24,21	,	51778	,	-24001	,	-22762	,	-12.954151	,	0
24,21	,	51810	,	-24003	,	-22757	,	-13.180931	,	0
24,21	,	51826	,	-23984	,	-22756	,	-12.254151	,	0
24,21	,	51858	,	-23986	,	-22754	,	-9.9872055	,	0
24,21	,	51874	,	-23973	,	-22763	,	-6.477249	,	2
24,21	,	51890	,	-23967	,	-22738	,	-2.0503497	,	5
24,21	,	51922	,	-23969	,	-22747	,	2.8306398	,	9
24,21	,	51938	,	-23975	,	-22752	,	7.5433617	,	13
24,21	,	51954	,	-23979	,	-22743	,	11.366204	,	17
24,21	,	51986	,	-23977	,	-22752	,	13.742521	,	20
24,21	,	52002	,	-23972	,	-22745	,	14.515102	,	22
24,21	,	52018	,	-23983	,	-22756	,	13.878962	,	22
24,21	,	52050	,	-23970	,	-22748	,	12.180147	,	22
24,21	,	52066	,	-23976	,	-22748	,	9.865261	,	20
24,21	,	52097	,	-23971	,	-22756	,	7.4041314	,	17
24,21	,	52114	,	-23975	,	-22749	,	5.1322546	,	13
24,22	,	52130	,	-23959	,	-22742	,	3.2925706	,	9
24,22	,	52162	,	-23959	,	-22757	,	2.1433759	,	5
24,22	,	52178	,	-23978	,	-22753	,	1.7478735	,	2
24,22	,	52194	,	-23976	,	-22751	,	1.7438757	,	0
24,22	,	52226	,	-23977	,	-22754	,	1.6528726	,	0
24,22	,	52242	,	-23977	,	-22755	,	1.2645142	,	0
24,22	,	52274	,	-23976	,	-22752	,	0.6156351	,	0
24,22	,	52290	,	-23984	,	-22760	,	-0.18611217	,	0
24,22	,	52306	,	-23980	,	-22758	,	-1.0749004	,	0
24,22	,	52338	,	-23987	,	-22775	,	-2.003944	,	0
24,22	,	52354	,	-23990	,	-22756	,	-2.9376755	,	0
24,22	,	52370	,	-24000	,	-22764	,	-3.923212	,	0
24,22	,	52402	,	-24002	,	-22770	,	-5.064632	,	0
24,22	,	52418	,	-24012	,	-22773	,	-6.4300113	,	0
24,22	,	52434	,	-24007	,	-22773	,	-7.982688	,	0
24,22	,	52466	,	-24014	,	-22785	,	-9.550841	,	0
24,22	,	52482	,	-24015	,	-22790	,	-10.920229	,	0
24,22	,	52514	,	-24019	,	-22793	,	-11.954901	,	0
24,22	,	52530	,	-24011	,	-22783	,	-12.55479	,	0
24,22	,	52546	,	-24015	,	-22786	,	-12.585587	,	0
24,22	,	52577	,	-24039	,	-22810	,	-12.086576	,	0
24,22	,	52593	,	-24030	,	-22777	,	-11.427988	,	0
24,22	,	52609	,	-24023	,	-22782	,	-10.893983	,	0
24,22	,	52642	,	-24016	,	-22786	,	-10.320476	,	0
24,22	,	52658	,	-23994	,	-22788	,	-9.253136	,	0
24,22	,	52689	,	-23987	,	-22777	,	-7.1890507	,	1
24,22	,	52706	,	-23986	,	-22779	,	-3.888555	,	3
24,22	,	52721	,	-23986	,	-22779	,	0.36516714	,	6
24,22	,	52753	,	-23978	,	-22777	,	4.944088	,	10
24,22	,	52769	,	-23976	,	-22773	,	9.249702	,	14
24,22	,	52785	,	-23978	,	-22783	,	12.839267	,	18
24,22	,	52818	,	-23970	,	-22768	,	15.403071	,	21
24,22	,	52834	,	-23986	,	-22778	,	16.763601	,	23
24,22	,	52850	,	-23996	,	-22775	,	16.744951	,	24
24,22	,	52882	,	-24000	,	-22773	,	15.156687	,	23
24,22	,	52897	,	-23993	,	-22771	,	12.104824	,	21
24,22	,	52929	,	-23991	,	-22767	,	8.16152	,	18
24,22	,	52945	,	-23986	,	-22774	,	4.1246004	,	14
24,22	,	52961	,	-23990	,	-22779	,	0.6621585	,	10
24,22	,	52994	,	-23990	,	-22770	,	-1.8752859	,	6
24,22	,	53009	,	-23976	,	-22776	,	-3.3694453	,	3
24,22	,	53025	,	-23992	,	-22787	,	-3.8206475	,	1
24,22	,	53058	,	-23994	,	-22763	,	-3.4856422	,	0
24,22	,	53074	,	-23995	,	-22783	,	-2.8435698	,	0
24,22	,	53105	,	-24010	,	-22782	,	-2.3378434	,	0
24,22	,	53121	,	-24011	,	-22779	,	-2.3231616	,	0
24,23	,	53137	,	-24022	,	-22781	,	-3.0304008	,	0
24,23	,	53169	,	-24020	,	-22789	,	-4.463316	,	0
24,23	,	53186	,	-24017	,	-22786	,	-6.357048	,	0
24,23	,	53202	,	-24023	,	-22792	,	-8.270862	,	0
24,23	,	53234	,	-24027	,	-22792	,	-9.8598175	,	0
24,23	,	53249	,	-24030	,	-22787	,	-11.007937	,	0
24,23	,	53265	,	-24035	,	-22805	,	-11.730321	,	0
24,23	,	53297	,	-24037	,	-22786	,	-12.092805	,	0
24,23	,	53313	,	-24044	,	-22803	,	-12.1917	,	0
24,23	,	53345	,	-24048	,	-22808	,	-12.154049	,	0
24,23	,	53361	,	-24043	,	-22810	,	-12.064983	,	0
24,23	,	53378	,	-24043	,	-22810	,	-11.848419	,	0
24,23	,	53409	,	-24061	,	-22811	,	-11.4242325	,	0
24,23	,	53425	,	-24052	,	-22803	,	-10.9172325	,	0
24,23	,	53441	,	-24058	,	-22810	,	-10.463057	,	0
24,23	,	53473	,	-24055	,	-22805	,	-10.028463	,	0
24,23	,	53489	,	-24045	,	-22810	,	-9.462274	,	0
24,23	,	53521	,	-24030	,	-22804	,	-8.466917	,	0
24,23	,	53537	,	-24020	,	-22790	,	-6.6413007	,	0
24,23	,	53553	,	-24013	,	-22788	,	-3.73028	,	1
24,23	,	53585	,	-24011	,	-22791	,	0.16072083	,	3
24,23	,	53601	,	-24015	,	-22783	,	4.5480804	,	6
24,23	,	53617	,	-23992	,	-22775	,	8.840155	,	10
24,23	,	53649	,	-23996	,	-22781	,	12.684849	,	14
24,23	,	53665	,	-24001	,	-22783	,	15.860695	,	17
24,23	,	53681	,	-23999	,	-22772	,	18.030926	,	20
24,23	,	53713	,	-23997	,	-22777	,	18.931173	,	22
24,23	,	53729	,	-23984	,	-22776	,	18.637077	,	22
24,23	,	53761	,	-23991	,	-22759	,	17.510155	,	21
24,23	,	53777	,	-23985	,	-22776	,	15.917505	,	19
24,23	,	53793	,	-23984	,	-22774	,	14.104282	,	16
24,23	,	53825	,	-23980	,	-22773	,	12.274543	,	12
24,23	,	53841	,	-23990	,	-22765	,	10.557955	,	8
24,23	,	53857	,	-23992	,	-22771	,	8.902681	,	5
24,23	,	53889	,	-23988	,	-22770	,	7.1792006	,	2
24,23	,	53905	,	-23977	,	-22770	,	5.4427395	,	0
24,23	,	53937	,	-23980	,	-22768	,	3.9683862	,	0
24,23	,	53953	,	-23985	,	-22774	,	2.9556572	,	0
24,23	,	53969	,	-23993	,	-22780	,	2.300886	,	0
24,23	,	54001	,	-23991	,	-22764	,	1.7204025	,	0
24,23	,	54017	,	-24013	,	-22783	,	0.9175358	,	0
24,23	,	54033	,	-24019	,	-22787	,	-0.44316292	,	0
24,23	,	54065	,	-24018	,	-22776	,	-2.580656	,	0
24,23	,	54081	,	-24015	,	-22782	,	-5.295681	,	0
24,23	,	54113	,	-24020	,	-22791	,	-8.06368	,	0
24,23	,	54129	,	-24018	,	-22790	,	-10.390371	,	0
24,24	,	54145	,	-24020	,	-22779	,	-11.968395	,	0
24,24	,	54177	,	-24028	,	-22786	,	-12.705258	,	0
24,24	,	54193	,	-24034	,	-22758	,	-12.76692	,	0
24,24	,	54209	,	-24037	,	-22799	,	-12.474329	,	0
24,24	,	54241	,	-24036	,	-22778	,	-12.076641	,	0
24,24	,	54257	,	-24054	,	-22801	,	-11.720385	,	0
24,24	,	54273	,	-24049	,	-22806	,	-11.560852	,	0
24,24	,	54305	,	-24046	,	-22802	,	-11.631477	,	0
24,24	,	54321	,	-24050	,	-22805	,	-11.727962	,	0
24,24	,	54353	,	-24038	,	-22799	,	-11.569106	,	0
24,24	,	54369	,	-24031	,	-22797	,	-10.865175	,	0
24,24	,	54385	,	-24011	,	-22786	,	-9.276054	,	0
24,24	,	54417	,	-24004	,	-22783	,	-6.4949684	,	1
24,24	,	54433	,	-23991	,	-22790	,	-2.4362283	,	3
24,24	,	54449	,	-23997	,	-22762	,	2.6083288	,	7
24,24	,	54481	,	-23989	,	-22778	,	7.9944983	,	12
24,24	,	54497	,	-23987	,	-22776	,	12.987567	,	17
24,24	,	54529	,	-23971	,	-22776	,	17.091068	,	21
24,24	,	54545	,	-23975	,	-22770	,	20.133774	,	25
24,24	,	54561	,	-23979	,	-22772	,	22.039124	,	28
24,24	,	54593	,	-23977	,	-22774	,	22.670618	,	29
24,24	,	54609	,	-23975	,	-22764	,	21.997887	,	28
24,24	,	54625	,	-23978	,	-22767	,	20.204895	,	26
24,24	,	54657	,	-23974	,	-22767	,	17.595493	,	22
24,24	,	54673	,	-23963	,	-22774	,	14.5871525	,	17
24,24	,	54689	,	-23959	,	-22745	,	11.72348	,	12
24,24	,	54721	,	-23966	,	-22760	,	9.432097	,	8
24,24	,	54737	,	-23957	,	-22764	,	7.8120065	,	4
24,24	,	54768	,	-23965	,	-22759	,	6.7544646	,	1
24,24	,	54785	,	-23957	,	-22760	,	6.094763	,	0
24,24	,	54801	,	-23968	,	-22766	,	5.637546	,	0
24,24	,	54833	,	-23968	,	-22765	,	5.157516	,	0
24,24	,	54849	,	-23973	,	-22761	,	4.442918	,	0
24,24	,	54865	,	-23987	,	-22766	,	3.320211	,	0
24,24	,	54897	,	-23980	,	-22767	,	1.6675303	,	0
24,24	,	54913	,	-23985	,	-22777	,	-0.4331901	,	0
24,24	,	54944	,	-23994	,	-22763	,	-2.726416	,	0
24,24	,	54961	,	-24002	,	-22779	,	-5.056149	,	0
24,24	,	54977	,	-23997	,	-22774	,	-7.3588257	,	0
24,24	,	55009	,	-24007	,	-22773	,	-9.484353	,	0
24,24	,	55025	,	-24006	,	-22772	,	-11.2515955	,	0
24,24	,	55041	,	-24011	,	-22778	,	-12.558535	,	0
24,24	,	55073	,	-24008	,	-22786	,	-13.347778	,	0
24,24	,	55089	,	-24016	,	-22784	,	-13.589047	,	0
24,24	,	55104	,	-24016	,	-22783	,	-13.338638	,	0
24,25	,	55137	,	-24032	,	-22788	,	-12.79273	,	0
24,25	,	55153	,	-24026	,	-22782	,	-12.231388	,	0
24,25	,	55185	,	-24026	,	-22793	,	-11.79538	,	0
24,25	,	55201	,	-24031	,	-22788	,	-11.406908	,	0
24,25	,	55217	,	-24012	,	-22795	,	-10.8773365	,	0
24,25	,	55249	,	-23999	,	-22777	,	-9.848877	,	0
24,25	,	55265	,	-24000	,	-22780	,	-7.9019594	,	1
24,25	,	55280	,	-23983	,	-22769	,	-4.8925877	,	2
24,25	,	55313	,	-23986	,	-22774	,	-0.9972391	,	5
24,25	,	55329	,	-23971	,	-22774	,	3.4272656	,	8
24,25	,	55361	,	-23968	,	-22767	,	7.983942	,	12
24,25	,	55376	,	-23954	,	-22763	,	12.35651	,	16
24,25	,	55392	,	-23962	,	-22747	,	16.268476	,	20
24,25	,	55425	,	-23987	,	-22758	,	19.237604	,	23
24,25	,	55440	,	-23959	,	-22753	,	20.653131	,	25
24,25	,	55457	,	-23963	,	-22760	,	20.392408	,	25
24,25	,	55489	,	-23967	,	-22756	,	18.875666	,	24
24,25	,	55505	,	-23964	,	-22761	,	16.53237	,	21
24,25	,	55521	,	-23958	,	-22759	,	13.72523	,	18
24,25	,	55552	,	-23963	,	-22750	,	10.852059	,	14
24,25	,	55568	,	-23956	,	-22758	,	8.230034	,	10
24,25	,	55600	,	-23955	,	-22748	,	6.066968	,	6
24,25	,	55616	,	-23954	,	-22768	,	4.4927716	,	3
24,25	,	55632	,	-23953	,	-22739	,	3.5173883	,	1
24,25	,	55665	,	-23953	,	-22747	,	3.0364323	,	0
24,25	,	55681	,	-23966	,	-22750	,	2.8344	,	0
24,25	,	55697	,	-23973	,	-22747	,	2.5435867	,	0
24,25	,	55728	,	-23967	,	-22757	,	1.8189454	,	0
24,25	,	55745	,	-23969	,	-22748	,	0.62800276	,	0
24,25	,	55776	,	-23974	,	-22758	,	-0.8105649	,	0
24,25	,	55792	,	-23975	,	-22767	,	-2.294664	,	0
24,25	,	55808	,	-23977	,	-22762	,	-3.693653	,	0
24,25	,	55840	,	-23981	,	-22768	,	-4.908728	,	0
24,25	,	55857	,	-23975	,	-22766	,	-5.861188	,	0
24,25	,	55872	,	-23994	,	-22759	,	-6.530706	,	0
24,25	,	55904	,	-24008	,	-22779	,	-7.138608	,	0
24,25	,	55920	,	-24000	,	-22774	,	-8.047445	,	0
24,25	,	55936	,	-24003	,	-22771	,	-9.310234	,	0
24,25	,	55968	,	-24021	,	-22772	,	-10.7073345	,	0
24,25	,	55984	,	-24009	,	-22777	,	-12.085996	,	0
24,25	,	56016	,	-24021	,	-22780	,	-13.30212	,	0
24,25	,	56032	,	-24022	,	-22775	,	-14.195401	,	0
24,25	,	56048	,	-24018	,	-22781	,	-14.680698	,	0
24,25	,	56080	,	-24026	,	-22802	,	-14.688019	,	0
24,25	,	56096	,	-24023	,	-22768	,	-14.203341	,	0
24,25	,	56112	,	-24001	,	-22779	,	-13.18317	,	0
24,26	,	56144	,	-23988	,	-22767	,	-11.322903	,	1
24,26	,	56160	,	-23977	,	-22764	,	-8.224966	,	2
24,26	,	56192	,	-23974	,	-22762	,	-3.8098292	,	5
24,26	,	56208	,	-23966	,	-22765	,	1.5549183	,	9
24,26	,	56224	,	-23970	,	-22764	,	7.212254	,	14
24,26	,	56256	,	-23968	,	-22762	,	12.405392	,	19
24,26	,	56272	,	-23960	,	-22761	,	16.504335	,	24
24,26	,	56288	,	-23963	,	-22761	,	19.19767	,	28
24,26	,	56320	,	-23960	,	-22773	,	20.438005	,	30
24,26	,	56336	,	-23971	,	-22750	,	20.279346	,	30
24,26	,	56352	,	-23965	,	-22754	,	18.828712	,	29
24,26	,	56384	,	-23976	,	-22766	,	16.285557	,	26
24,26	,	56400	,	-23971	,	-22760	,	12.946098	,	22
24,26	,	56432	,	-23965	,	-22762	,	9.229348	,	17
24,26	,	56448	,	-23963	,	-22743	,	5.678656	,	12
24,26	,	56464	,	-23970	,	-22751	,	2.7392745	,	7
24,26	,	56496	,	-23963	,	-22750	,	0.57875395	,	3
24,26	,	56512	,	-23964	,	-22753	,	-0.80179286	,	1
24,26	,	56528	,	-23959	,	-22751	,	-1.4376352	,	0
24,26	,	56560	,	-23976	,	-22753	,	-1.4795234	,	0
24,26	,	56576	,	-23969	,	-22758	,	-1.2604929	,	0
24,26	,	56608	,	-23965	,	-22757	,	-1.0583447	,	0
24,26	,	56624	,	-23970	,	-22754	,	-0.9180124	,	0
24,26	,	56640	,	-23977	,	-22756	,	-0.8593316	,	0
24,26	,	56672	,	-23979	,	-22766	,	-1.0172079	,	0
24,26	,	56688	,	-23988	,	-22765	,	-1.5340943	,	0
24,26	,	56704	,	-23993	,	-22769	,	-2.4974668	,	0
24,26	,	56736	,	-23987	,	-22769	,	-3.873725	,	0
24,26	,	56752	,	-23987	,	-22765	,	-5.401434	,	0
24,26	,	56784	,	-23997	,	-22779	,	-6.749219	,	0
24,26	,	56800	,	-23996	,	-22762	,	-7.780703	,	0
24,26	,	56816	,	-24013	,	-22777	,	-8.574223	,	0
24,26	,	56848	,	-24007	,	-22775	,	-9.30299	,	0
24,26	,	56864	,	-24015	,	-22784	,	-10.060696	,	0
24,26	,	56880	,	-24026	,	-22782	,	-10.848406	,	0
24,26	,	56912	,	-24022	,	-22787	,	-11.687679	,	0
24,26	,	56928	,	-24001	,	-22772	,	-12.40383	,	0
24,26	,	56944	,	-24007	,	-22774	,	-12.5054245	,	0
24,26	,	56976	,	-23995	,	-22767	,	-11.577709	,	0
24,26	,	56992	,	-23977	,	-22759	,	-9.45529	,	0
24,26	,	57024	,	-23981	,	-22780	,	-6.109548	,	2
24,26	,	57040	,	-23971	,	-22737	,	-1.7835636	,	5
24,26	,	57056	,	-23973	,	-22755	,	2.9822016	,	9
24,26	,	57088	,	-23959	,	-22757	,	7.6170015	,	13
24,26	,	57104	,	-23969	,	-22759	,	11.676833	,	17
24,26	,	57120	,	-23974	,	-22762	,	14.750105	,	21
24,27	,	57152	,	-23978	,	-22760	,	16.41926	,	24
24,27	,	57168	,	-23986	,	-22758	,	16.424955	,	25
24,27	,	57200	,	-23977	,	-22764	,	14.816774	,	25
24,27	,	57216	,	-23974	,	-22762	,	12.031771	,	23
24,27	,	57232	,	-23971	,	-22757	,	8.768709	,	20
24,27	,	57264	,	-23976	,	-22768	,	5.650966	,	16
24,27	,	57280	,	-23972	,	-22756	,	3.034357	,	12
24,27	,	57296	,	-23980	,	-22760	,	1.0372367	,	8
24,27	,	57328	,	-23976	,	-22765	,	-0.38271093	,	4
24,27	,	57344	,	-23975	,	-22762	,	-1.3142507	,	1
24,27	,	57360	,	-23992	,	-22757	,	-1.8857638	,	0
24,27	,	57392	,	-23987	,	-22761	,	-2.3573306	,	0
24,27	,	57408	,	-23980	,	-22760	,	-2.9077373	,	0
24,27	,	57440	,	-23980	,	-22762	,	-3.4145873	,	0
24,27	,	57455	,	-23989	,	-22757	,	-3.6994505	,	0
24,27	,	57472	,	-23982	,	-22778	,	-3.7598448	,	0
24,27	,	57504	,	-23990	,	-22757	,	-3.6711633	,	0
24,27	,	57520	,	-24009	,	-22767	,	-3.6046453	,	0
24,27	,	57536	,	-24000	,	-22774	,	-3.8670158	,	0
24,27	,	57568	,	-24001	,	-22779	,	-4.575779	,	0
24,27	,	57584	,	-24013	,	-22773	,	-5.5650887	,	0
24,27	,	57615	,	-24015	,	-22778	,	-6.7066317	,	0
24,27	,	57632	,	-24020	,	-22771	,	-7.9696074	,	0
24,27	,	57648	,	-24020	,	-22778	,	-9.269917	,	0
24,27	,	57680	,	-24023	,	-22785	,	-10.454736	,	0
24,27	,	57696	,	-24028	,	-22780	,	-11.385488	,	0
24,27	,	57712	,	-24012	,	-22788	,	-11.92589	,	0
24,27	,	57744	,	-24009	,	-22749	,	-11.814026	,	0
24,27	,	57760	,	-23979	,	-22760	,	-10.64303	,	0
24,27	,	57776	,	-23978	,	-22754	,	-8.009321	,	1
24,27	,	57808	,	-23964	,	-22752	,	-3.7965617	,	3
24,27	,	57824	,	-23969	,	-22754	,	1.6197968	,	7
24,27	,	57855	,	-23970	,	-22752	,	7.440521	,	12
24,27	,	57871	,	-23972	,	-22756	,	12.696973	,	17
24,27	,	57887	,	-23965	,	-22751	,	16.622677	,	22
24,27	,	57920	,	-23970	,	-22751	,	18.877316	,	25
24,27	,	57936	,	-23967	,	-22758	,	19.454868	,	27
24,27	,	57952	,	-23974	,	-22762	,	18.527882	,	27
24,27	,	57983	,	-23974	,	-22750	,	16.3736	,	26
24,27	,	57999	,	-23967	,	-22749	,	13.382279	,	24
24,27	,	58032	,	-23968	,	-22744	,	10.067581	,	20
24,27	,	58048	,	-23967	,	-22752	,	6.9162846	,	15
24,27	,	58064	,	-23965	,	-22754	,	4.2469535	,	10
24,27	,	58096	,	-23960	,	-22751	,	2.251955	,	5
24,27	,	58112	,	-23969	,	-22746	,	0.999171	,	2
24,27	,	58128	,	-23970	,	-22748	,	0.34374917	,	0
24,28	,	58159	,	-23966	,	-22756	,	0.025716662	,	0
24,28	,	58175	,	-23978	,	-22755	,	-0.16898414	,	0
24,28	,	58191	,	-23974	,	-22745	,	-0.42192227	,	0
24,28	,	58224	,	-23974	,	-22762	,	-0.8312204	,	0
24,28	,	58240	,	-23987	,	-22760	,	-1.3951	,	0
24,28	,	58271	,	-23987	,	-22761	,	-2.1679451	,	0
24,28	,	58287	,	-24004	,	-22757	,	-3.285	,	0
24,28	,	58303	,	-24001	,	-22759	,	-4.8529253	,	0
24,28	,	58336	,	-24009	,	-22776	,	-6.823742	,	0
24,28	,	58352	,	-24012	,	-22767	,	-8.984989	,	0
24,28	,	58368	,	-24017	,	-22770	,	-11.096529	,	0
24,28	,	58399	,	-24014	,	-22774	,	-12.931622	,	0
24,28	,	58415	,	-24034	,	-22792	,	-14.336069	,	0
24,28	,	58447	,	-24013	,	-22756	,	-15.270491	,	0
24,28	,	58464	,	-24031	,	-22779	,	-15.661136	,	0
24,28	,	58480	,	-24032	,	-22786	,	-15.480814	,	0
24,28	,	58511	,	-24034	,	-22787	,	-14.89703	,	0
24,28	,	58527	,	-24018	,	-22777	,	-14.011616	,	0
24,28	,	58543	,	-24020	,	-22780	,	-12.679055	,	0
24,28	,	58576	,	-24006	,	-22775	,	-10.695018	,	1
24,28	,	58592	,	-23995	,	-22772	,	-7.927006	,	2
24,28	,	58607	,	-23995	,	-22763	,	-4.3548284	,	4
24,28	,	58639	,	-23971	,	-22765	,	-0.110383034	,	7
24,28	,	58655	,	-23965	,	-22766	,	4.6528306	,	11
24,28	,	58687	,	-23960	,	-22749	,	9.750145	,	15
24,28	,	58703	,	-23961	,	-22752	,	14.765277	,	20
24,28	,	58719	,	-23953	,	-22741	,	19.132013	,	25
24,28	,	58751	,	-23956	,	-22737	,	22.387901	,	29
24,28	,	58767	,	-23939	,	-22740	,	24.326223	,	31
24,28	,	58783	,	-23942	,	-22738	,	25.037544	,	31
24,28	,	58815	,	-23946	,	-22729	,	24.719652	,	29
24,28	,	58831	,	-23942	,	-22735	,	23.477318	,	26
24,28	,	58863	,	-23947	,	-22737	,	21.401196	,	22
24,28	,	58880	,	-23937	,	-22738	,	18.68668	,	18
24,28	,	58895	,	-23936	,	-22727	,	15.672068	,	13
24,28	,	58927	,	-23942	,	-22738	,	12.722013	,	8
24,28	,	58943	,	-23934	,	-22737	,	10.046354	,	4
24,28	,	58959	,	-23935	,	-22729	,	7.757286	,	1
24,28	,	58991	,	-23948	,	-22737	,	5.8810706	,	0
24,28	,	59007	,	-23942	,	-22738	,	4.274907	,	0
24,28	,	59023	,	-23940	,	-22741	,	2.8174925	,	0
24,28	,	59055	,	-23952	,	-22743	,	1.5035987	,	0
24,28	,	59071	,	-23970	,	-22740	,	0.17354274	,	0
24,28	,	59103	,	-23951	,	-22747	,	-1.4362004	,	0
24,28	,	59119	,	-23958	,	-22760	,	-3.2570696	,	0
24,29	,	59135	,	-23973	,	-22738	,	-5.00762	,	0
24,29	,	59167	,	-23974	,	-22751	,	-6.6394005	,	0
24,29	,	59183	,	-23979	,	-22747	,	-8.241917	,	0
24,29	,	59199	,	-23985	,	-22756	,	-9.811462	,	0
24,29	,	59231	,	-23979	,	-22754	,	-11.2444	,	0
24,29	,	59247	,	-23977	,	-22754	,	-12.30496	,	0
24,29	,	59279	,	-23984	,	-22751	,	-12.733433	,	0
24,29	,	59295	,	-23996	,	-22758	,	-12.539116	,	0
24,29	,	59311	,	-23988	,	-22752	,	-11.9931755	,	0
24,29	,	59343	,	-24002	,	-22759	,	-11.345507	,	0
24,29	,	59359	,	-24004	,	-22774	,	-10.784878	,	0
24,29	,	59375	,	-24004	,	-22754	,	-10.461906	,	0
24,29	,	59407	,	-23998	,	-22757	,	-10.321377	,	0
24,29	,	59423	,	-23991	,	-22753	,	-10.066496	,	0
24,29	,	59455	,	-23974	,	-22757	,	-9.278067	,	0
24,29	,	59471	,	-23966	,	-22748	,	-7.5327845	,	0
24,29	,	59487	,	-23953	,	-22738	,	-4.570463	,	1
24,29	,	59519	,	-23946	,	-22731	,	-0.424335	,	3
24,29	,	59535	,	-23942	,	-22732	,	4.566762	,	7
24,29	,	59551	,	-23941	,	-22725	,	9.816425	,	11
24,29	,	59583	,	-23937	,	-22732	,	14.646562	,	16
24,29	,	59599	,	-23935	,	-22721	,	18.49797	,	20
24,29	,	59615	,	-23929	,	-22727	,	21.062391	,	23
24,29	,	59647	,	-23932	,	-22727	,	22.272434	,	25
24,29	,	59663	,	-23932	,	-22721	,	22.18482	,	26
24,29	,	59695	,	-23926	,	-22727	,	20.949074	,	25
24,29	,	59711	,	-23928	,	-22723	,	18.855268	,	23
24,29	,	59727	,	-23927	,	-22720	,	16.249538	,	19
24,29	,	59759	,	-23929	,	-22717	,	13.418541	,	15
24,29	,	59775	,	-23917	,	-22723	,	10.630591	,	10
24,29	,	59791	,	-23921	,	-22722	,	8.185528	,	6
24,29	,	59823	,	-23917	,	-22734	,	6.2977886	,	3
24,29	,	59839	,	-23916	,	-22709	,	5.015599	,	1
24,29	,	59871	,	-23915	,	-22713	,	4.2865458	,	0
24,29	,	59887	,	-23926	,	-22726	,	3.9423127	,	0
24,29	,	59903	,	-23934	,	-22721	,	3.6283145	,	0
24,29	,	59935	,	-23934	,	-22726	,	2.9419818	,	0
24,29	,	59951	,	-23935	,	-22713	,	1.711366	,	0
24,29	,	59967	,	-23941	,	-22728	,	0.038587213	,	0
24,29	,	59999	,	-23953	,	-22728	,	-1.9330881	,	0
24,29	,	60015	,	-23947	,	-22726	,	-4.1121836	,	0
24,29	,	60031	,	-23945	,	-22725	,	-6.2784777	,	0
24,29	,	60063	,	-23952	,	-22741	,	-8.087228	,	0
24,29	,	60079	,	-23965	,	-22716	,	-9.391688	,	0
24,29	,	60111	,	-23959	,	-22734	,	-10.316442	,	0
24,29	,	60127	,	-23973	,	-22732	,	-11.010912	,	0
24,30	,	60143	,	-23981	,	-22744	,	-11.617782	,	0
24,30	,	60175	,	-23975	,	-22750	,	-12.281593	,	0
24,30	,	60191	,	-23979	,	-22742	,	-12.953949	,	0
24,30	,	60207	,	-23981	,	-22752	,	-13.432596	,	0
24,30	,	60239	,	-23977	,	-22748	,	-13.548338	,	0
24,30	,	60255	,	-23985	,	-22753	,	-13.206937	,	0
24,30	,	60287	,	-23995	,	-22753	,	-12.488411	,	0
24,30	,	60303	,	-24002	,	-22751	,	-11.701696	,	0
24,30	,	60319	,	-23993	,	-22756	,	-11.12875	,	0
24,30	,	60351	,	-23985	,	-22750	,	-10.70366	,	0
24,30	,	60367	,	-23979	,	-22752	,	-10.046574	,	0
24,30	,	60383	,	-23971	,	-22745	,	-8.769281	,	0
24,30	,	60415	,	-23969	,	-22742	,	-6.687983	,	1
24,30	,	60431	,	-23956	,	-22747	,	-3.8352742	,	3
24,30	,	60447	,	-23946	,	-22729	,	-0.33053112	,	5
24,30	,	60479	,	-23952	,	-22737	,	3.6287653	,	8
24,30	,	60495	,	-23954	,	-22735	,	7.59397	,	11
24,30	,	60527	,	-23950	,	-22748	,	10.96034	,	14
24,30	,	60543	,	-23951	,	-22718	,	13.295361	,	17
24,30	,	60559	,	-23950	,	-22733	,	14.441007	,	19
24,30	,	60591	,	-23946	,	-22740	,	14.460863	,	20
24,30	,	60607	,	-23953	,	-22730	,	13.567322	,	19
24,30	,	60623	,	-23944	,	-22734	,	12.015795	,	17
24,30	,	60655	,	-23947	,	-22731	,	10.093819	,	15
24,30	,	60671	,	-23938	,	-22729	,	8.128237	,	12
24,30	,	60702	,	-23940	,	-22733	,	6.4167595	,	9
24,30	,	60718	,	-23924	,	-22732	,	5.20415	,	6
24,30	,	60735	,	-23943	,	-22728	,	4.6131153	,	3
24,30	,	60767	,	-23926	,	-22744	,	4.5309696	,	1
24,30	,	60782	,	-23934	,	-22716	,	4.740161	,	0
24,30	,	60798	,	-23946	,	-22737	,	4.9913616	,	0
24,30	,	60831	,	-23944	,	-22738	,	4.922696	,	0
24,30	,	60847	,	-23957	,	-22741	,	4.2239475	,	0
24,30	,	60863	,	-23957	,	-22732	,	2.7753353	,	0
24,30	,	60895	,	-23956	,	-22736	,	0.6731384	,	0
24,30	,	60911	,	-23961	,	-22736	,	-1.7688955	,	0
24,30	,	60942	,	-23967	,	-22745	,	-4.2211027	,	0
24,30	,	60959	,	-23967	,	-22742	,	-6.481484	,	0
24,30	,	60975	,	-23967	,	-22751	,	-8.389815	,	0
24,30	,	61006	,	-23970	,	-22752	,	-9.781086	,	0
24,30	,	61022	,	-23978	,	-22757	,	-10.599329	,	0
24,30	,	61038	,	-23985	,	-22751	,	-10.9906	,	0
24,30	,	61070	,	-23994	,	-22755	,	-11.23807	,	0
24,30	,	61086	,	-23981	,	-22760	,	-11.528558	,	0
24,30	,	61118	,	-23993	,	-22765	,	-11.783461	,	0
24,31	,	61134	,	-23988	,	-22762	,	-11.829094	,	0
24,31	,	61151	,	-24002	,	-22763	,	-11.629397	,	0
24,31	,	61183	,	-24004	,	-22769	,	-11.314878	,	0
24,31	,	61198	,	-24004	,	-22782	,	-11.050399	,	0
24,31	,	61214	,	-24004	,	-22784	,	-10.857296	,	0
24,31	,	61246	,	-24003	,	-22753	,	-10.611137	,	0
24,31	,	61262	,	-23992	,	-22761	,	-10.114767	,	0
24,31	,	61278	,	-23980	,	-22755	,	-9.082007	,	0
24,31	,	61310	,	-23969	,	-22752	,	-7.1855426	,	1
24,31	,	61326	,	-23954	,	-22752	,	-4.194096	,	2
24,31	,	61358	,	-23957	,	-22753	,	-0.12455273	,	4
24,31	,	61374	,	-23960	,	-22756	,	4.5946646	,	8
24,31	,	61390	,	-23960	,	-22752	,	9.190224	,	12
24,31	,	61422	,	-23954	,	-22748	,	12.937625	,	16
24,31	,	61438	,	-23958	,	-22748	,	15.4407215	,	19
24,31	,	61454	,	-23975	,	-22769	,	16.4899	,	21
24,31	,	61486	,	-23972	,	-22741	,	15.904431	,	22
24,31	,	61502	,	-23964	,	-22751	,	13.783089	,	21
24,31	,	61534	,	-23967	,	-22751	,	10.676605	,	20
24,31	,	61550	,	-23958	,	-22746	,	7.310558	,	18
24,31	,	61566	,	-23965	,	-22741	,	4.2757173	,	14
24,31	,	61598	,	-23973	,	-22747	,	1.8420825	,	10
24,31	,	61614	,	-23963	,	-22739	,	-0.017365456	,	6
24,31	,	61630	,	-23964	,	-22752	,	-1.3436892	,	3
24,31	,	61662	,	-23976	,	-22752	,	-2.159487	,	1
24,31	,	61678	,	-23968	,	-22750	,	-2.621438	,	0
24,31	,	61694	,	-23972	,	-22758	,	-2.887424	,	0
24,31	,	61726	,	-23980	,	-22750	,	-3.0428863	,	0
24,31	,	61742	,	-23993	,	-22758	,	-3.2848456	,	0
24,31	,	61774	,	-23989	,	-22761	,	-3.8902862	,	0
24,31	,	61790	,	-23989	,	-22758	,	-4.9196134	,	0
24,31	,	61806	,	-23987	,	-22759	,	-6.128516	,	0
24,31	,	61838	,	-23996	,	-22760	,	-7.2145863	,	0
24,31	,	61854	,	-23993	,	-22763	,	-8.026269	,	0
24,31	,	61886	,	-23997	,	-22768	,	-8.520693	,	0
24,31	,	61902	,	-24005	,	-22769	,	-8.726162	,	0
24,31	,	61918	,	-24011	,	-22776	,	-8.8048935	,	0
24,31	,	61950	,	-24003	,	-22759	,	-8.9191	,	0
24,31	,	61966	,	-24015	,	-22777	,	-9.058311	,	0
24,31	,	61982	,	-24023	,	-22775	,	-9.208029	,	0
24,31	,	62014	,	-24024	,	-22784	,	-9.48678	,	0
24,31	,	62030	,	-24039	,	-22785	,	-10.021829	,	0
24,31	,	62046	,	-24021	,	-22784	,	-10.810356	,	0
24,31	,	62078	,	-24007	,	-22772	,	-11.503101	,	0
24,31	,	62094	,	-24013	,	-22773	,	-11.48484	,	0
24,31	,	62126	,	-23998	,	-22770	,	-10.361483	,	0
24,32	,	62142	,	-23993	,	-22762	,	-8.080198	,	1
24,32	,	62158	,	-23986	,	-22774	,	-4.7640967	,	3
24,32	,	62190	,	-23976	,	-22742	,	-0.67311573	,	6
24,32	,	62206	,	-23979	,	-22725	,	3.813725	,	10
24,32	,	62222	,	-23968	,	-22761	,	8.234496	,	14
24,32	,	62254	,	-23968	,	-22750	,	12.164291	,	18
24,32	,	62270	,	-23979	,	-22756	,	15.242369	,	21
24,32	,	62302	,	-23985	,	-22756	,	17.055103	,	24
24,32	,	62318	,	-23984	,	-22761	,	17.267529	,	25
24,32	,	62334	,	-23990	,	-22751	,	15.868983	,	24
24,32	,	62366	,	-23978	,	-22758	,	13.202914	,	22
24,32	,	62382	,	-23981	,	-22774	,	9.869478	,	19
24,32	,	62398	,	-23969	,	-22736	,	6.554158	,	15
24,32	,	62430	,	-23981	,	-22757	,	3.791185	,	11
24,32	,	62446	,	-23983	,	-22762	,	1.7549982	,	7
24,32	,	62478	,	-23980	,	-22752	,	0.3168962	,	4
24,32	,	62494	,	-23977	,	-22757	,	-0.6512188	,	1
24,32	,	62510	,	-23976	,	-22757	,	-1.1619381	,	0
24,32	,	62542	,	-23981	,	-22759	,	-1.2460736	,	0
24,32	,	62558	,	-23988	,	-22765	,	-1.0776279	,	0
24,32	,	62574	,	-23986	,	-22763	,	-0.9281023	,	0
24,32	,	62606	,	-23996	,	-22773	,	-1.0179136	,	0
24,32	,	62622	,	-23988	,	-22766	,	-1.4369416	,	0
24,32	,	62638	,	-24004	,	-22764	,	-2.1619291	,	0
24,32	,	62670	,	-24012	,	-22771	,	-3.209301	,	0
24,32	,	62686	,	-24013	,	-22770	,	-4.6694555	,	0
24,32	,	62718	,	-24021	,	-22773	,	-6.5174575	,	0
24,32	,	62734	,	-24016	,	-22775	,	-8.548815	,	0
24,32	,	62750	,	-24013	,	-22776	,	-10.409431	,	0
24,32	,	62782	,	-24020	,	-22772	,	-11.712748	,	0
24,32	,	62798	,	-24021	,	-22773	,	-12.285337	,	0
24,32	,	62814	,	-24025	,	-22784	,	-12.208204	,	0
24,32	,	62846	,	-24027	,	-22790	,	-11.668092	,	0
24,32	,	62861	,	-24036	,	-22762	,	-10.894705	,	0
24,32	,	62894	,	-24038	,	-22789	,	-10.148041	,	0
24,32	,	62910	,	-24032	,	-22786	,	-9.582614	,	0
24,32	,	62926	,	-24011	,	-22779	,	-9.01601	,	0
24,32	,	62957	,	-24012	,	-22771	,	-7.9652505	,	0
24,32	,	62974	,	-23994	,	-22764	,	-6.0159273	,	1
24,32	,	62990	,	-23984	,	-22768	,	-2.9994688	,	2
24,32	,	63022	,	-23981	,	-22757	,	1.0273433	,	5
24,32	,	63038	,	-23971	,	-22749	,	5.7415333	,	9
24,32	,	63053	,	-23968	,	-22747	,	10.645845	,	13
24,32	,	63086	,	-23961	,	-22763	,	15.234193	,	17
24,32	,	63101	,	-23967	,	-22736	,	19.037457	,	21
24,33	,	63133	,	-23956	,	-22745	,	21.675694	,	24
24,33	,	63150	,	-23962	,	-22744	,	22.97066	,	26
24,33	,	63166	,	-23957	,	-22748	,	22.945633	,	26
24,33	,	63198	,	-23960	,	-22743	,	21.74553	,	25
24,33	,	63213	,	-23956	,	-22749	,	19.614262	,	22
24,33	,	63230	,	-23949	,	-22749	,	16.910343	,	18
24,33	,	63262	,	-23948	,	-22751	,	14.083605	,	14
24,33	,	63278	,	-23946	,	-22744	,	11.52675	,	10
24,33	,	63310	,	-23946	,	-22738	,	9.4389105	,	6
24,33	,	63326	,	-23958	,	-22747	,	7.78376	,	3
24,33	,	63341	,	-23954	,	-22737	,	6.3387117	,	1
24,33	,	63373	,	-23944	,	-22741	,	4.95958	,	0
24,33	,	63389	,	-23956	,	-22745	,	3.713872	,	0
24,33	,	63406	,	-23957	,	-22747	,	2.6280954	,	0
24,33	,	63437	,	-23957	,	-22752	,	1.5940037	,	0
24,33	,	63453	,	-23964	,	-22746	,	0.52828693	,	0
24,33	,	63469	,	-23972	,	-22746	,	-0.6430726	,	0
24,33	,	63501	,	-23961	,	-22745	,	-1.9716887	,	0
24,33	,	63517	,	-23968	,	-22743	,	-3.3318074	,	0
24,33	,	63549	,	-23971	,	-22755	,	-4.5215764	,	0
24,33	,	63565	,	-23980	,	-22738	,	-5.4984546	,	0
24,33	,	63581	,	-23968	,	-22753	,	-6.310161	,	0
24,33	,	63613	,	-23976	,	-22758	,	-6.892462	,	0
24,33	,	63629	,	-23982	,	-22747	,	-7.172887	,	0
24,33	,	63645	,	-23994	,	-22755	,	-7.29924	,	0
24,33	,	63677	,	-23995	,	-22760	,	-7.564001	,	0
24,33	,	63693	,	-24000	,	-22751	,	-8.150336	,	0
24,33	,	63725	,	-23995	,	-22761	,	-9.001793	,	0
24,33	,	63741	,	-23999	,	-22754	,	-9.868705	,	0
24,33	,	63758	,	-24012	,	-22763	,	-10.541626	,	0
24,33	,	63789	,	-24022	,	-22781	,	-11.093758	,	0
24,33	,	63805	,	-24015	,	-22747	,	-11.731365	,	0
24,33	,	63821	,	-23987	,	-22753	,	-12.291512	,	0
24,33	,	63853	,	-23962	,	-22744	,	-11.994166	,	0
24,33	,	63869	,	-23942	,	-22739	,	-9.833563	,	0
24,33	,	63885	,	-23950	,	-22735	,	-5.3368607	,	2
24,33	,	63917	,	-23941	,	-22732	,	1.007031	,	6
24,33	,	63934	,	-23936	,	-22738	,	8.104625	,	12
24,33	,	63965	,	-23934	,	-22727	,	14.875315	,	19
24,33	,	63981	,	-23933	,	-22723	,	20.485874	,	25
24,33	,	63997	,	-23916	,	-22721	,	24.456455	,	30
24,33	,	64029	,	-23922	,	-22724	,	26.73019	,	33
24,33	,	64045	,	-23927	,	-22717	,	27.408817	,	35
24,33	,	64061	,	-23922	,	-22719	,	26.54953	,	35
24,33	,	64093	,	-23922	,	-22721	,	24.3406	,	33
24,33	,	64109	,	-23917	,	-22724	,	21.197132	,	29
24,34	,	64141	,	-23920	,	-22725	,	17.61088	,	23
24,34	,	64157	,	-23912	,	-22730	,	14.0236	,	16
24,34	,	64173	,	-23906	,	-22722	,	10.836068	,	10
24,34	,	64205	,	-23907	,	-22724	,	8.380062	,	5
24,34	,	64221	,	-23910	,	-22711	,	6.7486577	,	2
24,34	,	64237	,	-23911	,	-22724	,	5.746344	,	0
24,34	,	64269	,	-23914	,	-22720	,	5.0582895	,	0
24,34	,	64285	,	-23919	,	-22714	,	4.401375	,	0
24,34	,	64301	,	-23920	,	-22712	,	3.5717666	,	0
24,34	,	64333	,	-23919	,	-22724	,	2.4985545	,	0
24,34	,	64349	,	-23933	,	-22721	,	1.2040105	,	0
24,34	,	64381	,	-23929	,	-22723	,	-0.32165897	,	0
24,34	,	64397	,	-23932	,	-22725	,	-2.0453157	,	0
24,34	,	64413	,	-23939	,	-22727	,	-3.8222647	,	0
24,34	,	64445	,	-23936	,	-22726	,	-5.502318	,	0
24,34	,	64461	,	-23947	,	-22729	,	-6.978661	,	0
24,34	,	64477	,	-23943	,	-22749	,	-8.20078	,	0
24,34	,	64509	,	-23957	,	-22722	,	-9.182689	,	0
24,34	,	64525	,	-23957	,	-22743	,	-10.003824	,	0
24,34	,	64557	,	-23961	,	-22739	,	-10.756054	,	0
24,34	,	64573	,	-23964	,	-22738	,	-11.447533	,	0
24,34	,	64589	,	-23979	,	-22745	,	-12.081251	,	0
24,34	,	64621	,	-23965	,	-22751	,	-12.687138	,	0
24,34	,	64637	,	-23976	,	-22753	,	-13.161398	,	0
24,34	,	64653	,	-23977	,	-22754	,	-13.342222	,	0
24,34	,	64685	,	-23983	,	-22746	,	-13.213543	,	0
24,34	,	64701	,	-23968	,	-22745	,	-12.794897	,	0
24,34	,	64733	,	-23954	,	-22758	,	-11.886593	,	0
24,34	,	64749	,	-23940	,	-22722	,	-10.064867	,	0
24,34	,	64765	,	-23918	,	-22728	,	-6.915995	,	1
24,34	,	64797	,	-23922	,	-22721	,	-2.3048387	,	4
24,34	,	64813	,	-23907	,	-22725	,	3.441359	,	8
24,34	,	64829	,	-23907	,	-22716	,	9.651259	,	13
24,34	,	64861	,	-23909	,	-22717	,	15.542338	,	19
24,34	,	64877	,	-23917	,	-22712	,	20.290833	,	24
24,34	,	64893	,	-23912	,	-22712	,	23.21212	,	28
24,34	,	64925	,	-23901	,	-22712	,	24.103748	,	30
24,34	,	64941	,	-23902	,	-22719	,	23.31657	,	30
24,34	,	64973	,	-23912	,	-22717	,	21.356625	,	29
24,34	,	64989	,	-23910	,	-22720	,	18.546898	,	26
24,34	,	65005	,	-23894	,	-22706	,	15.213046	,	22
24,34	,	65037	,	-23895	,	-22705	,	11.90451	,	17
24,34	,	65053	,	-23898	,	-22705	,	9.128353	,	11
24,34	,	65069	,	-23885	,	-22700	,	7.0990963	,	6
24,34	,	65101	,	-23892	,	-22716	,	5.854419	,	2
24,34	,	65117	,	-23894	,	-22711	,	5.269883	,	0
24,35	,	65149	,	-23892	,	-22712	,	5.038368	,	0
24,35	,	65165	,	-23892	,	-22717	,	4.8750343	,	0
24,35	,	65181	,	-23899	,	-22728	,	4.606711	,	0
24,35	,	65213	,	-23898	,	-22705	,	4.100517	,	0
24,35	,	65229	,	-23900	,	-22717	,	3.2895236	,	0
24,35	,	65245	,	-23916	,	-22716	,	2.146432	,	0
24,35	,	65277	,	-23911	,	-22725	,	0.6048391	,	0
24,35	,	65293	,	-23909	,	-22717	,	-1.2739608	,	0
24,35	,	65310	,	-23912	,	-22721	,	-3.1914043	,	0
24,35	,	65341	,	-23920	,	-22728	,	-4.8657475	,	0
24,35	,	65357	,	-23924	,	-22721	,	-6.2404313	,	0
24,35	,	65389	,	-23916	,	-22734	,	-7.3428288	,	0
24,35	,	65404	,	-23933	,	-22731	,	-8.146034	,	0
24,35	,	65420	,	-23939	,	-22749	,	-8.741941	,	0
24,35	,	65453	,	-23942	,	-22728	,	-9.373695	,	0
24,35	,	65469	,	-23928	,	-22736	,	-10.096092	,	0
24,35	,	65485	,	-23949	,	-22731	,	-10.705809	,	0
24,35	,	65517	,	-23953	,	-22732	,	-11.128464	,	0
24,35	,	65532	,	-23958	,	-22734	,	-11.536974	,	0
24,35	,	65564	,	-23957	,	-22740	,	-12.04744	,	0
24,35	,	65581	,	-23975	,	-22731	,	-12.643562	,	0
24,35	,	65597	,	-23972	,	-22741	,	-13.341221	,	0
24,35	,	65628	,	-23963	,	-22737	,	-14.064242	,	0
24,35	,	65644	,	-23944	,	-22739	,	-14.38731	,	0
24,35	,	65660	,	-23938	,	-22728	,	-13.670145	,	0
24,35	,	65693	,	-23923	,	-22724	,	-11.445505	,	0
24,35	,	65709	,	-23920	,	-22711	,	-7.635866	,	2
24,35	,	65725	,	-23913	,	-22718	,	-2.5733066	,	5
24,35	,	65757	,	-23905	,	-22717	,	3.1355085	,	10
24,35	,	65773	,	-23917	,	-22720	,	8.767387	,	15
24,35	,	65804	,	-23903	,	-22720	,	13.588509	,	20
24,35	,	65820	,	-23926	,	-22711	,	17.00752	,	24
24,35	,	65836	,	-23916	,	-22713	,	18.63643	,	27
24,35	,	65869	,	-23920	,	-22716	,	18.38292	,	28
24,35	,	65885	,	-23920	,	-22728	,	16.542198	,	28
24,35	,	65901	,	-23921	,	-22711	,	13.618382	,	26
24,35	,	65933	,	-23911	,	-22715	,	10.182628	,	23
24,35	,	65949	,	-23916	,	-22705	,	6.8203144	,	18
24,35	,	65980	,	-23910	,	-22713	,	3.9727101	,	13
24,35	,	65996	,	-23917	,	-22719	,	1.8429189	,	8
24,35	,	66012	,	-23910	,	-22716	,	0.444237	,	4
24,35	,	66045	,	-23912	,	-22713	,	-0.3004048	,	1
24,35	,	66061	,	-23914	,	-22714	,	-0.5169597	,	0
24,35	,	66077	,	-23916	,	-22715	,	-0.39884382	,	0
24,35	,	66109	,	-23911	,	-22721	,	-0.13952997	,	0
24,35	,	66124	,	-23928	,	-22732	,	0.09158063	,	0
24,36	,	66140	,	-23921	,	-22703	,	0.08305743	,	0
24,36	,	66172	,	-23928	,	-22727	,	-0.31120658	,	0
24,36	,	66188	,	-23931	,	-22725	,	-1.0852408	,	0
24,36	,	66221	,	-23932	,	-22723	,	-2.161801	,	0
24,36	,	66237	,	-23939	,	-22734	,	-3.4334893	,	0
24,36	,	66252	,	-23931	,	-22733	,	-4.751825	,	0
24,36	,	66284	,	-23943	,	-22732	,	-5.9366717	,	0
24,36	,	66300	,	-23940	,	-22737	,	-6.8731017	,	0
24,36	,	66316	,	-23940	,	-22738	,	-7.5255747	,	0
24,36	,	66348	,	-23935	,	-22745	,	-7.818223	,	0
24,36	,	66364	,	-23964	,	-22748	,	-7.7747374	,	0
24,36	,	66396	,	-23950	,	-22738	,	-7.686936	,	0
24,36	,	66412	,	-23966	,	-22745	,	-7.841298	,	0
24,36	,	66428	,	-23961	,	-22745	,	-8.294479	,	0
24,36	,	66460	,	-23963	,	-22749	,	-8.939242	,	0
24,36	,	66476	,	-23959	,	-22740	,	-9.542646	,	0
24,36	,	66492	,	-23934	,	-22737	,	-9.7120285	,	0
24,36	,	66524	,	-23927	,	-22730	,	-8.891977	,	0
24,36	,	66540	,	-23927	,	-22733	,	-6.688653	,	0
24,36	,	66556	,	-23917	,	-22729	,	-3.211512	,	2
24,36	,	66589	,	-23926	,	-22733	,	1.0259137	,	5
24,36	,	66604	,	-23916	,	-22716	,	5.3469114	,	9
24,36	,	66636	,	-23930	,	-22723	,	9.092819	,	13
24,36	,	66652	,	-23928	,	-22733	,	11.720672	,	16
24,36	,	66668	,	-23938	,	-22728	,	12.868013	,	18
24,36	,	66700	,	-23938	,	-22731	,	12.430494	,	19
24,36	,	66716	,	-23931	,	-22732	,	10.618965	,	19
24,36	,	66732	,	-23926	,	-22725	,	7.981903	,	19
24,36	,	66765	,	-23918	,	-22725	,	5.25423	,	17
24,36	,	66780	,	-23926	,	-22718	,	3.0381894	,	14
24,36	,	66812	,	-23921	,	-22726	,	1.5700252	,	10
24,36	,	66828	,	-23920	,	-22737	,	0.80529356	,	6
24,36	,	66844	,	-23930	,	-22712	,	0.5770829	,	3
24,36	,	66876	,	-23932	,	-22730	,	0.58591926	,	1
24,36	,	66892	,	-23932	,	-22730	,	0.51030755	,	0
24,36	,	66908	,	-23932	,	-22728	,	0.20318231	,	0
24,36	,	66940	,	-23939	,	-22735	,	-0.3368377	,	0
24,36	,	66956	,	-23949	,	-22734	,	-1.1434108	,	0
24,36	,	66972	,	-23950	,	-22740	,	-2.3155162	,	0
24,36	,	67004	,	-23948	,	-22733	,	-3.8319972	,	0
24,36	,	67020	,	-23955	,	-22734	,	-5.4778633	,	0
24,36	,	67052	,	-23956	,	-22741	,	-7.023476	,	0
24,36	,	67068	,	-23944	,	-22750	,	-8.267528	,	0
24,36	,	67084	,	-23966	,	-22742	,	-9.028412	,	0
24,36	,	67116	,	-23966	,	-22745	,	-9.369536	,	0
24,37	,	67132	,	-23974	,	-22748	,	-9.578374	,	0
24,37	,	67148	,	-23967	,	-22751	,	-9.82965	,	0
24,37	,	67180	,	-23959	,	-22749	,	-10.006393	,	0
24,37	,	67196	,	-23978	,	-22750	,	-9.88494	,	0
24,37	,	67228	,	-23982	,	-22750	,	-9.5186	,	0
24,37	,	67244	,	-23977	,	-22753	,	-9.175689	,	0
24,37	,	67260	,	-23976	,	-22748	,	-8.924463	,	0
24,37	,	67292	,	-23963	,	-22754	,	-8.5416155	,	0
24,37	,	67309	,	-23942	,	-22730	,	-7.602437	,	0
24,37	,	67324	,	-23944	,	-22733	,	-5.648576	,	0
24,37	,	67356	,	-23939	,	-22728	,	-2.5647779	,	1
24,37	,	67372	,	-23937	,	-22729	,	1.2920306	,	4
24,37	,	67388	,	-23939	,	-22723	,	5.3348455	,	7
24,37	,	67420	,	-23924	,	-22731	,	9.025728	,	11
24,37	,	67436	,	-23928	,	-22730	,	12.059325	,	14
24,37	,	67468	,	-23934	,	-22731	,	14.252405	,	17
24,37	,	67484	,	-23946	,	-22727	,	15.315587	,	19
24,37	,	67500	,	-23950	,	-22726	,	14.928259	,	20
24,37	,	67532	,	-23940	,	-22743	,	13.059177	,	20
24,37	,	67548	,	-23937	,	-22720	,	10.16015	,	19
24,37	,	67564	,	-23928	,	-22730	,	6.986616	,	16
24,37	,	67596	,	-23927	,	-22723	,	4.2534094	,	13
24,37	,	67612	,	-23936	,	-22728	,	2.352901	,	9
24,37	,	67644	,	-23927	,	-22722	,	1.2819066	,	6
24,37	,	67660	,	-23933	,	-22723	,	0.8583547	,	3
24,37	,	67676	,	-23939	,	-22719	,	0.8434068	,	1
24,37	,	67708	,	-23939	,	-22727	,	0.91905224	,	0
24,37	,	67724	,	-23941	,	-22725	,	0.82156706	,	0
24,37	,	67740	,	-23943	,	-22722	,	0.447852	,	0
24,37	,	67772	,	-23934	,	-22734	,	-0.14309648	,	0
24,37	,	67788	,	-23944	,	-22714	,	-0.77664876	,	0
24,37	,	67804	,	-23950	,	-22732	,	-1.3727735	,	0
24,37	,	67836	,	-23956	,	-22729	,	-2.058984	,	0
24,37	,	67851	,	-23956	,	-22728	,	-2.9863849	,	0
24,37	,	67884	,	-23957	,	-22730	,	-4.1423345	,	0
24,37	,	67900	,	-23966	,	-22729	,	-5.3980026	,	0
24,37	,	67916	,	-23969	,	-22735	,	-6.6748724	,	0
24,37	,	67948	,	-23961	,	-22734	,	-7.9024343	,	0
24,37	,	67964	,	-23962	,	-22741	,	-8.857606	,	0
24,37	,	67980	,	-23969	,	-22748	,	-9.305906	,	0
24,37	,	68012	,	-23984	,	-22740	,	-9.31193	,	0
24,37	,	68028	,	-23983	,	-22744	,	-9.223495	,	0
24,37	,	68060	,	-23974	,	-22739	,	-9.266567	,	0
24,37	,	68076	,	-23957	,	-22742	,	-9.216433	,	0
24,37	,	68092	,	-23953	,	-22737	,	-8.543058	,	0
24,37	,	68124	,	-23931	,	-22728	,	-6.777627	,	0
24,38	,	68140	,	-23930	,	-22725	,	-3.6972656	,	1
24,38	,	68155	,	-23931	,	-22722	,	0.52909327	,	4
24,38	,	68188	,	-23920	,	-22718	,	5.3273277	,	8
24,38	,	68204	,	-23918	,	-22716	,	10.052191	,	12
24,38	,	68236	,	-23922	,	-22727	,	14.177389	,	16
24,38	,	68252	,	-23902	,	-22705	,	17.322762	,	20
24,38	,	68268	,	-23904	,	-22709	,	19.414516	,	23
24,38	,	68300	,	-23905	,	-22719	,	20.570873	,	25
24,38	,	68315	,	-23905	,	-22716	,	20.82451	,	26
24,38	,	68331	,	-23912	,	-22711	,	20.133469	,	25
24,38	,	68363	,	-23906	,	-22710	,	18.512482	,	22
24,38	,	68380	,	-23893	,	-22701	,	16.197931	,	18
24,38	,	68396	,	-23906	,	-22700	,	13.636546	,	14
24,38	,	68428	,	-23897	,	-22703	,	11.17024	,	10
24,38	,	68443	,	-23896	,	-22713	,	8.95982	,	6
24,38	,	68475	,	-23900	,	-22726	,	7.108176	,	3
24,38	,	68491	,	-23898	,	-22701	,	5.6171026	,	1
24,38	,	68507	,	-23904	,	-22708	,	4.3883257	,	0
24,38	,	68540	,	-23900	,	-22717	,	3.3084514	,	0
24,38	,	68556	,	-23912	,	-22710	,	2.26678	,	0
24,38	,	68572	,	-23911	,	-22712	,	1.1392701	,	0
24,38	,	68603	,	-23916	,	-22712	,	-0.15485263	,	0
24,38	,	68619	,	-23917	,	-22705	,	-1.5888149	,	0
24,38	,	68652	,	-23923	,	-22716	,	-3.0798888	,	0
24,38	,	68668	,	-23933	,	-22713	,	-4.598981	,	0
24,38	,	68684	,	-23927	,	-22724	,	-6.159792	,	0
24,38	,	68715	,	-23938	,	-22726	,	-7.69281	,	0
24,38	,	68732	,	-23945	,	-22715	,	-9.112535	,	0
24,38	,	68747	,	-23949	,	-22719	,	-10.440296	,	0
24,38	,	68780	,	-23950	,	-22716	,	-11.690495	,	0
24,38	,	68796	,	-23964	,	-22721	,	-12.822447	,	0
24,38	,	68811	,	-23965	,	-22727	,	-13.847591	,	0
24,38	,	68843	,	-23961	,	-22729	,	-14.746378	,	0
24,38	,	68859	,	-23964	,	-22731	,	-15.336568	,	0
24,38	,	68891	,	-23967	,	-22731	,	-15.422798	,	0
24,38	,	68908	,	-23958	,	-22724	,	-14.924217	,	0
24,38	,	68924	,	-23934	,	-22722	,	-13.678692	,	0
24,38	,	68955	,	-23924	,	-22708	,	-11.305925	,	1
24,38	,	68971	,	-23913	,	-22712	,	-7.4917197	,	3
24,38	,	68988	,	-23893	,	-22701	,	-2.258923	,	6
24,38	,	69019	,	-23874	,	-22703	,	4.161189	,	11
24,38	,	69035	,	-23882	,	-22708	,	11.358992	,	17
24,38	,	69067	,	-23880	,	-22703	,	18.5242	,	24
24,38	,	69083	,	-23875	,	-22699	,	24.625051	,	31
24,38	,	69099	,	-23875	,	-22694	,	28.903835	,	37
24,39	,	69131	,	-23872	,	-22694	,	31.052057	,	41
24,39	,	69147	,	-23882	,	-22693	,	31.074549	,	42
24,39	,	69163	,	-23875	,	-22711	,	29.165169	,	40
24,39	,	69195	,	-23873	,	-22679	,	25.744781	,	37
24,39	,	69211	,	-23874	,	-22701	,	21.436039	,	32
24,39	,	69227	,	-23864	,	-22687	,	16.888243	,	26
24,39	,	69259	,	-23869	,	-22683	,	12.663959	,	19
24,39	,	69275	,	-23859	,	-22690	,	9.1576605	,	12
24,39	,	69307	,	-23876	,	-22690	,	6.505139	,	6
24,39	,	69323	,	-23878	,	-22698	,	4.52123	,	2
24,39	,	69339	,	-23876	,	-22686	,	2.8648267	,	0
24,39	,	69371	,	-23874	,	-22692	,	1.3700142	,	0
24,39	,	69387	,	-23877	,	-22700	,	0.07727933	,	0
24,39	,	69403	,	-23878	,	-22714	,	-0.9625083	,	0
24,39	,	69435	,	-23883	,	-22686	,	-1.7792954	,	0
24,39	,	69451	,	-23883	,	-22690	,	-2.458253	,	0
24,39	,	69483	,	-23890	,	-22706	,	-3.0909033	,	0
24,39	,	69499	,	-23900	,	-22706	,	-3.8001096	,	0
24,39	,	69515	,	-23899	,	-22708	,	-4.735863	,	0
24,39	,	69547	,	-23896	,	-22708	,	-5.896723	,	0
24,39	,	69563	,	-23906	,	-22704	,	-7.088236	,	0
24,39	,	69579	,	-23910	,	-22706	,	-8.16834	,	0
24,39	,	69611	,	-23907	,	-22711	,	-9.111037	,	0
24,39	,	69627	,	-23919	,	-22718	,	-9.884193	,	0
24,39	,	69643	,	-23927	,	-22700	,	-10.531231	,	0
24,39	,	69675	,	-23915	,	-22715	,	-11.136522	,	0
24,39	,	69691	,	-23932	,	-22725	,	-11.639203	,	0
24,39	,	69723	,	-23926	,	-22720	,	-11.952658	,	0
24,39	,	69739	,	-23931	,	-22722	,	-12.05801	,	0
24,39	,	69755	,	-23924	,	-22723	,	-11.889617	,	0
24,39	,	69787	,	-23912	,	-22709	,	-11.271467	,	0
24,39	,	69803	,	-23899	,	-22711	,	-9.89657	,	0
24,39	,	69819	,	-23896	,	-22706	,	-7.480675	,	1
24,39	,	69851	,	-23887	,	-22708	,	-4.0122576	,	3
24,39	,	69867	,	-23876	,	-22703	,	0.2598138	,	6
24,39	,	69899	,	-23870	,	-22675	,	5.0022354	,	10
24,39	,	69915	,	-23857	,	-22692	,	9.880052	,	14
24,39	,	69931	,	-23858	,	-22701	,	14.559849	,	18
24,39	,	69963	,	-23859	,	-22690	,	18.64294	,	22
24,39	,	69979	,	-23840	,	-22687	,	21.75269	,	26
24,39	,	69995	,	-23858	,	-22690	,	23.706741	,	29
24,39	,	70027	,	-23851	,	-22691	,	24.382101	,	29
24,39	,	70043	,	-23851	,	-22687	,	23.69753	,	27
24,39	,	70059	,	-23848	,	-22689	,	21.823257	,	24
24,39	,	70091	,	-23849	,	-22682	,	19.124704	,	20
24,39	,	70107	,	-23845	,	-22695	,	15.995481	,	16
24,40	,	70139	,	-23857	,	-22677	,	12.7493305	,	12
24,40	,	70155	,	-23851	,	-22675	,	9.549005	,	8
24,40	,	70171	,	-23851	,	-22686	,	6.5126734	,	4
24,40	,	70203	,	-23849	,	-22681	,	3.828805	,	1
24,40	,	70219	,	-23858	,	-22683	,	1.6431332	,	0
24,40	,	70235	,	-23849	,	-22648	,	-0.034914494	,	0
24,40	,	70267	,	-23864	,	-22693	,	-1.2767307	,	0
24,40	,	70283	,	-23856	,	-22687	,	-2.2042685	,	0
24,40	,	70315	,	-23858	,	-22693	,	-2.9005249	,	0
24,40	,	70331	,	-23871	,	-22693	,	-3.4061866	,	0
24,40	,	70347	,	-23870	,	-22688	,	-3.8740368	,	0
24,40	,	70379	,	-23883	,	-22694	,	-4.5223594	,	0
24,40	,	70395	,	-23881	,	-22699	,	-5.4869194	,	0
24,40	,	70411	,	-23883	,	-22695	,	-6.7374563	,	0
24,40	,	70443	,	-23886	,	-22702	,	-8.080045	,	0
24,40	,	70459	,	-23888	,	-22699	,	-9.298765	,	0
24,40	,	70491	,	-23892	,	-22701	,	-10.254211	,	0
24,40	,	70507	,	-23903	,	-22702	,	-10.930633	,	0
24,40	,	70523	,	-23903	,	-22708	,	-11.4403305	,	0
24,40	,	70555	,	-23900	,	-22710	,	-11.846371	,	0
24,40	,	70571	,	-23914	,	-22720	,	-12.0964365	,	0
24,40	,	70587	,	-23921	,	-22695	,	-12.246432	,	0
24,40	,	70619	,	-23915	,	-22718	,	-12.443871	,	0
24,40	,	70635	,	-23909	,	-22725	,	-12.61328	,	0
24,40	,	70651	,	-23907	,	-22716	,	-12.441429	,	0
24,40	,	70683	,	-23899	,	-22705	,	-11.629759	,	0
24,40	,	70699	,	-23880	,	-22706	,	-9.945494	,	0
24,40	,	70731	,	-23881	,	-22709	,	-7.2007685	,	1
24,40	,	70747	,	-23853	,	-22699	,	-3.3493981	,	3
24,40	,	70763	,	-23862	,	-22688	,	1.4606738	,	6
24,40	,	70794	,	-23847	,	-22691	,	6.8285255	,	10
24,40	,	70811	,	-23861	,	-22700	,	12.099813	,	15
24,40	,	70827	,	-23859	,	-22677	,	16.503302	,	20
24,40	,	70859	,	-23851	,	-22690	,	19.429066	,	24
24,40	,	70875	,	-23854	,	-22687	,	20.702682	,	26
24,40	,	70907	,	-23851	,	-22694	,	20.487091	,	27
24,40	,	70923	,	-23835	,	-22687	,	19.145348	,	26
24,40	,	70939	,	-23845	,	-22688	,	17.205484	,	24
24,40	,	70970	,	-23852	,	-22688	,	15.038876	,	21
24,40	,	70986	,	-23853	,	-22686	,	12.680929	,	17
24,40	,	71003	,	-23834	,	-22687	,	10.1866045	,	12
24,40	,	71034	,	-23838	,	-22684	,	7.895899	,	7
24,40	,	71050	,	-23839	,	-22673	,	6.146989	,	3
24,40	,	71067	,	-23838	,	-22684	,	4.981869	,	1
24,40	,	71099	,	-23847	,	-22679	,	4.2156825	,	0
24,40	,	71115	,	-23855	,	-22684	,	3.532886	,	0
24,41	,	71147	,	-23857	,	-22685	,	2.5869315	,	0
24,41	,	71162	,	-23856	,	-22685	,	1.2176973	,	0
24,41	,	71178	,	-23861	,	-22685	,	-0.47889555	,	0
24,41	,	71210	,	-23861	,	-22690	,	-2.2961664	,	0
24,41	,	71226	,	-23864	,	-22696	,	-4.032124	,	0
24,41	,	71242	,	-23866	,	-22696	,	-5.526662	,	0
24,41	,	71274	,	-23869	,	-22707	,	-6.696213	,	0
24,41	,	71291	,	-23870	,	-22676	,	-7.525263	,	0
24,41	,	71322	,	-23878	,	-22694	,	-8.050901	,	0
24,41	,	71338	,	-23883	,	-22699	,	-8.391996	,	0
24,41	,	71354	,	-23888	,	-22717	,	-8.719809	,	0
24,41	,	71386	,	-23896	,	-22703	,	-9.181074	,	0
24,41	,	71402	,	-23886	,	-22716	,	-9.802435	,	0
24,41	,	71418	,	-23896	,	-22713	,	-10.420305	,	0
24,41	,	71451	,	-23902	,	-22717	,	-10.868729	,	0
24,41	,	71466	,	-23905	,	-22716	,	-11.173483	,	0
24,41	,	71483	,	-23915	,	-22710	,	-11.461548	,	0
24,41	,	71515	,	-23908	,	-22723	,	-11.807948	,	0
24,41	,	71530	,	-23918	,	-22715	,	-12.157642	,	0
24,41	,	71562	,	-23918	,	-22709	,	-12.409073	,	0
24,41	,	71578	,	-23911	,	-22721	,	-12.469632	,	0
24,41	,	71594	,	-23913	,	-22715	,	-12.175848	,	0
24,41	,	71626	,	-23900	,	-22707	,	-11.330181	,	0
24,41	,	71642	,	-23884	,	-22693	,	-9.704008	,	0
24,41	,	71658	,	-23888	,	-22702	,	-7.0881076	,	1
24,41	,	71691	,	-23887	,	-22704	,	-3.5951552	,	3
24,41	,	71706	,	-23869	,	-22693	,	0.36550665	,	6
24,41	,	71738	,	-23872	,	-22701	,	4.442897	,	9
24,41	,	71754	,	-23865	,	-22686	,	8.358675	,	13
24,41	,	71770	,	-23871	,	-22696	,	11.767616	,	16
24,41	,	71802	,	-23872	,	-22696	,	14.288242	,	19
24,41	,	71818	,	-23880	,	-22697	,	15.581995	,	21
24,41	,	71834	,	-23874	,	-22703	,	15.480953	,	22
24,41	,	71867	,	-23874	,	-22694	,	14.118661	,	21
24,41	,	71882	,	-23873	,	-22696	,	11.8841	,	19
24,41	,	71898	,	-23867	,	-22698	,	9.259127	,	16
24,41	,	71930	,	-23863	,	-22690	,	6.7348943	,	13
24,41	,	71946	,	-23869	,	-22697	,	4.6903796	,	9
24,41	,	71978	,	-23876	,	-22704	,	3.1942034	,	6
24,41	,	71994	,	-23863	,	-22670	,	2.098845	,	3
24,41	,	72010	,	-23870	,	-22698	,	1.332617	,	1
24,41	,	72042	,	-23881	,	-22697	,	0.8264557	,	0
24,41	,	72058	,	-23877	,	-22705	,	0.3494885	,	0
24,41	,	72074	,	-23878	,	-22693	,	-0.27963823	,	0
24,41	,	72106	,	-23888	,	-22698	,	-1.0808263	,	0
24,41	,	72122	,	-23884	,	-22699	,	-2.044345	,	0
24,42	,	72154	,	-23894	,	-22703	,	-3.1429718	,	0
24,42	,	72170	,	-23904	,	-22704	,	-4.379364	,	0
24,42	,	72186	,	-23902	,	-22713	,	-5.820658	,	0
24,42	,	72218	,	-23896	,	-22721	,	-7.378001	,	0
24,42	,	72234	,	-23913	,	-22692	,	-8.792192	,	0
24,42	,	72250	,	-23915	,	-22712	,	-9.956406	,	0
24,42	,	72282	,	-23911	,	-22715	,	-10.911418	,	0
24,42	,	72298	,	-23919	,	-22717	,	-11.611734	,	0
24,42	,	72330	,	-23923	,	-22716	,	-12.007532	,	0
24,42	,	72346	,	-23916	,	-22719	,	-12.109915	,	0
24,42	,	72362	,	-23922	,	-22726	,	-11.873364	,	0
24,42	,	72394	,	-23923	,	-22716	,	-11.2703285	,	0
24,42	,	72410	,	-23931	,	-22725	,	-10.424362	,	0
24,42	,	72426	,	-23921	,	-22730	,	-9.507149	,	0
24,42	,	72458	,	-23908	,	-22709	,	-8.48428	,	0
24,42	,	72474	,	-23901	,	-22719	,	-7.054449	,	1
24,42	,	72490	,	-23894	,	-22707	,	-4.9177237	,	2
24,42	,	72522	,	-23895	,	-22703	,	-2.0419233	,	4
24,42	,	72538	,	-23897	,	-22707	,	1.2739589	,	6
24,42	,	72570	,	-23898	,	-22703	,	4.5081987	,	9
24,42	,	72586	,	-23891	,	-22710	,	7.179583	,	12
24,42	,	72602	,	-23898	,	-22718	,	9.033574	,	14
24,42	,	72634	,	-23901	,	-22705	,	9.956115	,	15
24,42	,	72650	,	-23889	,	-22713	,	9.941382	,	15
24,42	,	72666	,	-23898	,	-22729	,	9.188808	,	14
24,42	,	72698	,	-23919	,	-22699	,	7.8572426	,	13
24,42	,	72714	,	-23895	,	-22718	,	5.9343066	,	11
24,42	,	72746	,	-23900	,	-22712	,	3.6456409	,	9
24,42	,	72762	,	-23899	,	-22713	,	1.473187	,	6
24,42	,	72778	,	-23897	,	-22717	,	-0.24224973	,	3
24,42	,	72810	,	-23901	,	-22715	,	-1.3729379	,	1
24,42	,	72826	,	-23895	,	-22714	,	-1.9212666	,	0
24,42	,	72842	,	-23899	,	-22712	,	-1.9677591	,	0
24,42	,	72874	,	-23905	,	-22717	,	-1.6724888	,	0
24,42	,	72890	,	-23913	,	-22721	,	-1.3310238	,	0
24,42	,	72906	,	-23908	,	-22739	,	-1.2506788	,	0
24,42	,	72938	,	-23925	,	-22711	,	-1.5940685	,	0
24,42	,	72954	,	-23923	,	-22737	,	-2.4384398	,	0
24,42	,	72986	,	-23923	,	-22731	,	-3.7544045	,	0
24,42	,	73002	,	-23930	,	-22731	,	-5.331912	,	0
24,42	,	73018	,	-23938	,	-22733	,	-6.96062	,	0
24,42	,	73050	,	-23947	,	-22731	,	-8.590107	,	0
24,42	,	73066	,	-23938	,	-22734	,	-10.196299	,	0
24,42	,	73082	,	-23933	,	-22733	,	-11.544186	,	0
24,42	,	73114	,	-23948	,	-22737	,	-12.309938	,	0
24,42	,	73130	,	-23938	,	-22740	,	-12.407211	,	0
24,43	,	73162	,	-23951	,	-22745	,	-11.955432	,	0
24,43	,	73178	,	-23950	,	-22741	,	-11.150835	,	0
24,43	,	73194	,	-23946	,	-22738	,	-10.193069	,	0
24,43	,	73226	,	-23936	,	-22735	,	-9.096726	,	0
24,43	,	73242	,	-23923	,	-22740	,	-7.634473	,	1
24,43	,	73258	,	-23911	,	-22732	,	-5.472949	,	2
24,43	,	73290	,	-23917	,	-22733	,	-2.4450908	,	4
24,43	,	73306	,	-23903	,	-22719	,	1.2473657	,	7
24,43	,	73322	,	-23910	,	-22734	,	5.168573	,	10
24,43	,	73354	,	-23912	,	-22721	,	8.794897	,	13
24,43	,	73370	,	-23908	,	-22734	,	11.601457	,	16
24,43	,	73402	,	-23905	,	-22717	,	13.292522	,	18
24,43	,	73417	,	-23913	,	-22716	,	13.846855	,	19
24,43	,	73434	,	-23910	,	-22719	,	13.347883	,	18
24,43	,	73466	,	-23916	,	-22714	,	11.933643	,	17
24,43	,	73482	,	-23917	,	-22717	,	9.80615	,	15
24,43	,	73498	,	-23913	,	-22721	,	7.231481	,	12
24,43	,	73530	,	-23915	,	-22726	,	4.5505576	,	9
24,43	,	73546	,	-23900	,	-22721	,	2.1589565	,	6
24,43	,	73577	,	-23913	,	-22724	,	0.40897083	,	3
24,43	,	73593	,	-23909	,	-22716	,	-0.5977397	,	1
24,43	,	73610	,	-23912	,	-22738	,	-1.0232509	,	0
24,43	,	73641	,	-23916	,	-22700	,	-1.0994257	,	0
24,43	,	73657	,	-23918	,	-22723	,	-1.0615011	,	0
24,43	,	73673	,	-23920	,	-22728	,	-1.1084409	,	0
24,43	,	73706	,	-23933	,	-22727	,	-1.3931432	,	0
24,43	,	73722	,	-23931	,	-22734	,	-2.0715468	,	0
24,43	,	73738	,	-23936	,	-22731	,	-3.2010536	,	0
24,43	,	73770	,	-23935	,	-22735	,	-4.646435	,	0
24,43	,	73786	,	-23933	,	-22735	,	-6.136817	,	0
24,43	,	73817	,	-23946	,	-22736	,	-7.419107	,	0
24,43	,	73834	,	-23941	,	-22745	,	-8.4059515	,	0
24,43	,	73850	,	-23944	,	-22746	,	-9.086384	,	0
24,43	,	73881	,	-23949	,	-22739	,	-9.427924	,	0
24,43	,	73897	,	-23965	,	-22748	,	-9.535055	,	0
24,43	,	73930	,	-23965	,	-22746	,	-9.699675	,	0
24,43	,	73946	,	-23975	,	-22745	,	-10.180364	,	0
24,43	,	73962	,	-23980	,	-22750	,	-11.061495	,	0
24,43	,	73993	,	-23960	,	-22744	,	-12.171038	,	0
24,43	,	74009	,	-23966	,	-22746	,	-13.016606	,	0
24,43	,	74025	,	-23961	,	-22740	,	-13.096851	,	0
24,43	,	74057	,	-23938	,	-22740	,	-12.129152	,	0
24,43	,	74073	,	-23935	,	-22743	,	-9.892572	,	0
24,43	,	74089	,	-23920	,	-22720	,	-6.2917886	,	2
24,43	,	74121	,	-23926	,	-22726	,	-1.5740204	,	5
24,44	,	74137	,	-23904	,	-22726	,	3.7410026	,	9
24,44	,	74169	,	-23912	,	-22728	,	9.099994	,	14
24,44	,	74185	,	-23908	,	-22726	,	13.960284	,	19
24,44	,	74202	,	-23904	,	-22719	,	17.797117	,	23
24,44	,	74233	,	-23898	,	-22719	,	20.312275	,	26
24,44	,	74250	,	-23904	,	-22720	,	21.474993	,	28
24,44	,	74265	,	-23899	,	-22715	,	21.365591	,	29
24,44	,	74297	,	-23906	,	-22728	,	20.121376	,	27
24,44	,	74313	,	-23899	,	-22704	,	17.958221	,	24
24,44	,	74345	,	-23892	,	-22720	,	15.234812	,	20
24,44	,	74361	,	-23896	,	-22716	,	12.413571	,	15
24,44	,	74377	,	-23899	,	-22715	,	9.812189	,	10
24,44	,	74409	,	-23902	,	-22719	,	7.4909725	,	6
24,44	,	74425	,	-23894	,	-22719	,	5.4300838	,	3
24,44	,	74441	,	-23897	,	-22714	,	3.6895356	,	1
24,44	,	74473	,	-23895	,	-22711	,	2.3534472	,	0
24,44	,	74489	,	-23916	,	-22715	,	1.3337989	,	0
24,44	,	74505	,	-23906	,	-22723	,	0.3426956	,	0
24,44	,	74537	,	-23908	,	-22736	,	-0.7936655	,	0
24,44	,	74553	,	-23921	,	-22714	,	-2.0312192	,	0
24,44	,	74585	,	-23927	,	-22730	,	-3.3979676	,	0
24,44	,	74601	,	-23922	,	-22732	,	-4.9745064	,	0
24,44	,	74617	,	-23926	,	-22728	,	-6.634566	,	0
24,44	,	74649	,	-23933	,	-22729	,	-8.140982	,	0
24,44	,	74665	,	-23930	,	-22727	,	-9.357331	,	0
24,44	,	74681	,	-23936	,	-22736	,	-10.221177	,	0
24,44	,	74714	,	-23939	,	-22738	,	-10.715073	,	0
24,44	,	74729	,	-23948	,	-22737	,	-10.931147	,	0
24,44	,	74761	,	-23944	,	-22749	,	-11.016195	,	0
24,44	,	74777	,	-23951	,	-22747	,	-11.0404415	,	0
24,44	,	74793	,	-23948	,	-22740	,	-10.984808	,	0
24,44	,	74825	,	-23949	,	-22752	,	-10.780268	,	0
24,44	,	74841	,	-23953	,	-22748	,	-10.353102	,	0
24,44	,	74857	,	-23943	,	-22744	,	-9.667337	,	0
24,44	,	74889	,	-23940	,	-22740	,	-8.649988	,	0
24,44	,	74905	,	-23924	,	-22727	,	-7.1265826	,	1
24,44	,	74921	,	-23918	,	-22726	,	-4.8828974	,	2
24,44	,	74953	,	-23905	,	-22726	,	-1.7902665	,	4
24,44	,	74969	,	-23903	,	-22720	,	2.0795639	,	7
24,44	,	75001	,	-23900	,	-22733	,	6.4009895	,	10
24,44	,	75017	,	-23891	,	-22707	,	10.685739	,	14
24,44	,	75033	,	-23884	,	-22715	,	14.520143	,	18
24,44	,	75065	,	-23883	,	-22712	,	17.659924	,	21
24,44	,	75081	,	-23881	,	-22714	,	19.929844	,	24
24,44	,	75097	,	-23886	,	-22709	,	21.160732	,	25
24,45	,	75129	,	-23876	,	-22718	,	21.261429	,	25
24,45	,	75145	,	-23872	,	-22711	,	20.374676	,	23
24,45	,	75177	,	-23879	,	-22715	,	18.811653	,	20
24,45	,	75193	,	-23870	,	-22718	,	16.823647	,	17
24,45	,	75209	,	-23858	,	-22705	,	14.680758	,	13
24,45	,	75241	,	-23864	,	-22727	,	12.751518	,	9
24,45	,	75257	,	-23877	,	-22690	,	11.171619	,	6
24,45	,	75273	,	-23876	,	-22710	,	9.687494	,	3
24,45	,	75305	,	-23869	,	-22712	,	8.038235	,	1
24,45	,	75321	,	-23868	,	-22713	,	6.269885	,	0
24,45	,	75353	,	-23874	,	-22717	,	4.5783663	,	0
24,45	,	75369	,	-23878	,	-22717	,	3.039261	,	0
24,45	,	75385	,	-23885	,	-22717	,	1.5662856	,	0
24,45	,	75417	,	-23892	,	-22719	,	6.8998337E-4	,	0
24,45	,	75433	,	-23889	,	-22717	,	-1.7603855	,	0
24,45	,	75449	,	-23895	,	-22725	,	-3.6489637	,	0
24,45	,	75481	,	-23908	,	-22726	,	-5.5436687	,	0
24,45	,	75497	,	-23910	,	-22727	,	-7.4428563	,	0
24,45	,	75513	,	-23912	,	-22727	,	-9.349079	,	0
24,45	,	75545	,	-23912	,	-22725	,	-11.113729	,	0
24,45	,	75561	,	-23921	,	-22729	,	-12.535167	,	0
24,45	,	75593	,	-23917	,	-22735	,	-13.497799	,	0
24,45	,	75609	,	-23934	,	-22734	,	-14.003487	,	0
24,45	,	75625	,	-23926	,	-22733	,	-14.163626	,	0
24,45	,	75657	,	-23937	,	-22735	,	-14.100868	,	0
24,45	,	75673	,	-23950	,	-22738	,	-13.954103	,	0
24,45	,	75689	,	-23927	,	-22754	,	-13.840986	,	0
24,45	,	75721	,	-23944	,	-22736	,	-13.629852	,	0
24,45	,	75737	,	-23937	,	-22756	,	-13.098727	,	0
24,45	,	75769	,	-23932	,	-22739	,	-12.158406	,	0
24,45	,	75785	,	-23927	,	-22737	,	-10.729282	,	0
24,45	,	75801	,	-23909	,	-22733	,	-8.672466	,	1
24,45	,	75833	,	-23894	,	-22727	,	-5.770587	,	3
24,45	,	75849	,	-23896	,	-22721	,	-1.8796	,	5
24,45	,	75865	,	-23880	,	-22717	,	2.809455	,	8
24,45	,	75897	,	-23874	,	-22715	,	7.880518	,	12
24,45	,	75913	,	-23878	,	-22718	,	12.86211	,	17
24,45	,	75929	,	-23876	,	-22729	,	17.184158	,	21
24,45	,	75961	,	-23876	,	-22700	,	20.300508	,	25
24,45	,	75977	,	-23876	,	-22708	,	21.901245	,	28
24,45	,	76009	,	-23870	,	-22718	,	21.977322	,	28
24,45	,	76025	,	-23872	,	-22718	,	20.78175	,	26
24,45	,	76040	,	-23865	,	-22715	,	18.7077	,	24
24,45	,	76072	,	-23870	,	-22716	,	16.157211	,	21
24,45	,	76089	,	-23870	,	-22713	,	13.42963	,	17
24,45	,	76105	,	-23878	,	-22712	,	10.662399	,	12
24,46	,	76137	,	-23871	,	-22717	,	7.917783	,	8
24,46	,	76153	,	-23870	,	-22716	,	5.3346586	,	4
24,46	,	76184	,	-23858	,	-22733	,	3.1807237	,	1
24,46	,	76200	,	-23883	,	-22707	,	1.6471503	,	0
24,46	,	76217	,	-23870	,	-22713	,	0.6084502	,	0
24,46	,	76248	,	-23881	,	-22719	,	-0.20114815	,	0
24,46	,	76264	,	-23895	,	-22721	,	-1.0180248	,	0
24,46	,	76281	,	-23885	,	-22720	,	-2.0767238	,	0
24,46	,	76313	,	-23902	,	-22721	,	-3.4613748	,	0
24,46	,	76328	,	-23891	,	-22722	,	-5.071222	,	0
24,46	,	76344	,	-23895	,	-22722	,	-6.6806273	,	0
24,46	,	76377	,	-23905	,	-22724	,	-8.037847	,	0
24,46	,	76393	,	-23910	,	-22728	,	-9.099359	,	0
24,46	,	76424	,	-23911	,	-22729	,	-9.98163	,	0
24,46	,	76441	,	-23918	,	-22728	,	-10.752676	,	0
24,46	,	76456	,	-23916	,	-22738	,	-11.406291	,	0
24,46	,	76488	,	-23928	,	-22737	,	-11.916993	,	0
24,46	,	76504	,	-23924	,	-22736	,	-12.2837925	,	0
24,46	,	76520	,	-23927	,	-22731	,	-12.48942	,	0
24,46	,	76552	,	-23929	,	-22742	,	-12.471018	,	0
24,46	,	76569	,	-23942	,	-22740	,	-12.24502	,	0
24,46	,	76600	,	-23940	,	-22742	,	-11.965019	,	0
24,46	,	76616	,	-23960	,	-22750	,	-11.838215	,	0
24,46	,	76632	,	-23942	,	-22762	,	-11.990749	,	0
24,46	,	76665	,	-23942	,	-22735	,	-12.248962	,	0
24,46	,	76681	,	-23925	,	-22741	,	-12.126074	,	0
24,46	,	76697	,	-23916	,	-22739	,	-11.080368	,	0
24,46	,	76729	,	-23901	,	-22736	,	-8.720686	,	1
24,46	,	76745	,	-23901	,	-22722	,	-4.965996	,	3
24,46	,	76760	,	-23898	,	-22725	,	-0.16761065	,	6
24,46	,	76792	,	-23899	,	-22734	,	4.982336	,	10
24,46	,	76808	,	-23895	,	-22728	,	9.728769	,	15
24,46	,	76840	,	-23886	,	-22728	,	13.539037	,	19
24,46	,	76857	,	-23893	,	-22730	,	16.187004	,	22
24,46	,	76872	,	-23890	,	-22745	,	17.594591	,	24
24,46	,	76904	,	-23890	,	-22719	,	17.757164	,	25
24,46	,	76920	,	-23891	,	-22720	,	16.80923	,	24
24,46	,	76936	,	-23892	,	-22725	,	14.987915	,	22
24,46	,	76968	,	-23884	,	-22728	,	12.602452	,	19
24,46	,	76984	,	-23886	,	-22721	,	10.042166	,	15
24,46	,	77016	,	-23891	,	-22729	,	7.62747	,	10
24,46	,	77032	,	-23875	,	-22732	,	5.546138	,	6
24,46	,	77048	,	-23879	,	-22733	,	4.000023	,	3
24,46	,	77081	,	-23890	,	-22723	,	3.0787582	,	1
24,46	,	77096	,	-23883	,	-22731	,	2.5759299	,	0
24,46	,	77112	,	-23893	,	-22724	,	2.1949797	,	0
24,47	,	77144	,	-23898	,	-22728	,	1.6937428	,	0
24,47	,	77160	,	-23901	,	-22736	,	0.8663362	,	0
24,47	,	77176	,	-23906	,	-22734	,	-0.37963772	,	0
24,47	,	77208	,	-23906	,	-22732	,	-1.983676	,	0
24,47	,	77224	,	-23904	,	-22734	,	-3.744168	,	0
24,47	,	77256	,	-23918	,	-22737	,	-5.424408	,	0
24,47	,	77272	,	-23921	,	-22736	,	-6.949758	,	0
24,47	,	77288	,	-23919	,	-22739	,	-8.350214	,	0
24,47	,	77320	,	-23927	,	-22743	,	-9.576311	,	0
24,47	,	77336	,	-23928	,	-22756	,	-10.551414	,	0
24,47	,	77352	,	-23922	,	-22736	,	-11.20441	,	0
24,47	,	77384	,	-23939	,	-22747	,	-11.469225	,	0
24,47	,	77400	,	-23945	,	-22747	,	-11.474804	,	0
24,47	,	77432	,	-23931	,	-22746	,	-11.441532	,	0
24,47	,	77448	,	-23955	,	-22751	,	-11.415485	,	0
24,47	,	77464	,	-23965	,	-22759	,	-11.503826	,	0
24,47	,	77496	,	-23961	,	-22759	,	-11.960571	,	0
24,47	,	77512	,	-23976	,	-22753	,	-12.855432	,	0
24,47	,	77528	,	-23964	,	-22764	,	-14.0121975	,	0
24,47	,	77560	,	-23960	,	-22759	,	-15.0469	,	0
24,47	,	77576	,	-23941	,	-22770	,	-15.366505	,	0
24,47	,	77592	,	-23923	,	-22732	,	-14.31321	,	0
24,47	,	77624	,	-23924	,	-22744	,	-11.451883	,	1
24,47	,	77640	,	-23914	,	-22743	,	-6.8885956	,	3
24,47	,	77672	,	-23913	,	-22736	,	-1.2244167	,	7
24,47	,	77688	,	-23922	,	-22733	,	4.692153	,	12
24,47	,	77704	,	-23919	,	-22739	,	9.921949	,	17
24,47	,	77736	,	-23915	,	-22743	,	13.745084	,	22
24,47	,	77752	,	-23925	,	-22743	,	15.865035	,	25
24,47	,	77768	,	-23935	,	-22743	,	16.207	,	27
24,47	,	77800	,	-23922	,	-22750	,	14.843746	,	27
24,47	,	77816	,	-23925	,	-22748	,	12.201328	,	26
24,47	,	77848	,	-23928	,	-22742	,	8.938492	,	24
24,47	,	77864	,	-23919	,	-22746	,	5.633713	,	20
24,47	,	77880	,	-23919	,	-22741	,	2.7528324	,	15
24,47	,	77912	,	-23912	,	-22749	,	0.66159105	,	10
24,47	,	77928	,	-23922	,	-22739	,	-0.4887612	,	5
24,47	,	77944	,	-23923	,	-22749	,	-0.8486285	,	2
24,47	,	77976	,	-23928	,	-22743	,	-0.7840156	,	0
24,47	,	77992	,	-23924	,	-22742	,	-0.6407691	,	0
24,47	,	78008	,	-23922	,	-22744	,	-0.56706226	,	0
24,47	,	78040	,	-23940	,	-22756	,	-0.61855435	,	0
24,47	,	78056	,	-23938	,	-22742	,	-0.9678931	,	0
24,47	,	78088	,	-23933	,	-22746	,	-1.7287825	,	0
24,47	,	78104	,	-23945	,	-22749	,	-2.766595	,	0
24,47	,	78120	,	-23951	,	-22750	,	-3.9573455	,	0
24,48	,	78152	,	-23962	,	-22762	,	-5.360764	,	0
24,48	,	78168	,	-23971	,	-22761	,	-7.09957	,	0
24,48	,	78184	,	-23968	,	-22766	,	-9.190221	,	0
24,48	,	78216	,	-23978	,	-22769	,	-11.440776	,	0
24,48	,	78232	,	-23974	,	-22778	,	-13.541913	,	0
24,48	,	78264	,	-23975	,	-22777	,	-15.176261	,	0
24,48	,	78280	,	-23990	,	-22775	,	-16.136803	,	0
24,48	,	78296	,	-24001	,	-22767	,	-16.544813	,	0
24,48	,	78328	,	-24002	,	-22781	,	-16.755344	,	0
24,48	,	78344	,	-24005	,	-22781	,	-16.986454	,	0
24,48	,	78360	,	-23998	,	-22777	,	-17.165468	,	0
24,48	,	78391	,	-23977	,	-22774	,	-16.926338	,	0
24,48	,	78408	,	-23974	,	-22782	,	-15.710183	,	0
24,48	,	78423	,	-23953	,	-22772	,	-13.071449	,	1
24,48	,	78456	,	-23954	,	-22776	,	-8.905107	,	3
24,48	,	78472	,	-23959	,	-22767	,	-3.5769658	,	7
24,48	,	78504	,	-23957	,	-22777	,	2.0872393	,	12
24,48	,	78519	,	-23969	,	-22784	,	7.1287184	,	17
24,48	,	78536	,	-23957	,	-22764	,	10.818909	,	22
24,48	,	78567	,	-23978	,	-22768	,	12.7952	,	25
24,48	,	78584	,	-23974	,	-22785	,	12.959328	,	26
24,48	,	78600	,	-23972	,	-22780	,	11.476487	,	26
24,48	,	78632	,	-23966	,	-22791	,	8.886272	,	25
24,48	,	78648	,	-23984	,	-22780	,	5.8343506	,	23
24,48	,	78679	,	-23981	,	-22783	,	2.693962	,	19
24,48	,	78696	,	-23980	,	-22781	,	-0.3389287	,	14
24,48	,	78711	,	-23979	,	-22778	,	-3.0009723	,	9
24,48	,	78744	,	-23979	,	-22782	,	-5.01981	,	4
24,48	,	78760	,	-23990	,	-22780	,	-6.2977867	,	1
24,48	,	78776	,	-23974	,	-22773	,	-6.9068108	,	0
24,48	,	78808	,	-23985	,	-22789	,	-6.9163585	,	0
24,48	,	78824	,	-23987	,	-22786	,	-6.428828	,	0
24,48	,	78855	,	-23989	,	-22792	,	-5.6902723	,	0
24,48	,	78871	,	-23992	,	-22779	,	-4.9659195	,	0
24,48	,	78887	,	-24002	,	-22780	,	-4.471941	,	0
24,48	,	78919	,	-24012	,	-22787	,	-4.4443274	,	0
24,48	,	78936	,	-24013	,	-22800	,	-5.0773034	,	0
24,48	,	78952	,	-24009	,	-22793	,	-6.3139334	,	0
24,48	,	78984	,	-24016	,	-22810	,	-7.819583	,	0
24,48	,	79000	,	-24017	,	-22781	,	-9.241051	,	0
24,48	,	79015	,	-24022	,	-22804	,	-10.383387	,	0
24,48	,	79047	,	-24021	,	-22802	,	-11.166986	,	0
24,48	,	79064	,	-24034	,	-22809	,	-11.599238	,	0
24,48	,	79096	,	-24029	,	-22804	,	-11.77789	,	0
24,48	,	79112	,	-24015	,	-22808	,	-11.696426	,	0
24,49	,	79128	,	-24007	,	-22797	,	-11.063465	,	0
24,49	,	79160	,	-24009	,	-22795	,	-9.551285	,	0
24,49	,	79175	,	-23993	,	-22781	,	-7.0974107	,	1
24,49	,	79192	,	-23969	,	-22781	,	-3.7202263	,	3
24,49	,	79223	,	-23972	,	-22792	,	0.62894344	,	6
24,49	,	79239	,	-23978	,	-22765	,	5.6801734	,	10
24,49	,	79271	,	-23959	,	-22773	,	10.746599	,	15
24,49	,	79288	,	-23971	,	-22770	,	15.171899	,	20
24,49	,	79304	,	-23972	,	-22774	,	18.447784	,	24
24,49	,	79336	,	-23970	,	-22769	,	20.166769	,	27
24,49	,	79351	,	-23977	,	-22776	,	20.195053	,	28
24,49	,	79367	,	-23977	,	-22773	,	18.678173	,	27
24,49	,	79400	,	-23965	,	-22774	,	15.996963	,	25
24,49	,	79415	,	-23975	,	-22776	,	12.736164	,	22
24,49	,	79431	,	-23974	,	-22773	,	9.407566	,	18
24,49	,	79463	,	-23970	,	-22766	,	6.309043	,	13
24,49	,	79479	,	-23963	,	-22767	,	3.6990738	,	8
24,49	,	79511	,	-23975	,	-22763	,	1.7904463	,	4
24,49	,	79527	,	-23980	,	-22759	,	0.5193548	,	1
24,49	,	79543	,	-23967	,	-22772	,	-0.3577634	,	0
24,49	,	79575	,	-23978	,	-22772	,	-0.96013224	,	0
24,49	,	79591	,	-23975	,	-22775	,	-1.332004	,	0
24,49	,	79607	,	-23977	,	-22776	,	-1.5592062	,	0
24,49	,	79639	,	-23967	,	-22770	,	-1.6565682	,	0
24,49	,	79655	,	-23979	,	-22776	,	-1.5747316	,	0
24,49	,	79687	,	-23990	,	-22797	,	-1.4311837	,	0
24,49	,	79703	,	-24001	,	-22759	,	-1.5977187	,	0
24,49	,	79719	,	-24000	,	-22782	,	-2.4295425	,	0
24,49	,	79751	,	-24003	,	-22784	,	-3.9656038	,	0
24,49	,	79767	,	-24008	,	-22784	,	-5.9580684	,	0
24,49	,	79783	,	-24009	,	-22793	,	-8.080117	,	0
24,49	,	79815	,	-24008	,	-22799	,	-10.0078125	,	0
24,49	,	79831	,	-24012	,	-22793	,	-11.451223	,	0
24,49	,	79847	,	-24019	,	-22794	,	-12.283195	,	0
24,49	,	79879	,	-24025	,	-22797	,	-12.613245	,	0
24,49	,	79895	,	-24014	,	-22789	,	-12.608267	,	0
24,49	,	79927	,	-24019	,	-22804	,	-12.2642765	,	0
24,49	,	79943	,	-23998	,	-22768	,	-11.405069	,	0
24,49	,	79959	,	-23976	,	-22776	,	-9.676922	,	0
24,49	,	79991	,	-23960	,	-22759	,	-6.5834374	,	1
24,49	,	80007	,	-23952	,	-22754	,	-1.8452401	,	4
24,49	,	80023	,	-23949	,	-22760	,	4.2638717	,	8
24,49	,	80055	,	-23941	,	-22759	,	10.988893	,	14
24,49	,	80071	,	-23935	,	-22751	,	17.452215	,	20
24,49	,	80103	,	-23932	,	-22749	,	22.939106	,	26
24,49	,	80119	,	-23928	,	-22745	,	26.96781	,	31
24,50	,	80135	,	-23933	,	-22746	,	29.264696	,	35
24,50	,	80167	,	-23938	,	-22745	,	29.692408	,	37
24,50	,	80183	,	-23930	,	-22748	,	28.278591	,	36
24,50	,	80199	,	-23925	,	-22747	,	25.38337	,	33
24,50	,	80231	,	-23934	,	-22744	,	21.604155	,	29
24,50	,	80247	,	-23922	,	-22743	,	17.49092	,	23
24,50	,	80263	,	-23900	,	-22742	,	13.628011	,	17
24,50	,	80295	,	-23912	,	-22738	,	10.666161	,	11
24,50	,	80311	,	-23920	,	-22742	,	8.831789	,	6
24,50	,	80343	,	-23917	,	-22737	,	7.764461	,	2
24,50	,	80359	,	-23914	,	-22735	,	7.0112224	,	0
24,50	,	80375	,	-23930	,	-22750	,	6.2786784	,	0
24,50	,	80407	,	-23919	,	-22722	,	5.33014	,	0
24,50	,	80423	,	-23935	,	-22738	,	4.029233	,	0
24,50	,	80439	,	-23933	,	-22747	,	2.357923	,	0
24,50	,	80471	,	-23931	,	-22741	,	0.40052223	,	0
24,50	,	80487	,	-23947	,	-22744	,	-1.6642514	,	0
24,50	,	80519	,	-23946	,	-22743	,	-3.7402937	,	0
24,50	,	80535	,	-23941	,	-22747	,	-5.7631793	,	0
24,50	,	80551	,	-23945	,	-22742	,	-7.507347	,	0
24,50	,	80583	,	-23949	,	-22739	,	-8.746113	,	0
24,50	,	80599	,	-23951	,	-22750	,	-9.440821	,	0
24,50	,	80615	,	-23953	,	-22759	,	-9.673708	,	0
24,50	,	80647	,	-23959	,	-22735	,	-9.572157	,	0
24,50	,	80663	,	-23959	,	-22753	,	-9.293146	,	0
24,50	,	80679	,	-23968	,	-22750	,	-8.986368	,	0
24,50	,	80711	,	-23965	,	-22753	,	-8.767086	,	0
24,50	,	80727	,	-23946	,	-22745	,	-8.566643	,	0
24,50	,	80759	,	-23940	,	-22745	,	-7.99501	,	0
24,50	,	80775	,	-23922	,	-22737	,	-6.542745	,	0
24,50	,	80791	,	-23912	,	-22730	,	-3.8555536	,	1
24,50	,	80823	,	-23897	,	-22729	,	0.16073346	,	3
24,50	,	80839	,	-23889	,	-22722	,	5.310993	,	7
24,50	,	80855	,	-23887	,	-22711	,	11.113096	,	12
24,50	,	80887	,	-23885	,	-22714	,	16.84602	,	17
24,50	,	80903	,	-23865	,	-22710	,	21.819323	,	22
24,50	,	80935	,	-23866	,	-22710	,	25.680773	,	26
24,50	,	80951	,	-23876	,	-22710	,	28.251537	,	29
24,50	,	80967	,	-23860	,	-22709	,	29.321562	,	31
24,50	,	80999	,	-23870	,	-22700	,	28.864048	,	31
24,50	,	81015	,	-23870	,	-22700	,	27.053596	,	29
24,50	,	81031	,	-23873	,	-22695	,	24.084766	,	25
24,50	,	81062	,	-23854	,	-22702	,	20.313128	,	20
24,50	,	81079	,	-23867	,	-22699	,	16.325985	,	15
24,50	,	81111	,	-23850	,	-22684	,	12.665413	,	10
24,50	,	81127	,	-23854	,	-22696	,	9.684923	,	6
24,51	,	81143	,	-23853	,	-22704	,	7.549672	,	3
24,51	,	81175	,	-23851	,	-22693	,	6.1996303	,	1
24,51	,	81191	,	-23860	,	-22692	,	5.410992	,	0
24,51	,	81207	,	-23861	,	-22697	,	4.8599544	,	0
24,51	,	81239	,	-23862	,	-22700	,	4.234803	,	0
24,51	,	81254	,	-23867	,	-22696	,	3.3737743	,	0
24,51	,	81270	,	-23866	,	-22703	,	2.2478378	,	0
24,51	,	81302	,	-23873	,	-22702	,	0.8956206	,	0
24,51	,	81318	,	-23877	,	-22712	,	-0.6395277	,	0
24,51	,	81350	,	-23879	,	-22686	,	-2.3221068	,	0
24,51	,	81367	,	-23885	,	-22708	,	-4.073887	,	0
24,51	,	81383	,	-23890	,	-22706	,	-5.803095	,	0
24,51	,	81415	,	-23885	,	-22709	,	-7.4095106	,	0
24,51	,	81431	,	-23892	,	-22713	,	-8.736084	,	0
24,51	,	81446	,	-23904	,	-22718	,	-9.714387	,	0
24,51	,	81478	,	-23894	,	-22713	,	-10.432457	,	0
24,51	,	81494	,	-23914	,	-22717	,	-10.971029	,	0
24,51	,	81526	,	-23900	,	-22718	,	-11.365093	,	0
24,51	,	81542	,	-23907	,	-22714	,	-11.5703	,	0
24,51	,	81559	,	-23923	,	-22717	,	-11.545515	,	0
24,51	,	81590	,	-23914	,	-22712	,	-11.427059	,	0
24,51	,	81606	,	-23909	,	-22710	,	-11.276352	,	0
24,51	,	81622	,	-23895	,	-22708	,	-10.828598	,	0
24,51	,	81655	,	-23873	,	-22705	,	-9.585934	,	0
24,51	,	81671	,	-23868	,	-22701	,	-7.043276	,	1
24,51	,	81686	,	-23849	,	-22692	,	-2.9890718	,	3
24,51	,	81718	,	-23851	,	-22693	,	2.3543062	,	7
24,51	,	81734	,	-23838	,	-22694	,	8.409264	,	12
24,51	,	81766	,	-23834	,	-22681	,	14.461397	,	18
24,51	,	81782	,	-23838	,	-22698	,	19.83618	,	24
24,51	,	81798	,	-23839	,	-22671	,	23.897245	,	29
24,51	,	81830	,	-23830	,	-22678	,	26.195494	,	33
24,51	,	81846	,	-23825	,	-22682	,	26.72194	,	35
24,51	,	81862	,	-23838	,	-22672	,	25.76615	,	34
24,51	,	81894	,	-23834	,	-22681	,	23.576847	,	32
24,51	,	81910	,	-23826	,	-22676	,	20.423683	,	28
24,51	,	81942	,	-23821	,	-22676	,	16.81174	,	23
24,51	,	81958	,	-23820	,	-22674	,	13.335776	,	17
24,51	,	81974	,	-23825	,	-22672	,	10.377098	,	11
24,51	,	82006	,	-23814	,	-22676	,	8.052891	,	6
24,51	,	82022	,	-23838	,	-22691	,	6.2957177	,	2
24,51	,	82038	,	-23824	,	-22666	,	4.857792	,	0
24,51	,	82070	,	-23841	,	-22683	,	3.4626877	,	0
24,51	,	82086	,	-23832	,	-22680	,	1.9733524	,	0
24,51	,	82102	,	-23832	,	-22679	,	0.43317914	,	0
24,52	,	82134	,	-23836	,	-22675	,	-0.97042334	,	0
24,52	,	82150	,	-23838	,	-22682	,	-2.1062644	,	0
24,52	,	82182	,	-23854	,	-22687	,	-3.0518959	,	0
24,52	,	82198	,	-23841	,	-22677	,	-3.9844773	,	0
24,52	,	82214	,	-23853	,	-22679	,	-4.944786	,	0
24,52	,	82246	,	-23857	,	-22686	,	-5.87753	,	0
24,52	,	82262	,	-23856	,	-22687	,	-6.7827377	,	0
24,52	,	82278	,	-23850	,	-22688	,	-7.5834866	,	0
24,52	,	82310	,	-23860	,	-22690	,	-8.103748	,	0
24,52	,	82326	,	-23863	,	-22690	,	-8.296464	,	0
24,52	,	82358	,	-23868	,	-22692	,	-8.295997	,	0
24,52	,	82374	,	-23877	,	-22693	,	-8.300698	,	0
24,52	,	82390	,	-23879	,	-22694	,	-8.502345	,	0
24,52	,	82422	,	-23896	,	-22697	,	-9.057694	,	0
24,52	,	82438	,	-23882	,	-22708	,	-10.007217	,	0
24,52	,	82454	,	-23885	,	-22708	,	-11.114952	,	0
24,52	,	82486	,	-23897	,	-22711	,	-12.019394	,	0
24,52	,	82502	,	-23900	,	-22696	,	-12.609915	,	0
24,52	,	82518	,	-23887	,	-22703	,	-12.916037	,	0
24,52	,	82550	,	-23864	,	-22693	,	-12.6762	,	0
24,52	,	82566	,	-23847	,	-22691	,	-11.274414	,	0
24,52	,	82598	,	-23850	,	-22688	,	-8.21286	,	1
24,52	,	82614	,	-23846	,	-22684	,	-3.6255383	,	4
24,52	,	82630	,	-23838	,	-22686	,	1.8091354	,	8
24,52	,	82662	,	-23829	,	-22691	,	7.3614483	,	13
24,52	,	82678	,	-23833	,	-22683	,	12.461787	,	18
24,52	,	82694	,	-23826	,	-22689	,	16.631136	,	23
24,52	,	82726	,	-23838	,	-22692	,	19.477705	,	27
24,52	,	82742	,	-23833	,	-22671	,	20.743013	,	29
24,52	,	82774	,	-23831	,	-22685	,	20.40477	,	30
24,52	,	82790	,	-23828	,	-22677	,	18.758652	,	29
24,52	,	82806	,	-23830	,	-22676	,	16.269957	,	26
24,52	,	82838	,	-23829	,	-22682	,	13.364884	,	22
24,52	,	82854	,	-23829	,	-22675	,	10.371249	,	17
24,52	,	82870	,	-23833	,	-22681	,	7.5243855	,	12
24,52	,	82902	,	-23834	,	-22676	,	4.959032	,	7
24,52	,	82918	,	-23817	,	-22676	,	2.818943	,	3
24,52	,	82950	,	-23832	,	-22677	,	1.3136296	,	1
24,52	,	82966	,	-23835	,	-22686	,	0.4458213	,	0
24,52	,	82982	,	-23826	,	-22685	,	-0.035805583	,	0
24,52	,	83014	,	-23822	,	-22692	,	-0.26263386	,	0
24,52	,	83030	,	-23843	,	-22691	,	-0.2627854	,	0
24,52	,	83046	,	-23828	,	-22692	,	-0.22757103	,	0
24,52	,	83078	,	-23847	,	-22693	,	-0.3882927	,	0
24,52	,	83094	,	-23838	,	-22699	,	-0.864554	,	0
24,52	,	83110	,	-23842	,	-22698	,	-1.6369072	,	0
24,53	,	83142	,	-23846	,	-22695	,	-2.5570397	,	0
24,53	,	83158	,	-23849	,	-22705	,	-3.503002	,	0
24,53	,	83190	,	-23862	,	-22704	,	-4.4871836	,	0
24,53	,	83206	,	-23854	,	-22689	,	-5.5850997	,	0
24,53	,	83222	,	-23867	,	-22705	,	-6.7845984	,	0
24,53	,	83254	,	-23873	,	-22713	,	-8.030802	,	0
24,53	,	83270	,	-23856	,	-22716	,	-9.24584	,	0
24,53	,	83286	,	-23867	,	-22712	,	-10.172293	,	0
24,53	,	83318	,	-23873	,	-22723	,	-10.587406	,	0
24,53	,	83334	,	-23882	,	-22723	,	-10.605732	,	0
24,53	,	83365	,	-23885	,	-22725	,	-10.533121	,	0
24,53	,	83382	,	-23879	,	-22731	,	-10.546051	,	0
24,53	,	83398	,	-23873	,	-22728	,	-10.525357	,	0
24,53	,	83430	,	-23857	,	-22734	,	-10.102081	,	0
24,53	,	83446	,	-23854	,	-22700	,	-8.843869	,	0
24,53	,	83462	,	-23846	,	-22726	,	-6.5174193	,	1
24,53	,	83494	,	-23853	,	-22714	,	-3.2751775	,	3
24,53	,	83510	,	-23848	,	-22727	,	0.3945346	,	6
24,53	,	83526	,	-23849	,	-22725	,	3.9130561	,	9
24,53	,	83558	,	-23848	,	-22725	,	6.8262415	,	12
24,53	,	83574	,	-23839	,	-22730	,	8.9010935	,	14
24,53	,	83606	,	-23856	,	-22742	,	10.085622	,	16
24,53	,	83622	,	-23848	,	-22738	,	10.342505	,	17
24,53	,	83638	,	-23861	,	-22742	,	9.644669	,	17
24,53	,	83670	,	-23858	,	-22753	,	8.067888	,	16
24,53	,	83685	,	-23860	,	-22743	,	5.813854	,	14
24,53	,	83701	,	-23861	,	-22753	,	3.212912	,	11
24,53	,	83734	,	-23864	,	-22759	,	0.61461186	,	8
24,53	,	83750	,	-23862	,	-22760	,	-1.7141929	,	5
24,53	,	83782	,	-23850	,	-22771	,	-3.5176024	,	3
24,53	,	83798	,	-23854	,	-22761	,	-4.516326	,	1
24,53	,	83814	,	-23853	,	-22772	,	-4.5959244	,	0
24,53	,	83846	,	-23854	,	-22779	,	-3.917507	,	0
24,53	,	83861	,	-23855	,	-22777	,	-2.7858958	,	0
24,53	,	83877	,	-23863	,	-22789	,	-1.5498059	,	1
24,53	,	83909	,	-23865	,	-22766	,	-0.5718391	,	2
24,53	,	83925	,	-23863	,	-22786	,	-0.09815109	,	2
24,53	,	83942	,	-23866	,	-22779	,	-0.14764565	,	2
24,53	,	83974	,	-23866	,	-22792	,	-0.5900172	,	2
24,53	,	83990	,	-23867	,	-22790	,	-1.257437	,	2
24,53	,	84021	,	-23879	,	-22788	,	-2.039195	,	2
24,53	,	84037	,	-23889	,	-22795	,	-3.0096352	,	2
24,53	,	84053	,	-23882	,	-22800	,	-4.3133955	,	2
24,53	,	84085	,	-23877	,	-22799	,	-5.8277025	,	1
24,53	,	84102	,	-23887	,	-22805	,	-7.1855774	,	0
24,53	,	84118	,	-23889	,	-22816	,	-8.157952	,	0
24,54	,	84150	,	-23893	,	-22795	,	-8.769972	,	0
24,54	,	84166	,	-23899	,	-22807	,	-9.146992	,	0
24,54	,	84198	,	-23885	,	-22807	,	-9.351336	,	0
24,54	,	84214	,	-23880	,	-22802	,	-9.22094	,	0
24,54	,	84229	,	-23868	,	-22789	,	-8.416086	,	0
24,54	,	84262	,	-23852	,	-22791	,	-6.6095066	,	0
24,54	,	84277	,	-23829	,	-22790	,	-3.5247025	,	1
24,54	,	84293	,	-23825	,	-22784	,	0.9825511	,	4
24,54	,	84326	,	-23822	,	-22782	,	6.6523933	,	8
24,54	,	84342	,	-23826	,	-22783	,	12.718979	,	13
24,54	,	84358	,	-23821	,	-22794	,	18.202038	,	19
24,54	,	84389	,	-23820	,	-22765	,	22.324404	,	24
24,54	,	84405	,	-23814	,	-22780	,	24.724579	,	28
24,54	,	84437	,	-23816	,	-22778	,	25.409302	,	30
24,54	,	84453	,	-23822	,	-22774	,	24.554832	,	30
24,54	,	84470	,	-23814	,	-22773	,	22.401352	,	29
24,54	,	84501	,	-23806	,	-22780	,	19.372448	,	26
24,54	,	84517	,	-23808	,	-22771	,	16.062836	,	22
24,54	,	84533	,	-23814	,	-22774	,	12.927371	,	17
24,54	,	84565	,	-23819	,	-22780	,	10.085729	,	11
24,54	,	84581	,	-23811	,	-22778	,	7.491789	,	6
24,54	,	84613	,	-23800	,	-22767	,	5.2446876	,	2
24,54	,	84629	,	-23810	,	-22777	,	3.5847402	,	0
24,54	,	84645	,	-23809	,	-22770	,	2.5677595	,	0
24,54	,	84677	,	-23814	,	-22775	,	1.9807651	,	0
24,54	,	84693	,	-23810	,	-22785	,	1.5684404	,	0
24,54	,	84709	,	-23815	,	-22783	,	1.1762136	,	0
24,54	,	84741	,	-23822	,	-22785	,	0.6949819	,	0
24,54	,	84757	,	-23835	,	-22774	,	-0.06382221	,	0
24,54	,	84773	,	-23834	,	-22785	,	-1.3240517	,	0
24,54	,	84805	,	-23834	,	-22787	,	-3.1047916	,	0
24,54	,	84821	,	-23835	,	-22790	,	-5.134615	,	0
24,54	,	84853	,	-23842	,	-22781	,	-7.068993	,	0
24,54	,	84869	,	-23851	,	-22787	,	-8.737977	,	0
24,54	,	84885	,	-23861	,	-22790	,	-10.203782	,	0
24,54	,	84917	,	-23864	,	-22791	,	-11.624257	,	0
24,54	,	84934	,	-23859	,	-22794	,	-13.017811	,	0
24,54	,	84949	,	-23874	,	-22797	,	-14.22636	,	0
24,54	,	84981	,	-23879	,	-22803	,	-15.167887	,	0
24,54	,	84997	,	-23875	,	-22797	,	-15.8776245	,	0
24,54	,	85029	,	-23896	,	-22804	,	-16.37357	,	0
24,54	,	85045	,	-23895	,	-22806	,	-16.750233	,	0
24,54	,	85061	,	-23896	,	-22818	,	-17.115751	,	0
24,54	,	85093	,	-23891	,	-22786	,	-17.351883	,	0
24,54	,	85109	,	-23861	,	-22796	,	-17.030197	,	0
24,54	,	85125	,	-23850	,	-22778	,	-15.466705	,	0
24,55	,	85157	,	-23825	,	-22775	,	-12.032381	,	1
24,55	,	85173	,	-23831	,	-22768	,	-6.575778	,	4
24,55	,	85189	,	-23815	,	-22766	,	0.412158	,	9
24,55	,	85221	,	-23820	,	-22766	,	8.002729	,	15
24,55	,	85237	,	-23822	,	-22764	,	15.124788	,	22
24,55	,	85269	,	-23830	,	-22760	,	20.747204	,	29
24,55	,	85285	,	-23805	,	-22765	,	24.22468	,	34
24,55	,	85301	,	-23810	,	-22762	,	25.604103	,	37
24,55	,	85333	,	-23804	,	-22759	,	25.361477	,	38
24,55	,	85349	,	-23801	,	-22762	,	23.988628	,	37
24,55	,	85365	,	-23807	,	-22762	,	21.880413	,	34
24,55	,	85397	,	-23802	,	-22756	,	19.305872	,	29
24,55	,	85413	,	-23791	,	-22756	,	16.52546	,	23
24,55	,	85445	,	-23792	,	-22756	,	13.912998	,	16
24,55	,	85461	,	-23787	,	-22765	,	11.784259	,	9
24,55	,	85477	,	-23798	,	-22759	,	10.199642	,	4
24,55	,	85509	,	-23783	,	-22760	,	9.0212	,	1
24,55	,	85525	,	-23802	,	-22769	,	8.074217	,	0
24,55	,	85541	,	-23789	,	-22748	,	7.1758523	,	0
24,55	,	85573	,	-23806	,	-22761	,	6.151359	,	0
24,55	,	85589	,	-23802	,	-22755	,	4.8704605	,	0
24,55	,	85621	,	-23809	,	-22765	,	3.2672272	,	0
24,55	,	85637	,	-23812	,	-22759	,	1.3719921	,	0
24,55	,	85653	,	-23820	,	-22763	,	-0.74780154	,	0
24,55	,	85685	,	-23827	,	-22773	,	-3.0494528	,	0
24,55	,	85701	,	-23820	,	-22761	,	-5.435231	,	0
24,55	,	85717	,	-23825	,	-22764	,	-7.6489506	,	0
24,55	,	85749	,	-23828	,	-22766	,	-9.403221	,	0
24,55	,	85765	,	-23839	,	-22794	,	-10.617587	,	0
24,55	,	85781	,	-23848	,	-22753	,	-11.467816	,	0
24,55	,	85813	,	-23851	,	-22769	,	-12.22673	,	0
24,55	,	85829	,	-23855	,	-22771	,	-13.043306	,	0
24,55	,	85861	,	-23857	,	-22775	,	-13.87919	,	0
24,55	,	85877	,	-23855	,	-22784	,	-14.575979	,	0
24,55	,	85893	,	-23872	,	-22786	,	-14.996578	,	0
24,55	,	85925	,	-23870	,	-22791	,	-15.181674	,	0
24,55	,	85941	,	-23864	,	-22795	,	-15.194723	,	0
24,55	,	85973	,	-23868	,	-22791	,	-14.91065	,	0
24,55	,	85989	,	-23856	,	-22787	,	-14.129521	,	0
24,55	,	86005	,	-23848	,	-22776	,	-12.657159	,	0
24,55	,	86037	,	-23833	,	-22766	,	-10.273039	,	1
24,55	,	86053	,	-23813	,	-22752	,	-6.7656856	,	3
24,55	,	86069	,	-23802	,	-22756	,	-2.014051	,	6
24,55	,	86101	,	-23802	,	-22756	,	3.8053694	,	10
24,55	,	86117	,	-23798	,	-22759	,	10.08227	,	15
24,56	,	86133	,	-23797	,	-22758	,	15.980883	,	21
24,56	,	86165	,	-23803	,	-22759	,	20.719542	,	26
24,56	,	86181	,	-23811	,	-22756	,	23.66044	,	30
24,56	,	86213	,	-23795	,	-22752	,	24.483898	,	32
24,56	,	86229	,	-23794	,	-22753	,	23.43768	,	31
24,56	,	86245	,	-23800	,	-22744	,	21.128288	,	29
24,56	,	86277	,	-23794	,	-22760	,	18.08913	,	26
24,56	,	86293	,	-23791	,	-22734	,	14.750192	,	22
24,56	,	86309	,	-23787	,	-22755	,	11.545932	,	17
24,56	,	86341	,	-23784	,	-22754	,	8.844204	,	11
24,56	,	86357	,	-23792	,	-22757	,	6.8147836	,	6
24,56	,	86373	,	-23783	,	-22754	,	5.402944	,	2
24,56	,	86405	,	-23783	,	-22753	,	4.4967184	,	0
24,56	,	86421	,	-23781	,	-22754	,	4.0247984	,	0
24,56	,	86452	,	-23789	,	-22766	,	3.8553607	,	0
24,56	,	86468	,	-23794	,	-22743	,	3.7306044	,	0
24,56	,	86485	,	-23800	,	-22764	,	3.335691	,	0
24,56	,	86517	,	-23813	,	-22767	,	2.3908703	,	0
24,56	,	86533	,	-23813	,	-22768	,	0.72383153	,	0
24,56	,	86549	,	-23807	,	-22766	,	-1.5667273	,	0
24,56	,	86581	,	-23814	,	-22768	,	-4.073586	,	0
24,56	,	86597	,	-23821	,	-22774	,	-6.390706	,	0
24,56	,	86629	,	-23823	,	-22772	,	-8.34518	,	0
24,56	,	86645	,	-23826	,	-22778	,	-9.899711	,	0
24,56	,	86661	,	-23851	,	-22779	,	-11.141232	,	0
24,56	,	86692	,	-23834	,	-22791	,	-12.285581	,	0
24,56	,	86708	,	-23840	,	-22769	,	-13.355558	,	0
24,56	,	86724	,	-23844	,	-22790	,	-14.125585	,	0
24,56	,	86756	,	-23856	,	-22780	,	-14.499912	,	0
24,56	,	86772	,	-23844	,	-22791	,	-14.552282	,	0
24,56	,	86789	,	-23855	,	-22787	,	-14.287853	,	0
24,56	,	86821	,	-23861	,	-22796	,	-13.724076	,	0
24,56	,	86837	,	-23866	,	-22802	,	-13.048794	,	0
24,56	,	86868	,	-23856	,	-22790	,	-12.419424	,	0
24,56	,	86885	,	-23859	,	-22788	,	-11.749128	,	0
24,56	,	86900	,	-23852	,	-22788	,	-10.829685	,	0
24,56	,	86932	,	-23822	,	-22788	,	-9.375021	,	0
24,56	,	86948	,	-23813	,	-22772	,	-6.9072914	,	1
24,56	,	86965	,	-23801	,	-22774	,	-3.03545	,	3
24,56	,	86996	,	-23788	,	-22773	,	2.191378	,	6
24,56	,	87012	,	-23788	,	-22768	,	8.3213	,	11
24,56	,	87045	,	-23785	,	-22771	,	14.618217	,	17
24,56	,	87061	,	-23793	,	-22762	,	20.181643	,	23
24,56	,	87076	,	-23790	,	-22766	,	24.176638	,	28
24,56	,	87108	,	-23791	,	-22768	,	26.104424	,	31
24,56	,	87124	,	-23790	,	-22768	,	25.930079	,	32
24,57	,	87141	,	-23780	,	-22767	,	24.02298	,	31
24,57	,	87172	,	-23782	,	-22756	,	21.016815	,	29
24,57	,	87189	,	-23783	,	-22755	,	17.544327	,	26
24,57	,	87220	,	-23777	,	-22765	,	14.051514	,	21
24,57	,	87236	,	-23788	,	-22758	,	10.816328	,	15
24,57	,	87252	,	-23787	,	-22763	,	7.935748	,	9
24,57	,	87284	,	-23769	,	-22763	,	5.468151	,	4
24,57	,	87300	,	-23786	,	-22753	,	3.5878248	,	1
24,57	,	87316	,	-23777	,	-22756	,	2.3567157	,	0
24,57	,	87348	,	-23784	,	-22756	,	1.6243253	,	0
24,57	,	87364	,	-23803	,	-22758	,	1.0995374	,	0
24,57	,	87380	,	-23795	,	-22762	,	0.37675393	,	0
24,57	,	87413	,	-23801	,	-22752	,	-0.77132195	,	0
24,57	,	87428	,	-23811	,	-22771	,	-2.2935686	,	0
24,57	,	87460	,	-23807	,	-22763	,	-4.082875	,	0
24,57	,	87476	,	-23819	,	-22751	,	-6.006762	,	0
24,57	,	87492	,	-23820	,	-22761	,	-7.920232	,	0
24,57	,	87524	,	-23824	,	-22763	,	-9.712846	,	0
24,57	,	87540	,	-23837	,	-22762	,	-11.315746	,	0
24,57	,	87556	,	-23842	,	-22763	,	-12.76986	,	0
24,57	,	87588	,	-23842	,	-22768	,	-14.13721	,	0
24,57	,	87604	,	-23848	,	-22759	,	-15.348915	,	0
24,57	,	87636	,	-23857	,	-22786	,	-16.30712	,	0
24,57	,	87652	,	-23862	,	-22759	,	-17.027466	,	0
24,57	,	87668	,	-23876	,	-22782	,	-17.62367	,	0
24,57	,	87700	,	-23882	,	-22776	,	-18.2584	,	0
24,57	,	87716	,	-23878	,	-22779	,	-19.000175	,	0
24,57	,	87732	,	-23890	,	-22784	,	-19.710205	,	0
24,57	,	87764	,	-23901	,	-22792	,	-20.259432	,	0
24,57	,	87780	,	-23899	,	-22796	,	-20.675823	,	0
24,57	,	87796	,	-23886	,	-22788	,	-20.86589	,	0
24,57	,	87828	,	-23870	,	-22790	,	-20.380516	,	0
24,57	,	87844	,	-23861	,	-22788	,	-18.615234	,	0
24,57	,	87876	,	-23856	,	-22776	,	-15.236196	,	1
24,57	,	87892	,	-23834	,	-22788	,	-10.324061	,	4
24,57	,	87908	,	-23845	,	-22781	,	-4.2514315	,	8
24,57	,	87940	,	-23845	,	-22774	,	2.2670245	,	14
24,57	,	87956	,	-23846	,	-22788	,	8.254387	,	20
24,57	,	87972	,	-23846	,	-22775	,	12.887047	,	25
24,57	,	88004	,	-23842	,	-22772	,	15.761486	,	29
24,57	,	88020	,	-23848	,	-22783	,	16.857841	,	31
24,57	,	88052	,	-23839	,	-22775	,	16.412458	,	32
24,57	,	88068	,	-23838	,	-22776	,	14.859364	,	31
24,57	,	88084	,	-23834	,	-22790	,	12.736536	,	28
24,57	,	88116	,	-23833	,	-22758	,	10.517647	,	24
24,58	,	88132	,	-23833	,	-22770	,	8.516446	,	18
24,58	,	88148	,	-23838	,	-22772	,	6.845082	,	12
24,58	,	88180	,	-23828	,	-22776	,	5.484145	,	7
24,58	,	88196	,	-23836	,	-22777	,	4.4199247	,	3
24,58	,	88212	,	-23838	,	-22776	,	3.5993717	,	1
24,58	,	88244	,	-23830	,	-22777	,	2.9092152	,	0
24,58	,	88260	,	-23831	,	-22767	,	2.3321395	,	0
24,58	,	88292	,	-23823	,	-22776	,	1.9713873	,	0
24,58	,	88308	,	-23839	,	-22773	,	1.873534	,	0
24,58	,	88324	,	-23848	,	-22798	,	1.8162351	,	0
24,58	,	88356	,	-23841	,	-22763	,	1.4239361	,	0
24,58	,	88372	,	-23852	,	-22779	,	0.5331391	,	0
24,58	,	88388	,	-23862	,	-22784	,	-0.8428421	,	0
24,58	,	88420	,	-23861	,	-22783	,	-2.695655	,	0
24,58	,	88436	,	-23864	,	-22790	,	-4.893956	,	0
24,58	,	88468	,	-23868	,	-22794	,	-7.149645	,	0
24,58	,	88484	,	-23865	,	-22794	,	-9.164547	,	0
24,58	,	88500	,	-23881	,	-22800	,	-10.742449	,	0
24,58	,	88532	,	-23886	,	-22802	,	-11.910351	,	0
24,58	,	88548	,	-23877	,	-22792	,	-12.7955	,	0
24,58	,	88564	,	-23877	,	-22804	,	-13.317902	,	0
24,58	,	88596	,	-23887	,	-22800	,	-13.300011	,	0
24,58	,	88612	,	-23884	,	-22809	,	-12.770325	,	0
24,58	,	88628	,	-23896	,	-22800	,	-11.935842	,	0
24,58	,	88660	,	-23880	,	-22800	,	-10.979834	,	0
24,58	,	88676	,	-23864	,	-22795	,	-9.812054	,	0
24,58	,	88708	,	-23855	,	-22791	,	-8.020177	,	1
24,58	,	88724	,	-23850	,	-22781	,	-5.2526655	,	2
24,58	,	88740	,	-23853	,	-22791	,	-1.5827684	,	4
24,58	,	88771	,	-23856	,	-22789	,	2.4814453	,	7
24,58	,	88788	,	-23846	,	-22797	,	6.2908506	,	11
24,58	,	88804	,	-23842	,	-22779	,	9.4280205	,	14
24,58	,	88836	,	-23854	,	-22791	,	11.712998	,	17
24,58	,	88852	,	-23851	,	-22786	,	12.966547	,	19
24,58	,	88884	,	-23865	,	-22792	,	13.004158	,	20
24,58	,	88900	,	-23866	,	-22790	,	11.7422085	,	19
24,58	,	88916	,	-23864	,	-22793	,	9.304772	,	18
24,58	,	88948	,	-23864	,	-22791	,	6.1112003	,	16
24,58	,	88964	,	-23857	,	-22790	,	2.763587	,	13
24,58	,	88980	,	-23857	,	-22784	,	-0.1532402	,	9
24,58	,	89012	,	-23850	,	-22784	,	-2.2079947	,	6
24,58	,	89028	,	-23852	,	-22797	,	-3.1948698	,	3
24,58	,	89044	,	-23862	,	-22767	,	-3.2109163	,	1
24,58	,	89075	,	-23861	,	-22786	,	-2.6472175	,	0
24,58	,	89091	,	-23863	,	-22793	,	-1.941708	,	0
24,58	,	89124	,	-23867	,	-22788	,	-1.3856359	,	0
24,59	,	89140	,	-23878	,	-22798	,	-1.1955953	,	0
24,59	,	89156	,	-23876	,	-22798	,	-1.5570797	,	0
24,59	,	89188	,	-23872	,	-22795	,	-2.453235	,	0
24,59	,	89204	,	-23882	,	-22793	,	-3.6319666	,	0
24,59	,	89220	,	-23886	,	-22799	,	-4.879307	,	0
24,59	,	89251	,	-23893	,	-22803	,	-6.159091	,	0
24,59	,	89268	,	-23883	,	-22812	,	-7.428306	,	0
24,59	,	89300	,	-23888	,	-22798	,	-8.477682	,	0
