Data recorded on Mon Jul 24 09-49-21 CAT 2017
Time: 9:49:28
Time		Millis		IR PPG		Red PPG		Filtered		SSF
49,37	,	51899	,	-28457	,	-27896	,	-16.210354	,	0
49,37	,	51931	,	-28451	,	-27903	,	-14.284845	,	0
49,37	,	51947	,	-28438	,	-27894	,	-10.879235	,	1
49,37	,	51963	,	-28438	,	-27901	,	-6.0832734	,	4
49,37	,	51995	,	-28423	,	-27895	,	-0.36197853	,	8
49,37	,	52010	,	-28428	,	-27889	,	5.6539273	,	13
49,37	,	52027	,	-28420	,	-27879	,	11.301383	,	19
49,37	,	52059	,	-28421	,	-27871	,	15.993068	,	24
49,37	,	52075	,	-28411	,	-27879	,	19.371384	,	28
49,37	,	52106	,	-28423	,	-27867	,	21.305162	,	31
49,37	,	52123	,	-28428	,	-27890	,	21.700197	,	32
49,37	,	52138	,	-28430	,	-27881	,	20.484041	,	31
49,37	,	52171	,	-28416	,	-27888	,	17.87342	,	28
49,37	,	52187	,	-28422	,	-27870	,	14.458117	,	24
49,37	,	52203	,	-28423	,	-27890	,	10.86531	,	19
49,37	,	52235	,	-28422	,	-27879	,	7.4862194	,	13
49,37	,	52251	,	-28421	,	-27893	,	4.541248	,	8
49,37	,	52282	,	-28432	,	-27890	,	2.1287904	,	4
49,37	,	52298	,	-28430	,	-27889	,	0.18594003	,	1
49,37	,	52314	,	-28431	,	-27898	,	-1.3942573	,	0
49,37	,	52347	,	-28436	,	-27903	,	-2.662891	,	0
49,37	,	52363	,	-28428	,	-27903	,	-3.6370215	,	0
49,37	,	52379	,	-28442	,	-27912	,	-4.32209	,	0
49,37	,	52411	,	-28468	,	-27904	,	-4.928702	,	0
49,37	,	52427	,	-28470	,	-27915	,	-5.97497	,	0
49,37	,	52443	,	-28474	,	-27906	,	-7.832742	,	0
49,37	,	52474	,	-28473	,	-27922	,	-10.354926	,	0
49,37	,	52490	,	-28477	,	-27921	,	-13.047069	,	0
49,37	,	52522	,	-28484	,	-27925	,	-15.420691	,	0
49,37	,	52538	,	-28485	,	-27909	,	-17.185234	,	0
49,37	,	52554	,	-28494	,	-27926	,	-18.24754	,	0
49,37	,	52587	,	-28512	,	-27948	,	-18.745953	,	0
49,37	,	52602	,	-28503	,	-27944	,	-18.979738	,	0
49,37	,	52618	,	-28520	,	-27948	,	-19.133236	,	0
49,37	,	52650	,	-28529	,	-27940	,	-19.292309	,	0
49,37	,	52666	,	-28541	,	-27951	,	-19.62312	,	0
49,37	,	52698	,	-28544	,	-27967	,	-20.265064	,	0
49,37	,	52715	,	-28548	,	-27954	,	-21.16476	,	0
49,37	,	52731	,	-28554	,	-27968	,	-22.102272	,	0
49,37	,	52762	,	-28545	,	-27962	,	-22.77416	,	0
49,37	,	52778	,	-28538	,	-27944	,	-22.779064	,	0
49,37	,	52794	,	-28518	,	-27943	,	-21.62413	,	0
49,37	,	52826	,	-28496	,	-27923	,	-18.801342	,	1
49,37	,	52842	,	-28488	,	-27941	,	-13.97041	,	3
49,37	,	52858	,	-28487	,	-27926	,	-7.302621	,	7
49,37	,	52890	,	-28473	,	-27925	,	0.45713234	,	13
49,38	,	52906	,	-28477	,	-27930	,	8.348674	,	20
49,38	,	52938	,	-28476	,	-27919	,	15.440926	,	27
49,38	,	52954	,	-28472	,	-27922	,	20.94859	,	34
49,38	,	52970	,	-28455	,	-27914	,	24.50866	,	39
49,38	,	53002	,	-28465	,	-27931	,	26.242315	,	42
49,38	,	53018	,	-28475	,	-27901	,	26.340448	,	42
49,38	,	53034	,	-28476	,	-27931	,	24.82164	,	40
49,38	,	53066	,	-28470	,	-27927	,	21.828785	,	36
49,38	,	53082	,	-28480	,	-27930	,	17.80265	,	30
49,38	,	53114	,	-28476	,	-27913	,	13.265241	,	23
49,38	,	53130	,	-28481	,	-27911	,	8.67796	,	16
49,38	,	53146	,	-28469	,	-27913	,	4.4783907	,	9
49,38	,	53178	,	-28479	,	-27926	,	1.051569	,	4
49,38	,	53194	,	-28471	,	-27933	,	-1.3977208	,	1
49,38	,	53210	,	-28472	,	-27920	,	-2.8515568	,	0
49,38	,	53242	,	-28463	,	-27929	,	-3.3542807	,	0
49,38	,	53258	,	-28485	,	-27916	,	-3.069945	,	0
49,38	,	53274	,	-28487	,	-27928	,	-2.4568088	,	0
49,38	,	53306	,	-28487	,	-27919	,	-2.0690231	,	0
49,38	,	53322	,	-28486	,	-27935	,	-2.150425	,	0
49,38	,	53354	,	-28502	,	-27941	,	-2.6755624	,	0
49,38	,	53370	,	-28501	,	-27943	,	-3.6371	,	0
49,38	,	53386	,	-28505	,	-27941	,	-5.0116243	,	0
49,38	,	53418	,	-28522	,	-27950	,	-6.6958184	,	0
49,38	,	53434	,	-28511	,	-27952	,	-8.587398	,	0
49,38	,	53450	,	-28512	,	-27964	,	-10.452911	,	0
49,38	,	53482	,	-28531	,	-27970	,	-11.9891405	,	0
49,38	,	53498	,	-28533	,	-27936	,	-13.17345	,	0
49,38	,	53530	,	-28538	,	-27959	,	-14.175651	,	0
49,38	,	53546	,	-28539	,	-27965	,	-15.046598	,	0
49,38	,	53562	,	-28543	,	-27972	,	-15.705164	,	0
49,38	,	53594	,	-28556	,	-27990	,	-16.1078	,	0
49,38	,	53610	,	-28565	,	-27997	,	-16.384033	,	0
49,38	,	53626	,	-28575	,	-27989	,	-16.778502	,	0
49,38	,	53658	,	-28574	,	-27996	,	-17.44097	,	0
49,38	,	53674	,	-28596	,	-27985	,	-18.36871	,	0
49,38	,	53690	,	-28592	,	-27998	,	-19.524687	,	0
49,38	,	53722	,	-28589	,	-28011	,	-20.7487	,	0
49,38	,	53738	,	-28579	,	-27961	,	-21.592453	,	0
49,38	,	53770	,	-28546	,	-27975	,	-21.347069	,	0
49,38	,	53786	,	-28531	,	-27963	,	-19.17547	,	0
49,38	,	53802	,	-28521	,	-27964	,	-14.5333805	,	2
49,38	,	53834	,	-28511	,	-27949	,	-7.5957956	,	6
49,38	,	53850	,	-28516	,	-27959	,	0.78235817	,	12
49,38	,	53866	,	-28512	,	-27955	,	9.360456	,	20
49,39	,	53898	,	-28503	,	-27960	,	16.947716	,	28
49,39	,	53914	,	-28503	,	-27957	,	22.785425	,	35
49,39	,	53946	,	-28502	,	-27954	,	26.540016	,	40
49,39	,	53962	,	-28511	,	-27980	,	28.106583	,	43
49,39	,	53978	,	-28517	,	-27943	,	27.49865	,	44
49,39	,	54010	,	-28509	,	-27948	,	24.918398	,	42
49,39	,	54026	,	-28521	,	-27954	,	20.846468	,	38
49,39	,	54042	,	-28502	,	-27963	,	15.96058	,	32
49,39	,	54074	,	-28507	,	-27950	,	11.039151	,	24
49,39	,	54090	,	-28512	,	-27966	,	6.730131	,	16
49,39	,	54122	,	-28509	,	-27960	,	3.3053412	,	9
49,39	,	54138	,	-28518	,	-27960	,	0.74788	,	4
49,39	,	54154	,	-28511	,	-27963	,	-1.0758762	,	1
49,39	,	54186	,	-28514	,	-27964	,	-2.291414	,	0
49,39	,	54202	,	-28516	,	-27967	,	-2.9831095	,	0
49,39	,	54218	,	-28511	,	-27938	,	-3.2485871	,	0
49,39	,	54250	,	-28537	,	-27962	,	-3.2822814	,	0
49,39	,	54266	,	-28520	,	-27979	,	-3.405633	,	0
49,39	,	54281	,	-28541	,	-27973	,	-3.8489287	,	0
49,39	,	54314	,	-28532	,	-27958	,	-4.6411133	,	0
49,39	,	54330	,	-28557	,	-27979	,	-5.7694683	,	0
49,39	,	54361	,	-28551	,	-27968	,	-7.2677827	,	0
49,39	,	54378	,	-28557	,	-27981	,	-9.089776	,	0
49,39	,	54394	,	-28557	,	-27975	,	-10.991512	,	0
49,39	,	54426	,	-28569	,	-27979	,	-12.700419	,	0
49,39	,	54441	,	-28580	,	-28006	,	-14.144663	,	0
49,39	,	54457	,	-28575	,	-27983	,	-15.392513	,	0
49,39	,	54489	,	-28583	,	-27996	,	-16.421415	,	0
49,39	,	54505	,	-28582	,	-28017	,	-17.10196	,	0
49,39	,	54537	,	-28602	,	-27988	,	-17.405857	,	0
49,39	,	54554	,	-28605	,	-27991	,	-17.528683	,	0
49,39	,	54570	,	-28600	,	-28001	,	-17.675188	,	0
49,39	,	54602	,	-28605	,	-28023	,	-17.779522	,	0
49,39	,	54618	,	-28620	,	-28008	,	-17.700283	,	0
49,39	,	54634	,	-28614	,	-28029	,	-17.473244	,	0
49,39	,	54665	,	-28599	,	-28008	,	-17.049816	,	0
49,39	,	54682	,	-28580	,	-28008	,	-16.000927	,	0
49,39	,	54698	,	-28572	,	-27975	,	-13.724808	,	1
49,39	,	54730	,	-28550	,	-27982	,	-9.84109	,	3
49,39	,	54746	,	-28577	,	-27978	,	-4.5000186	,	6
49,39	,	54777	,	-28560	,	-27984	,	1.4913726	,	11
49,39	,	54793	,	-28543	,	-27986	,	7.2204866	,	16
49,39	,	54809	,	-28547	,	-27981	,	12.254611	,	21
49,39	,	54841	,	-28551	,	-27970	,	16.349144	,	26
49,39	,	54858	,	-28552	,	-27988	,	19.131865	,	30
49,39	,	54874	,	-28549	,	-27969	,	20.329903	,	32
49,40	,	54906	,	-28554	,	-27994	,	19.95971	,	32
49,40	,	54921	,	-28570	,	-27993	,	18.177254	,	30
49,40	,	54953	,	-28559	,	-27984	,	15.159101	,	27
49,40	,	54969	,	-28561	,	-27977	,	11.291693	,	22
49,40	,	54985	,	-28558	,	-27987	,	7.193801	,	17
49,40	,	55017	,	-28552	,	-27980	,	3.4675488	,	12
49,40	,	55033	,	-28554	,	-27981	,	0.55513954	,	7
49,40	,	55049	,	-28558	,	-27976	,	-1.3628261	,	3
49,40	,	55082	,	-28553	,	-27976	,	-2.3744888	,	1
49,40	,	55097	,	-28546	,	-27983	,	-2.6220973	,	0
49,40	,	55113	,	-28556	,	-27983	,	-2.2200396	,	0
49,40	,	55145	,	-28549	,	-27982	,	-1.3824323	,	0
49,40	,	55161	,	-28566	,	-27995	,	-0.44416165	,	0
49,40	,	55193	,	-28563	,	-27974	,	0.21715152	,	0
49,40	,	55209	,	-28569	,	-27990	,	0.320845	,	0
49,40	,	55225	,	-28570	,	-27989	,	-0.19707255	,	0
49,40	,	55257	,	-28587	,	-27994	,	-1.297073	,	0
49,40	,	55273	,	-28584	,	-27991	,	-2.961554	,	0
49,40	,	55289	,	-28602	,	-28003	,	-5.1464024	,	0
49,40	,	55321	,	-28609	,	-27994	,	-7.7832656	,	0
49,40	,	55337	,	-28603	,	-28006	,	-10.72448	,	0
49,40	,	55369	,	-28612	,	-28013	,	-13.610983	,	0
49,40	,	55385	,	-28607	,	-28018	,	-16.0028	,	0
49,40	,	55401	,	-28614	,	-28021	,	-17.582245	,	0
49,40	,	55433	,	-28615	,	-28011	,	-18.225012	,	0
49,40	,	55449	,	-28629	,	-28030	,	-18.050657	,	0
49,40	,	55465	,	-28631	,	-28032	,	-17.388237	,	0
49,40	,	55497	,	-28643	,	-28032	,	-16.62427	,	0
49,40	,	55513	,	-28649	,	-28034	,	-16.07799	,	0
49,40	,	55529	,	-28637	,	-28035	,	-15.855827	,	0
49,40	,	55561	,	-28644	,	-28041	,	-15.734063	,	0
49,40	,	55577	,	-28641	,	-28020	,	-15.374961	,	0
49,40	,	55609	,	-28616	,	-28024	,	-14.465573	,	0
49,40	,	55625	,	-28594	,	-28010	,	-12.506563	,	0
49,40	,	55641	,	-28591	,	-28009	,	-8.965277	,	1
49,40	,	55673	,	-28578	,	-28010	,	-3.772668	,	4
49,40	,	55689	,	-28573	,	-27992	,	2.5995083	,	9
49,40	,	55705	,	-28555	,	-27991	,	9.466129	,	15
49,40	,	55737	,	-28566	,	-27987	,	16.12712	,	21
49,40	,	55753	,	-28564	,	-27986	,	21.814268	,	27
49,40	,	55785	,	-28554	,	-27985	,	25.846498	,	32
49,40	,	55801	,	-28558	,	-27992	,	27.953453	,	36
49,40	,	55817	,	-28568	,	-27984	,	28.160496	,	38
49,40	,	55849	,	-28554	,	-27992	,	26.6002	,	37
49,40	,	55865	,	-28555	,	-27996	,	23.673817	,	34
49,40	,	55881	,	-28548	,	-27974	,	20.03122	,	29
49,41	,	55913	,	-28548	,	-27978	,	16.297028	,	23
49,41	,	55929	,	-28535	,	-27972	,	12.965256	,	17
49,41	,	55945	,	-28544	,	-27984	,	10.373441	,	11
49,41	,	55977	,	-28539	,	-27983	,	8.587603	,	6
49,41	,	55993	,	-28556	,	-27971	,	7.3655825	,	2
49,41	,	56025	,	-28554	,	-27975	,	6.2811136	,	0
49,41	,	56041	,	-28554	,	-27969	,	4.989099	,	0
49,41	,	56057	,	-28556	,	-27984	,	3.4281251	,	0
49,41	,	56089	,	-28542	,	-27977	,	1.7970159	,	0
49,41	,	56105	,	-28564	,	-27987	,	0.35810137	,	0
49,41	,	56121	,	-28559	,	-27975	,	-0.84552383	,	0
49,41	,	56153	,	-28559	,	-27976	,	-1.9280397	,	0
49,41	,	56169	,	-28576	,	-27988	,	-2.9583046	,	0
49,41	,	56201	,	-28578	,	-27985	,	-4.076631	,	0
49,41	,	56217	,	-28578	,	-27987	,	-5.428362	,	0
49,41	,	56233	,	-28567	,	-27991	,	-6.873836	,	0
49,41	,	56265	,	-28584	,	-27990	,	-8.080829	,	0
49,41	,	56281	,	-28590	,	-27992	,	-8.933669	,	0
49,41	,	56297	,	-28597	,	-28013	,	-9.628498	,	0
49,41	,	56329	,	-28583	,	-28001	,	-10.306838	,	0
49,41	,	56345	,	-28581	,	-28011	,	-10.773861	,	0
49,41	,	56361	,	-28602	,	-27988	,	-10.78306	,	0
49,41	,	56393	,	-28599	,	-28001	,	-10.452745	,	0
49,41	,	56409	,	-28618	,	-28005	,	-10.155653	,	0
49,41	,	56441	,	-28615	,	-28013	,	-10.21974	,	0
49,41	,	56457	,	-28625	,	-28027	,	-10.783367	,	0
49,41	,	56473	,	-28641	,	-28017	,	-11.838894	,	0
49,41	,	56505	,	-28642	,	-28028	,	-13.377295	,	0
49,41	,	56521	,	-28632	,	-28012	,	-15.219866	,	0
49,41	,	56537	,	-28605	,	-28008	,	-16.714195	,	0
49,41	,	56569	,	-28600	,	-28007	,	-16.888422	,	0
49,41	,	56585	,	-28574	,	-28002	,	-14.97409	,	0
49,41	,	56616	,	-28562	,	-27967	,	-10.682931	,	1
49,41	,	56633	,	-28550	,	-27976	,	-4.2092195	,	5
49,41	,	56649	,	-28556	,	-27974	,	3.721569	,	11
49,41	,	56681	,	-28539	,	-27988	,	11.996359	,	18
49,41	,	56697	,	-28535	,	-27964	,	19.574265	,	26
49,41	,	56713	,	-28519	,	-27977	,	25.814661	,	33
49,41	,	56745	,	-28528	,	-27958	,	30.406824	,	39
49,41	,	56761	,	-28518	,	-27961	,	33.16565	,	43
49,41	,	56792	,	-28517	,	-27963	,	34.04419	,	45
49,41	,	56808	,	-28527	,	-27965	,	33.1627	,	44
49,41	,	56824	,	-28531	,	-27964	,	30.651749	,	40
49,41	,	56857	,	-28532	,	-27936	,	26.680126	,	34
49,41	,	56873	,	-28517	,	-27963	,	21.698112	,	27
49,41	,	56889	,	-28515	,	-27957	,	16.478462	,	19
49,42	,	56920	,	-28497	,	-27948	,	11.882125	,	12
49,42	,	56936	,	-28514	,	-27948	,	8.512524	,	6
49,42	,	56953	,	-28506	,	-27954	,	6.445027	,	2
49,42	,	56985	,	-28508	,	-27944	,	5.3685575	,	0
49,42	,	57001	,	-28502	,	-27941	,	4.9561596	,	0
49,42	,	57033	,	-28506	,	-27947	,	4.9603257	,	0
49,42	,	57049	,	-28510	,	-27941	,	5.122925	,	0
49,42	,	57065	,	-28514	,	-27957	,	5.1501455	,	0
49,42	,	57096	,	-28515	,	-27940	,	4.7988577	,	0
49,42	,	57113	,	-28531	,	-27966	,	3.907459	,	0
49,42	,	57129	,	-28528	,	-27974	,	2.3600726	,	0
49,42	,	57160	,	-28538	,	-27965	,	0.17434335	,	0
49,42	,	57176	,	-28530	,	-27955	,	-2.4195786	,	0
49,42	,	57208	,	-28550	,	-27968	,	-5.099188	,	0
49,42	,	57225	,	-28561	,	-27969	,	-7.72529	,	0
49,42	,	57240	,	-28550	,	-27971	,	-10.313048	,	0
49,42	,	57272	,	-28555	,	-27987	,	-12.664439	,	0
49,42	,	57288	,	-28549	,	-27967	,	-14.377669	,	0
49,42	,	57304	,	-28574	,	-27983	,	-15.247875	,	0
49,42	,	57337	,	-28567	,	-27954	,	-15.4596615	,	0
49,42	,	57353	,	-28575	,	-27972	,	-15.329075	,	0
49,42	,	57369	,	-28576	,	-27968	,	-15.028583	,	0
49,42	,	57400	,	-28580	,	-27985	,	-14.628082	,	0
49,42	,	57416	,	-28592	,	-27973	,	-14.20825	,	0
49,42	,	57448	,	-28590	,	-27989	,	-13.887903	,	0
49,42	,	57465	,	-28599	,	-27987	,	-13.7409315	,	0
49,42	,	57481	,	-28591	,	-27967	,	-13.709378	,	0
49,42	,	57512	,	-28567	,	-27972	,	-13.478506	,	0
49,42	,	57528	,	-28542	,	-27966	,	-12.349313	,	0
49,42	,	57544	,	-28531	,	-27996	,	-9.52674	,	1
49,42	,	57576	,	-28514	,	-27945	,	-4.649469	,	3
49,42	,	57592	,	-28502	,	-27950	,	2.049214	,	7
49,42	,	57625	,	-28494	,	-27948	,	9.910491	,	13
49,42	,	57640	,	-28486	,	-27932	,	18.041409	,	20
49,42	,	57656	,	-28477	,	-27938	,	25.53743	,	28
49,42	,	57688	,	-28477	,	-27942	,	31.665823	,	35
49,42	,	57704	,	-28487	,	-27929	,	35.838913	,	41
49,42	,	57720	,	-28475	,	-27937	,	37.632366	,	45
49,42	,	57752	,	-28470	,	-27936	,	37.06002	,	45
49,42	,	57768	,	-28473	,	-27938	,	34.599426	,	43
49,42	,	57784	,	-28468	,	-27939	,	30.851189	,	39
49,42	,	57816	,	-28468	,	-27912	,	26.370832	,	33
49,42	,	57832	,	-28456	,	-27922	,	21.715988	,	26
49,42	,	57865	,	-28457	,	-27921	,	17.437027	,	18
49,42	,	57880	,	-28468	,	-27914	,	13.862157	,	11
49,42	,	57896	,	-28454	,	-27914	,	10.983242	,	5
49,43	,	57928	,	-28467	,	-27922	,	8.679661	,	1
49,43	,	57944	,	-28464	,	-27919	,	6.816485	,	0
49,43	,	57976	,	-28464	,	-27923	,	5.2318687	,	0
49,43	,	57992	,	-28472	,	-27925	,	3.8068385	,	0
49,43	,	58008	,	-28472	,	-27909	,	2.4302733	,	0
49,43	,	58040	,	-28477	,	-27929	,	1.0030103	,	0
49,43	,	58056	,	-28480	,	-27911	,	-0.51071596	,	0
49,43	,	58072	,	-28482	,	-27925	,	-2.0925522	,	0
49,43	,	58104	,	-28490	,	-27919	,	-3.69042	,	0
49,43	,	58120	,	-28495	,	-27916	,	-5.278323	,	0
49,43	,	58136	,	-28503	,	-27940	,	-6.885744	,	0
49,43	,	58168	,	-28503	,	-27929	,	-8.52859	,	0
49,43	,	58184	,	-28495	,	-27930	,	-10.064098	,	0
49,43	,	58216	,	-28505	,	-27947	,	-11.196205	,	0
49,43	,	58232	,	-28507	,	-27943	,	-11.753735	,	0
49,43	,	58248	,	-28505	,	-27948	,	-11.785979	,	0
49,43	,	58280	,	-28512	,	-27928	,	-11.400455	,	0
49,43	,	58296	,	-28518	,	-27952	,	-10.761345	,	0
49,43	,	58312	,	-28528	,	-27952	,	-10.149017	,	0
49,43	,	58344	,	-28534	,	-27951	,	-9.87071	,	0
49,43	,	58360	,	-28546	,	-27956	,	-10.149689	,	0
49,43	,	58392	,	-28538	,	-27961	,	-11.0172825	,	0
49,43	,	58408	,	-28545	,	-27952	,	-12.225325	,	0
49,43	,	58424	,	-28539	,	-27946	,	-13.359545	,	0
49,43	,	58456	,	-28523	,	-27952	,	-13.956743	,	0
49,43	,	58472	,	-28513	,	-27929	,	-13.492681	,	0
49,43	,	58488	,	-28487	,	-27931	,	-11.47213	,	0
49,43	,	58520	,	-28484	,	-27932	,	-7.615037	,	2
49,43	,	58536	,	-28464	,	-27912	,	-2.0288677	,	5
49,43	,	58552	,	-28450	,	-27919	,	4.8463974	,	10
49,43	,	58584	,	-28449	,	-27899	,	12.39626	,	16
49,43	,	58600	,	-28444	,	-27910	,	19.810293	,	23
49,43	,	58632	,	-28449	,	-27911	,	26.155815	,	30
49,43	,	58648	,	-28450	,	-27914	,	30.608463	,	36
49,43	,	58664	,	-28451	,	-27910	,	32.658283	,	40
49,43	,	58696	,	-28446	,	-27914	,	32.25916	,	42
49,43	,	58712	,	-28435	,	-27913	,	29.86037	,	40
49,43	,	58728	,	-28450	,	-27912	,	26.175505	,	37
49,43	,	58760	,	-28439	,	-27907	,	21.820408	,	32
49,43	,	58776	,	-28434	,	-27911	,	17.308155	,	26
49,43	,	58808	,	-28413	,	-27905	,	13.269406	,	19
49,43	,	58824	,	-28424	,	-27903	,	10.315244	,	12
49,43	,	58840	,	-28425	,	-27899	,	8.615253	,	6
49,43	,	58872	,	-28423	,	-27909	,	7.8401504	,	2
49,43	,	58888	,	-28423	,	-27912	,	7.545319	,	0
49,44	,	58904	,	-28434	,	-27910	,	7.3561053	,	0
49,44	,	58936	,	-28440	,	-27912	,	6.884915	,	0
49,44	,	58952	,	-28438	,	-27921	,	5.823656	,	0
49,44	,	58984	,	-28452	,	-27904	,	4.088108	,	0
49,44	,	59000	,	-28444	,	-27912	,	1.7789876	,	0
49,44	,	59016	,	-28451	,	-27908	,	-0.841635	,	0
49,44	,	59047	,	-28468	,	-27899	,	-3.5057154	,	0
49,44	,	59064	,	-28458	,	-27926	,	-6.1110625	,	0
49,44	,	59080	,	-28467	,	-27912	,	-8.526601	,	0
49,44	,	59112	,	-28463	,	-27917	,	-10.50486	,	0
49,44	,	59128	,	-28471	,	-27931	,	-11.866472	,	0
49,44	,	59144	,	-28471	,	-27924	,	-12.586922	,	0
49,44	,	59176	,	-28467	,	-27928	,	-12.713785	,	0
49,44	,	59192	,	-28478	,	-27943	,	-12.300587	,	0
49,44	,	59223	,	-28484	,	-27923	,	-11.533012	,	0
49,44	,	59239	,	-28492	,	-27925	,	-10.762546	,	0
49,44	,	59255	,	-28499	,	-27925	,	-10.326984	,	0
49,44	,	59288	,	-28468	,	-27924	,	-10.24902	,	0
49,44	,	59304	,	-28466	,	-27928	,	-10.010902	,	0
49,44	,	59320	,	-28451	,	-27912	,	-8.892979	,	0
49,44	,	59352	,	-28427	,	-27906	,	-6.4047565	,	1
49,44	,	59368	,	-28426	,	-27896	,	-2.3439198	,	3
49,44	,	59399	,	-28417	,	-27891	,	3.0660787	,	7
49,44	,	59415	,	-28402	,	-27892	,	9.210697	,	12
49,44	,	59431	,	-28395	,	-27899	,	15.450071	,	18
49,44	,	59464	,	-28402	,	-27873	,	21.191679	,	24
49,44	,	59480	,	-28407	,	-27875	,	25.724361	,	29
49,44	,	59496	,	-28395	,	-27878	,	28.412983	,	33
49,44	,	59527	,	-28401	,	-27881	,	29.070145	,	35
49,44	,	59543	,	-28408	,	-27879	,	27.862782	,	34
49,44	,	59559	,	-28410	,	-27878	,	25.02724	,	32
49,44	,	59591	,	-28392	,	-27883	,	20.980251	,	28
49,44	,	59607	,	-28401	,	-27890	,	16.431358	,	23
49,44	,	59640	,	-28385	,	-27872	,	12.119644	,	17
49,44	,	59656	,	-28394	,	-27878	,	8.569626	,	11
49,44	,	59672	,	-28385	,	-27884	,	6.019676	,	6
49,44	,	59703	,	-28386	,	-27864	,	4.4651117	,	2
49,44	,	59719	,	-28392	,	-27877	,	3.7350445	,	0
49,44	,	59735	,	-28404	,	-27875	,	3.4474158	,	0
49,44	,	59767	,	-28397	,	-27865	,	3.12111	,	0
49,44	,	59784	,	-28389	,	-27880	,	2.5406892	,	0
49,44	,	59816	,	-28391	,	-27876	,	1.858512	,	0
49,44	,	59832	,	-28405	,	-27875	,	1.2281868	,	0
49,44	,	59847	,	-28400	,	-27894	,	0.5604572	,	0
49,44	,	59879	,	-28411	,	-27888	,	-0.29306144	,	0
49,44	,	59895	,	-28412	,	-27892	,	-1.4030447	,	0
49,45	,	59911	,	-28418	,	-27909	,	-2.7854955	,	0
49,45	,	59943	,	-28418	,	-27876	,	-4.3750763	,	0
49,45	,	59959	,	-28431	,	-27897	,	-6.0627604	,	0
49,45	,	59976	,	-28427	,	-27900	,	-7.7678795	,	0
49,45	,	60008	,	-28441	,	-27891	,	-9.418321	,	0
49,45	,	60023	,	-28451	,	-27907	,	-11.008948	,	0
49,45	,	60055	,	-28449	,	-27908	,	-12.610993	,	0
49,45	,	60071	,	-28455	,	-27912	,	-14.180978	,	0
49,45	,	60087	,	-28470	,	-27922	,	-15.597458	,	0
49,45	,	60120	,	-28472	,	-27907	,	-16.862698	,	0
49,45	,	60135	,	-28474	,	-27925	,	-17.999733	,	0
49,45	,	60151	,	-28486	,	-27942	,	-18.937847	,	0
49,45	,	60183	,	-28475	,	-27900	,	-19.57182	,	0
49,45	,	60199	,	-28451	,	-27904	,	-19.586586	,	0
49,45	,	60231	,	-28428	,	-27886	,	-18.282726	,	0
49,45	,	60247	,	-28417	,	-27871	,	-14.937666	,	1
49,45	,	60263	,	-28384	,	-27886	,	-9.253556	,	4
49,45	,	60295	,	-28389	,	-27881	,	-1.4521112	,	9
49,45	,	60311	,	-28382	,	-27889	,	7.6608424	,	16
49,45	,	60327	,	-28371	,	-27883	,	16.863909	,	25
49,45	,	60359	,	-28371	,	-27870	,	25.022654	,	34
49,45	,	60375	,	-28365	,	-27868	,	31.331274	,	42
49,45	,	60391	,	-28362	,	-27882	,	35.334377	,	48
49,45	,	60423	,	-28364	,	-27835	,	36.92894	,	52
49,45	,	60439	,	-28368	,	-27878	,	36.23964	,	52
49,45	,	60471	,	-28357	,	-27867	,	33.576904	,	49
49,45	,	60487	,	-28355	,	-27866	,	29.528309	,	44
49,45	,	60503	,	-28358	,	-27871	,	24.81979	,	37
49,45	,	60535	,	-28350	,	-27877	,	20.051552	,	28
49,45	,	60551	,	-28356	,	-27872	,	15.643824	,	19
49,45	,	60567	,	-28334	,	-27861	,	11.92503	,	11
49,45	,	60599	,	-28356	,	-27867	,	9.132137	,	5
49,45	,	60615	,	-28343	,	-27868	,	7.239302	,	1
49,45	,	60647	,	-28344	,	-27891	,	6.0255585	,	0
49,45	,	60663	,	-28344	,	-27858	,	5.3101788	,	0
49,45	,	60679	,	-28345	,	-27872	,	4.9177074	,	0
49,45	,	60711	,	-28348	,	-27876	,	4.636705	,	0
49,45	,	60727	,	-28349	,	-27883	,	4.287144	,	0
49,45	,	60743	,	-28360	,	-27888	,	3.7098563	,	0
49,45	,	60775	,	-28369	,	-27889	,	2.7023764	,	0
49,45	,	60791	,	-28361	,	-27885	,	1.1287949	,	0
49,45	,	60807	,	-28362	,	-27888	,	-0.8463267	,	0
49,45	,	60839	,	-28364	,	-27885	,	-2.8366122	,	0
49,45	,	60855	,	-28373	,	-27900	,	-4.558758	,	0
49,45	,	60887	,	-28371	,	-27916	,	-5.94857	,	0
49,46	,	60903	,	-28379	,	-27877	,	-7.0404596	,	0
49,46	,	60919	,	-28387	,	-27894	,	-7.9203362	,	0
49,46	,	60951	,	-28390	,	-27912	,	-8.737802	,	0
49,46	,	60967	,	-28394	,	-27907	,	-9.600496	,	0
49,46	,	60983	,	-28392	,	-27901	,	-10.479694	,	0
49,46	,	61015	,	-28398	,	-27907	,	-11.24456	,	0
49,46	,	61031	,	-28404	,	-27922	,	-11.796862	,	0
49,46	,	61063	,	-28408	,	-27916	,	-12.160112	,	0
49,46	,	61079	,	-28402	,	-27904	,	-12.360588	,	0
49,46	,	61095	,	-28375	,	-27891	,	-12.159806	,	0
49,46	,	61127	,	-28361	,	-27887	,	-10.958524	,	0
49,46	,	61143	,	-28345	,	-27859	,	-8.139055	,	1
49,46	,	61159	,	-28323	,	-27865	,	-3.442574	,	3
49,46	,	61191	,	-28303	,	-27868	,	3.0361242	,	7
49,46	,	61207	,	-28305	,	-27857	,	10.856501	,	13
49,46	,	61223	,	-28297	,	-27859	,	19.130604	,	20
49,46	,	61255	,	-28284	,	-27851	,	26.79883	,	28
49,46	,	61271	,	-28283	,	-27849	,	33.06265	,	35
49,46	,	61303	,	-28275	,	-27848	,	37.45346	,	41
49,46	,	61319	,	-28266	,	-27833	,	39.79868	,	45
49,46	,	61335	,	-28274	,	-27844	,	40.186485	,	46
49,46	,	61367	,	-28280	,	-27847	,	38.73366	,	44
49,46	,	61383	,	-28270	,	-27813	,	35.562786	,	40
49,46	,	61399	,	-28269	,	-27818	,	31.070156	,	34
49,46	,	61431	,	-28261	,	-27831	,	25.93115	,	27
49,46	,	61447	,	-28266	,	-27824	,	20.816711	,	19
49,46	,	61479	,	-28256	,	-27819	,	16.202564	,	12
49,46	,	61495	,	-28260	,	-27822	,	12.372776	,	6
49,46	,	61511	,	-28263	,	-27825	,	9.406866	,	2
49,46	,	61543	,	-28270	,	-27817	,	7.127605	,	0
49,46	,	61559	,	-28271	,	-27812	,	5.223975	,	0
49,46	,	61575	,	-28275	,	-27817	,	3.4498758	,	0
49,46	,	61607	,	-28285	,	-27841	,	1.6526325	,	0
49,46	,	61623	,	-28290	,	-27804	,	-0.304986	,	0
49,46	,	61638	,	-28284	,	-27835	,	-2.4599562	,	0
49,46	,	61671	,	-28305	,	-27835	,	-4.698742	,	0
49,46	,	61687	,	-28316	,	-27834	,	-7.0158973	,	0
49,46	,	61719	,	-28302	,	-27829	,	-9.477197	,	0
49,46	,	61735	,	-28315	,	-27825	,	-11.871037	,	0
49,46	,	61751	,	-28314	,	-27835	,	-13.847815	,	0
49,46	,	61783	,	-28325	,	-27860	,	-15.243349	,	0
49,46	,	61798	,	-28330	,	-27851	,	-16.104362	,	0
49,46	,	61814	,	-28331	,	-27852	,	-16.573135	,	0
49,46	,	61847	,	-28338	,	-27880	,	-16.750467	,	0
49,46	,	61863	,	-28343	,	-27853	,	-16.700743	,	0
49,46	,	61895	,	-28364	,	-27861	,	-16.592617	,	0
49,47	,	61911	,	-28361	,	-27872	,	-16.700504	,	0
49,47	,	61927	,	-28363	,	-27880	,	-17.13359	,	0
49,47	,	61959	,	-28350	,	-27872	,	-17.624847	,	0
49,47	,	61975	,	-28334	,	-27860	,	-17.594877	,	0
49,47	,	61991	,	-28329	,	-27850	,	-16.390614	,	0
49,47	,	62022	,	-28315	,	-27851	,	-13.61959	,	1
49,47	,	62038	,	-28304	,	-27840	,	-9.275246	,	3
49,47	,	62070	,	-28298	,	-27844	,	-3.645907	,	7
49,47	,	62087	,	-28300	,	-27851	,	2.6926332	,	12
49,47	,	62103	,	-28279	,	-27832	,	9.012167	,	18
49,47	,	62134	,	-28280	,	-27832	,	14.753557	,	24
49,47	,	62151	,	-28287	,	-27838	,	19.502066	,	29
49,47	,	62166	,	-28277	,	-27832	,	22.829147	,	33
49,47	,	62198	,	-28285	,	-27830	,	24.467625	,	36
49,47	,	62214	,	-28277	,	-27837	,	24.434101	,	36
49,47	,	62230	,	-28282	,	-27836	,	22.962624	,	34
49,47	,	62262	,	-28276	,	-27832	,	20.429934	,	30
49,47	,	62279	,	-28280	,	-27828	,	17.26183	,	25
49,47	,	62311	,	-28280	,	-27824	,	13.8351	,	19
49,47	,	62326	,	-28275	,	-27835	,	10.450919	,	13
49,47	,	62342	,	-28278	,	-27821	,	7.375655	,	8
49,47	,	62374	,	-28272	,	-27817	,	4.819243	,	4
49,47	,	62390	,	-28271	,	-27827	,	2.9171424	,	1
49,47	,	62406	,	-28272	,	-27824	,	1.7202628	,	0
49,47	,	62438	,	-28285	,	-27833	,	1.0848458	,	0
49,47	,	62454	,	-28293	,	-27832	,	0.62323964	,	0
49,47	,	62486	,	-28297	,	-27839	,	-0.11257255	,	0
49,47	,	62502	,	-28304	,	-27845	,	-1.3842243	,	0
49,47	,	62518	,	-28303	,	-27841	,	-3.1931572	,	0
49,47	,	62550	,	-28308	,	-27844	,	-5.3315887	,	0
49,47	,	62567	,	-28316	,	-27855	,	-7.5284777	,	0
49,47	,	62582	,	-28315	,	-27854	,	-9.586279	,	0
49,47	,	62614	,	-28320	,	-27861	,	-11.345152	,	0
49,47	,	62630	,	-28327	,	-27863	,	-12.684173	,	0
49,47	,	62646	,	-28339	,	-27862	,	-13.647785	,	0
49,47	,	62678	,	-28342	,	-27862	,	-14.435534	,	0
49,47	,	62694	,	-28352	,	-27877	,	-15.233421	,	0
49,47	,	62726	,	-28358	,	-27863	,	-16.130007	,	0
49,47	,	62742	,	-28359	,	-27874	,	-17.109808	,	0
49,47	,	62758	,	-28350	,	-27881	,	-17.965242	,	0
49,47	,	62790	,	-28358	,	-27866	,	-18.331808	,	0
49,47	,	62806	,	-28344	,	-27875	,	-17.90727	,	0
49,47	,	62822	,	-28329	,	-27852	,	-16.455284	,	0
49,47	,	62854	,	-28305	,	-27852	,	-13.652289	,	1
49,47	,	62870	,	-28305	,	-27844	,	-9.243729	,	3
49,48	,	62902	,	-28305	,	-27837	,	-3.4479399	,	7
49,48	,	62918	,	-28298	,	-27845	,	2.9869084	,	12
49,48	,	62934	,	-28284	,	-27842	,	9.250566	,	18
49,48	,	62966	,	-28284	,	-27840	,	14.8178215	,	24
49,48	,	62982	,	-28296	,	-27842	,	19.265554	,	29
49,48	,	62998	,	-28285	,	-27833	,	22.133442	,	33
49,48	,	63030	,	-28290	,	-27848	,	23.195122	,	35
49,48	,	63046	,	-28298	,	-27848	,	22.533527	,	35
49,48	,	63062	,	-28305	,	-27840	,	20.308867	,	33
49,48	,	63094	,	-28301	,	-27838	,	16.766867	,	29
49,48	,	63110	,	-28289	,	-27839	,	12.442382	,	24
49,48	,	63142	,	-28292	,	-27834	,	8.110122	,	18
49,48	,	63158	,	-28288	,	-27840	,	4.4327097	,	12
49,48	,	63174	,	-28288	,	-27842	,	1.7472901	,	7
49,48	,	63206	,	-28306	,	-27839	,	0.034136534	,	3
49,48	,	63222	,	-28306	,	-27839	,	-1.0784917	,	1
49,48	,	63238	,	-28313	,	-27844	,	-2.0596156	,	0
49,48	,	63270	,	-28318	,	-27842	,	-3.2016919	,	0
49,48	,	63286	,	-28314	,	-27831	,	-4.5688753	,	0
49,48	,	63318	,	-28320	,	-27843	,	-6.0226927	,	0
49,48	,	63334	,	-28343	,	-27851	,	-7.46624	,	0
49,48	,	63350	,	-28346	,	-27853	,	-9.077132	,	0
49,48	,	63382	,	-28356	,	-27849	,	-11.076177	,	0
49,48	,	63398	,	-28370	,	-27857	,	-13.488469	,	0
49,48	,	63414	,	-28381	,	-27874	,	-16.254826	,	0
49,48	,	63446	,	-28380	,	-27870	,	-19.24501	,	0
49,48	,	63462	,	-28393	,	-27872	,	-22.158669	,	0
49,48	,	63478	,	-28404	,	-27878	,	-24.696417	,	0
49,48	,	63510	,	-28414	,	-27872	,	-26.760456	,	0
49,48	,	63526	,	-28429	,	-27862	,	-28.412418	,	0
49,48	,	63558	,	-28438	,	-27888	,	-29.783247	,	0
49,48	,	63574	,	-28443	,	-27866	,	-30.961227	,	0
49,48	,	63590	,	-28433	,	-27877	,	-31.800898	,	0
49,48	,	63622	,	-28424	,	-27860	,	-31.843296	,	0
49,48	,	63638	,	-28414	,	-27857	,	-30.509748	,	0
49,48	,	63654	,	-28388	,	-27850	,	-27.330776	,	1
49,48	,	63686	,	-28398	,	-27850	,	-22.12547	,	4
49,48	,	63702	,	-28402	,	-27866	,	-15.333855	,	9
49,48	,	63734	,	-28393	,	-27850	,	-7.9671316	,	15
49,48	,	63750	,	-28397	,	-27870	,	-1.0263166	,	22
49,48	,	63766	,	-28416	,	-27845	,	4.698411	,	28
49,48	,	63798	,	-28392	,	-27848	,	8.620509	,	33
49,48	,	63814	,	-28397	,	-27847	,	10.678695	,	36
49,48	,	63830	,	-28400	,	-27848	,	11.258434	,	38
49,48	,	63862	,	-28385	,	-27847	,	10.800326	,	37
49,48	,	63877	,	-28390	,	-27850	,	9.771734	,	34
49,48	,	63893	,	-28388	,	-27853	,	8.585712	,	29
49,49	,	63926	,	-28384	,	-27842	,	7.462029	,	23
49,49	,	63942	,	-28382	,	-27840	,	6.5299673	,	16
49,49	,	63974	,	-28376	,	-27840	,	5.8987603	,	10
49,49	,	63990	,	-28388	,	-27845	,	5.574634	,	5
49,49	,	64006	,	-28387	,	-27824	,	5.369785	,	2
49,49	,	64038	,	-28390	,	-27837	,	5.015754	,	0
49,49	,	64053	,	-28403	,	-27840	,	4.2975597	,	0
49,49	,	64070	,	-28393	,	-27829	,	3.079339	,	0
49,49	,	64102	,	-28407	,	-27836	,	1.3999641	,	0
49,49	,	64118	,	-28397	,	-27840	,	-0.53724504	,	0
49,49	,	64150	,	-28408	,	-27839	,	-2.4834974	,	0
49,49	,	64166	,	-28423	,	-27854	,	-4.3189964	,	0
49,49	,	64182	,	-28405	,	-27858	,	-6.07485	,	0
49,49	,	64213	,	-28417	,	-27851	,	-7.647257	,	0
49,49	,	64230	,	-28429	,	-27873	,	-8.885312	,	0
49,49	,	64246	,	-28424	,	-27847	,	-9.85435	,	0
49,49	,	64278	,	-28432	,	-27867	,	-10.64962	,	0
49,49	,	64294	,	-28446	,	-27875	,	-11.33172	,	0
49,49	,	64310	,	-28440	,	-27868	,	-12.022802	,	0
49,49	,	64342	,	-28434	,	-27864	,	-12.680588	,	0
49,49	,	64357	,	-28435	,	-27867	,	-12.999683	,	0
49,49	,	64390	,	-28412	,	-27855	,	-12.598781	,	0
49,49	,	64406	,	-28403	,	-27849	,	-11.072091	,	0
49,49	,	64422	,	-28402	,	-27841	,	-8.157064	,	1
49,49	,	64454	,	-28391	,	-27840	,	-4.009697	,	3
49,49	,	64470	,	-28390	,	-27851	,	0.8885889	,	7
49,49	,	64485	,	-28390	,	-27824	,	5.933292	,	11
49,49	,	64517	,	-28386	,	-27836	,	10.4947405	,	16
49,49	,	64533	,	-28389	,	-27830	,	14.057905	,	20
49,49	,	64566	,	-28388	,	-27837	,	16.301989	,	23
49,49	,	64581	,	-28387	,	-27841	,	17.124283	,	25
49,49	,	64598	,	-28386	,	-27832	,	16.653751	,	25
49,49	,	64630	,	-28383	,	-27836	,	15.192135	,	24
49,49	,	64646	,	-28379	,	-27822	,	13.138775	,	22
49,49	,	64661	,	-28383	,	-27827	,	10.888943	,	18
49,49	,	64693	,	-28368	,	-27830	,	8.768242	,	14
49,49	,	64709	,	-28383	,	-27840	,	7.024068	,	9
49,49	,	64725	,	-28378	,	-27806	,	5.703905	,	5
49,49	,	64758	,	-28383	,	-27825	,	4.651552	,	2
49,49	,	64774	,	-28378	,	-27828	,	3.718389	,	0
49,49	,	64805	,	-28386	,	-27831	,	2.8344002	,	0
49,49	,	64821	,	-28390	,	-27835	,	1.9150269	,	0
49,49	,	64837	,	-28393	,	-27834	,	0.8429829	,	0
49,49	,	64869	,	-28395	,	-27834	,	-0.43540788	,	0
49,49	,	64885	,	-28396	,	-27842	,	-1.8595192	,	0
49,50	,	64901	,	-28409	,	-27840	,	-3.3447845	,	0
49,50	,	64933	,	-28404	,	-27830	,	-4.8648405	,	0
49,50	,	64950	,	-28422	,	-27850	,	-6.4248104	,	0
49,50	,	64981	,	-28399	,	-27816	,	-7.960021	,	0
49,50	,	64997	,	-28422	,	-27840	,	-9.267611	,	0
49,50	,	65013	,	-28427	,	-27844	,	-10.244408	,	0
49,50	,	65045	,	-28426	,	-27841	,	-11.025488	,	0
49,50	,	65061	,	-28418	,	-27852	,	-11.6419935	,	0
49,50	,	65077	,	-28419	,	-27841	,	-11.871637	,	0
49,50	,	65109	,	-28405	,	-27830	,	-11.432308	,	0
49,50	,	65125	,	-28400	,	-27822	,	-10.085638	,	0
49,50	,	65141	,	-28379	,	-27821	,	-7.643375	,	1
49,50	,	65173	,	-28372	,	-27825	,	-3.9973927	,	3
49,50	,	65189	,	-28374	,	-27829	,	0.70448685	,	6
49,50	,	65221	,	-28382	,	-27797	,	5.8525934	,	10
49,50	,	65237	,	-28372	,	-27802	,	10.57098	,	15
49,50	,	65253	,	-28370	,	-27807	,	14.218476	,	19
49,50	,	65285	,	-28380	,	-27806	,	16.519691	,	22
49,50	,	65301	,	-28379	,	-27807	,	17.339115	,	24
49,50	,	65317	,	-28373	,	-27816	,	16.706264	,	24
49,50	,	65349	,	-28375	,	-27799	,	14.939213	,	23
49,50	,	65366	,	-28373	,	-27798	,	12.491946	,	21
49,50	,	65397	,	-28367	,	-27797	,	9.812038	,	18
49,50	,	65413	,	-28364	,	-27797	,	7.333745	,	14
49,50	,	65429	,	-28363	,	-27814	,	5.394574	,	9
49,50	,	65461	,	-28366	,	-27778	,	4.114818	,	5
49,50	,	65477	,	-28363	,	-27796	,	3.4044151	,	2
49,50	,	65493	,	-28376	,	-27787	,	3.035487	,	0
49,50	,	65525	,	-28384	,	-27795	,	2.6485038	,	0
49,50	,	65541	,	-28366	,	-27786	,	1.9460566	,	0
49,50	,	65557	,	-28376	,	-27802	,	0.9860084	,	0
49,50	,	65589	,	-28373	,	-27802	,	0.016557813	,	0
49,50	,	65605	,	-28378	,	-27794	,	-0.8308301	,	0
49,50	,	65637	,	-28387	,	-27788	,	-1.585085	,	0
49,50	,	65653	,	-28386	,	-27803	,	-2.3762755	,	0
49,50	,	65669	,	-28390	,	-27820	,	-3.290792	,	0
49,50	,	65701	,	-28397	,	-27794	,	-4.322016	,	0
49,50	,	65717	,	-28408	,	-27819	,	-5.5020294	,	0
49,50	,	65733	,	-28406	,	-27817	,	-6.9027057	,	0
49,50	,	65765	,	-28422	,	-27821	,	-8.527213	,	0
49,50	,	65781	,	-28424	,	-27820	,	-10.341768	,	0
49,50	,	65813	,	-28417	,	-27836	,	-12.226652	,	0
49,50	,	65829	,	-28426	,	-27826	,	-13.875299	,	0
49,50	,	65845	,	-28416	,	-27822	,	-14.951868	,	0
49,50	,	65877	,	-28420	,	-27811	,	-15.227462	,	0
49,50	,	65893	,	-28392	,	-27804	,	-14.484949	,	0
49,51	,	65909	,	-28383	,	-27814	,	-12.409629	,	0
49,51	,	65941	,	-28367	,	-27776	,	-8.734462	,	2
49,51	,	65957	,	-28359	,	-27788	,	-3.508842	,	5
49,51	,	65973	,	-28362	,	-27785	,	2.794334	,	10
49,51	,	66005	,	-28353	,	-27777	,	9.3582115	,	16
49,51	,	66021	,	-28357	,	-27784	,	15.298452	,	22
49,51	,	66053	,	-28346	,	-27782	,	19.949171	,	27
49,51	,	66069	,	-28361	,	-27780	,	22.929676	,	31
49,51	,	66085	,	-28358	,	-27782	,	24.034603	,	33
49,51	,	66117	,	-28371	,	-27787	,	23.187172	,	34
49,51	,	66133	,	-28364	,	-27787	,	20.544445	,	32
49,51	,	66149	,	-28367	,	-27804	,	16.575314	,	29
49,51	,	66181	,	-28362	,	-27758	,	11.970003	,	24
49,51	,	66197	,	-28361	,	-27787	,	7.4322853	,	18
49,51	,	66229	,	-28355	,	-27808	,	3.5378923	,	12
49,51	,	66245	,	-28351	,	-27776	,	0.69359875	,	7
49,51	,	66261	,	-28353	,	-27782	,	-0.91514826	,	3
49,51	,	66293	,	-28351	,	-27788	,	-1.3771167	,	1
49,51	,	66308	,	-28357	,	-27781	,	-1.0041714	,	0
49,51	,	66325	,	-28365	,	-27790	,	-0.2503823	,	0
49,51	,	66357	,	-28386	,	-27796	,	0.29253757	,	0
49,51	,	66373	,	-28364	,	-27785	,	0.11295682	,	0
49,51	,	66389	,	-28379	,	-27808	,	-0.8400029	,	0
49,51	,	66421	,	-28379	,	-27769	,	-2.2815926	,	0
49,51	,	66437	,	-28386	,	-27797	,	-3.972933	,	0
49,51	,	66469	,	-28402	,	-27795	,	-5.82248	,	0
49,51	,	66485	,	-28387	,	-27800	,	-7.787772	,	0
49,51	,	66501	,	-28386	,	-27805	,	-9.605686	,	0
49,51	,	66532	,	-28405	,	-27799	,	-10.901778	,	0
49,51	,	66549	,	-28400	,	-27805	,	-11.625377	,	0
49,51	,	66565	,	-28404	,	-27802	,	-11.942818	,	0
49,51	,	66597	,	-28411	,	-27806	,	-11.974825	,	0
49,51	,	66613	,	-28421	,	-27803	,	-11.885151	,	0
49,51	,	66644	,	-28414	,	-27818	,	-11.851715	,	0
49,51	,	66660	,	-28420	,	-27790	,	-11.872976	,	0
49,51	,	66676	,	-28391	,	-27786	,	-11.684048	,	0
49,51	,	66709	,	-28370	,	-27773	,	-10.690238	,	0
49,51	,	66725	,	-28365	,	-27774	,	-8.195556	,	0
49,51	,	66741	,	-28370	,	-27766	,	-4.029024	,	2
49,51	,	66773	,	-28362	,	-27757	,	1.2397285	,	6
49,51	,	66789	,	-28350	,	-27759	,	6.7926116	,	11
49,51	,	66820	,	-28343	,	-27763	,	12.041004	,	16
49,51	,	66836	,	-28351	,	-27754	,	16.578585	,	21
49,51	,	66852	,	-28341	,	-27758	,	20.004333	,	25
49,51	,	66885	,	-28335	,	-27775	,	22.086224	,	28
49,52	,	66901	,	-28346	,	-27745	,	22.84425	,	30
49,52	,	66917	,	-28351	,	-27751	,	22.29263	,	30
49,52	,	66949	,	-28341	,	-27749	,	20.452286	,	28
49,52	,	66965	,	-28338	,	-27748	,	17.64898	,	24
49,52	,	66980	,	-28336	,	-27738	,	14.458113	,	19
49,52	,	67012	,	-28345	,	-27737	,	11.345035	,	14
49,52	,	67029	,	-28340	,	-27737	,	8.503449	,	9
49,52	,	67060	,	-28345	,	-27733	,	5.9828258	,	5
49,52	,	67076	,	-28345	,	-27742	,	3.8010783	,	2
49,52	,	67093	,	-28335	,	-27746	,	2.003236	,	0
49,52	,	67125	,	-28337	,	-27756	,	0.71882486	,	0
49,52	,	67140	,	-28338	,	-27743	,	0.031488895	,	0
49,52	,	67156	,	-28360	,	-27758	,	-0.2539754	,	0
49,52	,	67188	,	-28360	,	-27750	,	-0.61465144	,	0
49,52	,	67204	,	-28369	,	-27753	,	-1.4947985	,	0
49,52	,	67236	,	-28372	,	-27756	,	-3.047509	,	0
49,52	,	67252	,	-28374	,	-27760	,	-5.149677	,	0
49,52	,	67269	,	-28381	,	-27768	,	-7.517356	,	0
49,52	,	67301	,	-28378	,	-27768	,	-9.826959	,	0
49,52	,	67316	,	-28384	,	-27767	,	-11.77815	,	0
49,52	,	67332	,	-28385	,	-27767	,	-13.154022	,	0
49,52	,	67365	,	-28398	,	-27771	,	-13.9282875	,	0
49,52	,	67380	,	-28393	,	-27758	,	-14.243622	,	0
49,52	,	67396	,	-28400	,	-27775	,	-14.237656	,	0
49,52	,	67428	,	-28407	,	-27763	,	-14.009567	,	0
49,52	,	67444	,	-28388	,	-27759	,	-13.605696	,	0
49,52	,	67476	,	-28378	,	-27756	,	-12.794365	,	0
49,52	,	67492	,	-28366	,	-27744	,	-11.108835	,	0
49,52	,	67508	,	-28348	,	-27737	,	-8.174414	,	1
49,52	,	67540	,	-28332	,	-27736	,	-3.8275905	,	3
49,52	,	67556	,	-28332	,	-27732	,	1.8076115	,	7
49,52	,	67573	,	-28311	,	-27729	,	8.256207	,	12
49,52	,	67604	,	-28318	,	-27727	,	14.856042	,	18
49,52	,	67620	,	-28314	,	-27708	,	20.86118	,	24
49,52	,	67652	,	-28300	,	-27707	,	25.59227	,	30
49,52	,	67668	,	-28312	,	-27715	,	28.679573	,	34
49,52	,	67684	,	-28321	,	-27708	,	29.904331	,	37
49,52	,	67716	,	-28323	,	-27710	,	29.05309	,	37
49,52	,	67732	,	-28299	,	-27707	,	26.294228	,	35
49,52	,	67748	,	-28313	,	-27711	,	22.34959	,	31
49,52	,	67780	,	-28297	,	-27712	,	18.054792	,	26
49,52	,	67796	,	-28298	,	-27704	,	14.056652	,	20
49,52	,	67812	,	-28293	,	-27702	,	10.813149	,	14
49,52	,	67844	,	-28285	,	-27698	,	8.564822	,	8
49,52	,	67860	,	-28296	,	-27694	,	7.3106203	,	4
49,52	,	67892	,	-28300	,	-27706	,	6.7421703	,	1
49,53	,	67908	,	-28307	,	-27698	,	6.33179	,	0
49,53	,	67924	,	-28307	,	-27699	,	5.6283755	,	0
49,53	,	67956	,	-28306	,	-27706	,	4.457309	,	0
49,53	,	67972	,	-28316	,	-27712	,	2.8793895	,	0
49,53	,	67988	,	-28303	,	-27707	,	1.0617657	,	0
49,53	,	68020	,	-28322	,	-27702	,	-0.7865231	,	0
49,53	,	68036	,	-28327	,	-27709	,	-2.5922227	,	0
49,53	,	68068	,	-28326	,	-27712	,	-4.440486	,	0
49,53	,	68084	,	-28331	,	-27703	,	-6.3130856	,	0
49,53	,	68100	,	-28325	,	-27715	,	-8.020741	,	0
49,53	,	68132	,	-28349	,	-27718	,	-9.406847	,	0
49,53	,	68148	,	-28357	,	-27718	,	-10.603634	,	0
49,53	,	68164	,	-28341	,	-27720	,	-11.841663	,	0
49,53	,	68196	,	-28350	,	-27727	,	-12.99433	,	0
49,53	,	68212	,	-28347	,	-27719	,	-13.721126	,	0
49,53	,	68228	,	-28362	,	-27727	,	-13.892312	,	0
49,53	,	68260	,	-28344	,	-27717	,	-13.583151	,	0
49,53	,	68276	,	-28333	,	-27694	,	-12.726492	,	0
49,53	,	68308	,	-28301	,	-27690	,	-10.897301	,	0
49,53	,	68324	,	-28298	,	-27669	,	-7.549796	,	1
49,53	,	68340	,	-28286	,	-27657	,	-2.518993	,	4
49,53	,	68372	,	-28266	,	-27632	,	3.8458705	,	9
49,53	,	68388	,	-28259	,	-27633	,	10.993782	,	15
49,53	,	68404	,	-28271	,	-27627	,	18.205578	,	22
49,53	,	68436	,	-28268	,	-27629	,	24.473114	,	29
49,53	,	68452	,	-28274	,	-27637	,	28.821964	,	35
49,53	,	68484	,	-28279	,	-27644	,	30.679798	,	39
49,53	,	68500	,	-28296	,	-27661	,	29.860773	,	40
49,53	,	68516	,	-28303	,	-27666	,	26.433449	,	39
49,53	,	68548	,	-28315	,	-27685	,	20.719992	,	36
49,53	,	68564	,	-28318	,	-27669	,	13.333143	,	31
49,53	,	68580	,	-28320	,	-27671	,	5.1421947	,	25
49,53	,	68612	,	-28323	,	-27683	,	-2.8658085	,	18
49,53	,	68628	,	-28318	,	-27683	,	-9.789993	,	11
49,53	,	68644	,	-28319	,	-27689	,	-14.954568	,	5
49,53	,	68676	,	-28321	,	-27701	,	-18.016085	,	1
49,53	,	68692	,	-28327	,	-27693	,	-19.052341	,	0
49,53	,	68724	,	-28337	,	-27707	,	-18.525642	,	0
49,53	,	68740	,	-28340	,	-27715	,	-17.106647	,	0
49,53	,	68756	,	-28348	,	-27730	,	-15.434041	,	1
49,53	,	68788	,	-28379	,	-27742	,	-14.098376	,	2
49,53	,	68804	,	-28379	,	-27737	,	-13.70895	,	3
49,53	,	68820	,	-28384	,	-27752	,	-14.566982	,	3
49,53	,	68852	,	-28380	,	-27747	,	-16.375437	,	3
49,53	,	68868	,	-28377	,	-27775	,	-18.43042	,	3
49,54	,	68899	,	-28400	,	-27776	,	-20.08969	,	3
49,54	,	68916	,	-28397	,	-27786	,	-21.145737	,	3
49,54	,	68931	,	-28408	,	-27799	,	-21.693855	,	3
49,54	,	68964	,	-28432	,	-27798	,	-21.945972	,	2
49,54	,	68980	,	-28431	,	-27810	,	-22.25399	,	1
49,54	,	68996	,	-28440	,	-27821	,	-22.851727	,	0
49,54	,	69028	,	-28424	,	-27827	,	-23.568558	,	0
49,54	,	69044	,	-28420	,	-27796	,	-23.86538	,	0
49,54	,	69060	,	-28374	,	-27795	,	-22.937735	,	0
49,54	,	69092	,	-28367	,	-27796	,	-19.872997	,	0
49,54	,	69108	,	-28355	,	-27789	,	-14.18275	,	3
49,54	,	69139	,	-28347	,	-27774	,	-6.24041	,	8
49,54	,	69156	,	-28342	,	-27771	,	2.951911	,	15
49,54	,	69172	,	-28335	,	-27763	,	12.2120695	,	24
49,54	,	69204	,	-28322	,	-27766	,	20.522255	,	33
49,54	,	69220	,	-28325	,	-27761	,	27.203426	,	41
49,54	,	69236	,	-28320	,	-27765	,	31.83415	,	47
49,54	,	69268	,	-28332	,	-27785	,	34.147995	,	51
49,54	,	69283	,	-28342	,	-27769	,	33.981968	,	53
49,54	,	69316	,	-28328	,	-27799	,	31.398815	,	50
49,54	,	69332	,	-28335	,	-27800	,	26.92745	,	45
49,54	,	69348	,	-28328	,	-27799	,	21.420933	,	38
49,54	,	69380	,	-28329	,	-27806	,	15.713133	,	29
49,54	,	69396	,	-28325	,	-27794	,	10.480918	,	20
49,54	,	69412	,	-28325	,	-27801	,	6.187889	,	12
49,54	,	69444	,	-28323	,	-27796	,	3.0545454	,	6
49,54	,	69459	,	-28316	,	-27793	,	1.1183381	,	2
49,54	,	69492	,	-28313	,	-27794	,	0.33085728	,	0
49,54	,	69508	,	-28322	,	-27808	,	0.5158565	,	0
49,54	,	69524	,	-28315	,	-27782	,	1.3040287	,	0
49,54	,	69556	,	-28325	,	-27803	,	2.264285	,	0
49,54	,	69571	,	-28327	,	-27814	,	3.0124476	,	0
49,54	,	69588	,	-28339	,	-27808	,	3.2018943	,	0
49,54	,	69619	,	-28330	,	-27801	,	2.6256843	,	0
49,54	,	69635	,	-28339	,	-27805	,	1.3607744	,	0
49,54	,	69651	,	-28340	,	-27807	,	-0.33722663	,	0
49,54	,	69683	,	-28344	,	-27811	,	-2.2294497	,	0
49,54	,	69700	,	-28344	,	-27810	,	-4.1068296	,	0
49,54	,	69731	,	-28354	,	-27807	,	-5.8029943	,	0
49,54	,	69747	,	-28351	,	-27831	,	-7.2509327	,	0
49,54	,	69763	,	-28370	,	-27793	,	-8.490472	,	0
49,54	,	69795	,	-28372	,	-27818	,	-9.683313	,	0
49,54	,	69811	,	-28378	,	-27818	,	-10.996768	,	0
49,54	,	69827	,	-28393	,	-27827	,	-12.490841	,	0
49,54	,	69859	,	-28384	,	-27817	,	-14.132112	,	0
49,54	,	69876	,	-28379	,	-27815	,	-15.653736	,	0
49,55	,	69908	,	-28367	,	-27807	,	-16.50829	,	0
49,55	,	69923	,	-28333	,	-27787	,	-16.005949	,	0
49,55	,	69939	,	-28318	,	-27769	,	-13.424368	,	0
49,55	,	69971	,	-28304	,	-27775	,	-8.363753	,	2
49,55	,	69987	,	-28292	,	-27771	,	-1.0890064	,	7
49,55	,	70019	,	-28278	,	-27727	,	7.614791	,	14
49,55	,	70036	,	-28263	,	-27736	,	16.801325	,	22
49,55	,	70051	,	-28262	,	-27727	,	25.557562	,	31
49,55	,	70083	,	-28255	,	-27733	,	33.03383	,	39
49,55	,	70099	,	-28245	,	-27735	,	38.573875	,	46
49,55	,	70115	,	-28241	,	-27739	,	41.89377	,	51
49,55	,	70147	,	-28262	,	-27738	,	42.91896	,	54
49,55	,	70163	,	-28246	,	-27738	,	41.59398	,	53
49,55	,	70179	,	-28256	,	-27722	,	38.103897	,	48
49,55	,	70211	,	-28248	,	-27739	,	32.990757	,	41
49,55	,	70227	,	-28244	,	-27745	,	26.99098	,	33
49,55	,	70259	,	-28235	,	-27731	,	20.932293	,	24
49,55	,	70275	,	-28239	,	-27735	,	15.547968	,	16
49,55	,	70291	,	-28236	,	-27734	,	11.235976	,	9
49,55	,	70323	,	-28247	,	-27733	,	8.010111	,	4
49,55	,	70339	,	-28241	,	-27733	,	5.636794	,	1
49,55	,	70355	,	-28234	,	-27730	,	3.9052997	,	0
49,55	,	70387	,	-28244	,	-27734	,	2.7377846	,	0
49,55	,	70403	,	-28256	,	-27743	,	1.9403312	,	0
49,55	,	70435	,	-28262	,	-27746	,	1.0903461	,	0
49,55	,	70451	,	-28266	,	-27736	,	-0.19270551	,	0
49,55	,	70467	,	-28265	,	-27751	,	-1.9937334	,	0
49,55	,	70499	,	-28282	,	-27761	,	-4.167422	,	0
49,55	,	70515	,	-28296	,	-27761	,	-6.639166	,	0
49,55	,	70531	,	-28295	,	-27767	,	-9.449891	,	0
49,55	,	70563	,	-28309	,	-27770	,	-12.513573	,	0
49,55	,	70579	,	-28301	,	-27773	,	-15.551321	,	0
49,55	,	70595	,	-28306	,	-27788	,	-18.15467	,	0
49,55	,	70627	,	-28321	,	-27786	,	-19.988388	,	0
49,55	,	70643	,	-28327	,	-27791	,	-21.063988	,	0
49,55	,	70675	,	-28332	,	-27791	,	-21.625605	,	0
49,55	,	70691	,	-28330	,	-27782	,	-21.825542	,	0
49,55	,	70707	,	-28336	,	-27792	,	-21.640205	,	0
49,55	,	70739	,	-28365	,	-27817	,	-21.145313	,	0
49,55	,	70755	,	-28375	,	-27809	,	-20.78421	,	0
49,55	,	70771	,	-28358	,	-27801	,	-20.95823	,	0
49,55	,	70803	,	-28346	,	-27798	,	-21.376072	,	0
49,55	,	70819	,	-28331	,	-27777	,	-21.168907	,	0
49,55	,	70851	,	-28303	,	-27771	,	-19.419464	,	0
49,55	,	70867	,	-28287	,	-27763	,	-15.446183	,	1
49,55	,	70883	,	-28280	,	-27763	,	-9.076211	,	4
49,56	,	70915	,	-28250	,	-27758	,	-0.74863815	,	10
49,56	,	70931	,	-28257	,	-27728	,	8.732498	,	18
49,56	,	70947	,	-28244	,	-27735	,	18.322311	,	27
49,56	,	70979	,	-28240	,	-27738	,	26.904783	,	36
49,56	,	70995	,	-28258	,	-27740	,	33.524967	,	44
49,56	,	71011	,	-28246	,	-27741	,	37.433	,	50
49,56	,	71043	,	-28265	,	-27745	,	38.25475	,	53
49,56	,	71059	,	-28252	,	-27744	,	36.125027	,	52
49,56	,	71091	,	-28259	,	-27739	,	31.634052	,	49
49,56	,	71107	,	-28246	,	-27734	,	25.711285	,	43
49,56	,	71123	,	-28253	,	-27742	,	19.36576	,	35
49,56	,	71155	,	-28246	,	-27755	,	13.411124	,	26
49,56	,	71171	,	-28259	,	-27720	,	8.322242	,	17
49,56	,	71187	,	-28264	,	-27736	,	4.1915636	,	9
49,56	,	71219	,	-28261	,	-27736	,	0.8659811	,	3
49,56	,	71235	,	-28257	,	-27736	,	-1.7452126	,	0
49,56	,	71267	,	-28258	,	-27747	,	-3.5759025	,	0
49,56	,	71283	,	-28271	,	-27742	,	-4.642607	,	0
49,56	,	71299	,	-28277	,	-27740	,	-5.2359986	,	0
49,56	,	71331	,	-28264	,	-27746	,	-5.6926394	,	0
49,56	,	71347	,	-28283	,	-27755	,	-6.1165323	,	0
49,56	,	71363	,	-28299	,	-27759	,	-6.637176	,	0
49,56	,	71395	,	-28298	,	-27771	,	-7.5773945	,	0
49,56	,	71411	,	-28298	,	-27732	,	-9.058531	,	0
49,56	,	71427	,	-28310	,	-27760	,	-10.8603525	,	0
49,56	,	71459	,	-28316	,	-27760	,	-12.743568	,	0
49,56	,	71475	,	-28324	,	-27765	,	-14.595588	,	0
49,56	,	71507	,	-28346	,	-27772	,	-16.423632	,	0
49,56	,	71523	,	-28332	,	-27766	,	-18.284233	,	0
49,56	,	71539	,	-28346	,	-27771	,	-20.041897	,	0
49,56	,	71571	,	-28348	,	-27781	,	-21.418432	,	0
49,56	,	71586	,	-28349	,	-27771	,	-22.232231	,	0
49,56	,	71603	,	-28355	,	-27795	,	-22.397629	,	0
49,56	,	71635	,	-28365	,	-27801	,	-21.956465	,	0
49,56	,	71651	,	-28368	,	-27767	,	-21.1209	,	0
49,56	,	71683	,	-28383	,	-27787	,	-20.179308	,	0
49,56	,	71699	,	-28385	,	-27793	,	-19.416925	,	0
49,56	,	71715	,	-28387	,	-27796	,	-18.982803	,	0
49,56	,	71747	,	-28345	,	-27781	,	-18.573986	,	0
49,56	,	71762	,	-28333	,	-27773	,	-17.287071	,	0
49,56	,	71778	,	-28313	,	-27763	,	-14.133437	,	1
49,56	,	71811	,	-28313	,	-27756	,	-8.762032	,	4
49,56	,	71827	,	-28283	,	-27756	,	-1.5399132	,	9
49,56	,	71858	,	-28295	,	-27756	,	6.7810845	,	16
49,56	,	71875	,	-28278	,	-27757	,	15.220161	,	24
49,56	,	71890	,	-28284	,	-27713	,	22.742645	,	32
49,57	,	71922	,	-28282	,	-27749	,	28.508717	,	39
49,57	,	71938	,	-28271	,	-27749	,	32.03238	,	44
49,57	,	71954	,	-28288	,	-27744	,	33.226227	,	47
49,57	,	71987	,	-28292	,	-27751	,	32.166195	,	47
49,57	,	72003	,	-28295	,	-27761	,	28.991272	,	44
49,57	,	72019	,	-28299	,	-27758	,	24.091099	,	39
49,57	,	72051	,	-28288	,	-27762	,	18.145538	,	32
49,57	,	72066	,	-28301	,	-27752	,	11.96308	,	24
49,57	,	72098	,	-28290	,	-27748	,	6.2384644	,	16
49,57	,	72114	,	-28280	,	-27768	,	1.5280695	,	9
49,57	,	72130	,	-28283	,	-27741	,	-1.7022195	,	4
49,57	,	72162	,	-28292	,	-27741	,	-3.3351922	,	1
49,57	,	72178	,	-28294	,	-27759	,	-3.7369425	,	0
49,57	,	72195	,	-28290	,	-27763	,	-3.447612	,	0
49,57	,	72227	,	-28313	,	-27757	,	-2.9520764	,	0
49,57	,	72243	,	-28303	,	-27757	,	-2.6996915	,	0
49,57	,	72274	,	-28313	,	-27760	,	-2.957365	,	0
49,57	,	72290	,	-28321	,	-27777	,	-3.7539861	,	0
49,57	,	72306	,	-28325	,	-27768	,	-5.0608935	,	0
49,57	,	72338	,	-28328	,	-27772	,	-6.785249	,	0
49,57	,	72354	,	-28341	,	-27792	,	-8.757527	,	0
49,57	,	72371	,	-28339	,	-27765	,	-10.830814	,	0
49,57	,	72403	,	-28363	,	-27788	,	-12.920926	,	0
49,57	,	72418	,	-28371	,	-27794	,	-15.082581	,	0
49,57	,	72434	,	-28376	,	-27808	,	-17.427069	,	0
49,57	,	72466	,	-28380	,	-27803	,	-19.870674	,	0
49,57	,	72482	,	-28392	,	-27814	,	-22.163471	,	0
49,57	,	72514	,	-28400	,	-27808	,	-24.118769	,	0
49,57	,	72530	,	-28397	,	-27817	,	-25.620855	,	0
49,57	,	72546	,	-28416	,	-27813	,	-26.55973	,	0
49,57	,	72578	,	-28407	,	-27817	,	-26.901398	,	0
49,57	,	72594	,	-28418	,	-27839	,	-26.648169	,	0
49,57	,	72611	,	-28428	,	-27812	,	-25.84705	,	0
49,57	,	72642	,	-28389	,	-27796	,	-24.504126	,	0
49,57	,	72658	,	-28368	,	-27803	,	-22.15101	,	1
49,57	,	72690	,	-28357	,	-27792	,	-18.015314	,	3
49,57	,	72706	,	-28346	,	-27787	,	-11.7975025	,	7
49,57	,	72722	,	-28336	,	-27782	,	-3.9063807	,	13
49,57	,	72754	,	-28327	,	-27767	,	4.841316	,	20
49,57	,	72770	,	-28327	,	-27773	,	13.485441	,	28
49,57	,	72786	,	-28325	,	-27770	,	21.066147	,	36
49,57	,	72818	,	-28334	,	-27770	,	26.746197	,	43
49,57	,	72834	,	-28328	,	-27783	,	29.959667	,	48
49,57	,	72850	,	-28333	,	-27779	,	30.563305	,	50
49,57	,	72882	,	-28336	,	-27788	,	28.812878	,	48
49,58	,	72898	,	-28345	,	-27786	,	25.156677	,	44
49,58	,	72930	,	-28351	,	-27776	,	20.0817	,	38
49,58	,	72946	,	-28345	,	-27780	,	14.14081	,	31
49,58	,	72962	,	-28333	,	-27781	,	8.094011	,	23
49,58	,	72994	,	-28337	,	-27785	,	2.8126764	,	15
49,58	,	73010	,	-28343	,	-27787	,	-1.1416764	,	8
49,58	,	73026	,	-28351	,	-27774	,	-3.7520454	,	3
49,58	,	73058	,	-28343	,	-27784	,	-5.310661	,	0
49,58	,	73074	,	-28344	,	-27792	,	-6.0562716	,	0
49,58	,	73106	,	-28360	,	-27790	,	-6.1814547	,	0
49,58	,	73122	,	-28352	,	-27783	,	-6.0018377	,	0
49,58	,	73138	,	-28377	,	-27790	,	-5.8850794	,	0
49,58	,	73170	,	-28367	,	-27796	,	-6.144164	,	0
49,58	,	73186	,	-28359	,	-27795	,	-6.823489	,	0
49,58	,	73202	,	-28374	,	-27798	,	-7.624306	,	0
49,58	,	73234	,	-28392	,	-27808	,	-8.392387	,	0
49,58	,	73250	,	-28402	,	-27806	,	-9.394219	,	0
49,58	,	73266	,	-28393	,	-27812	,	-10.8840065	,	0
49,58	,	73298	,	-28402	,	-27813	,	-12.703449	,	0
49,58	,	73314	,	-28421	,	-27820	,	-14.550274	,	0
49,58	,	73346	,	-28418	,	-27812	,	-16.335512	,	0
49,58	,	73362	,	-28426	,	-27815	,	-18.018261	,	0
49,58	,	73378	,	-28441	,	-27835	,	-19.50599	,	0
49,58	,	73410	,	-28442	,	-27831	,	-20.795269	,	0
49,58	,	73426	,	-28426	,	-27834	,	-21.784864	,	0
49,58	,	73442	,	-28419	,	-27814	,	-22.033863	,	0
49,58	,	73474	,	-28396	,	-27811	,	-20.920181	,	0
49,58	,	73490	,	-28378	,	-27797	,	-17.895975	,	1
49,58	,	73522	,	-28354	,	-27795	,	-12.6388855	,	4
49,58	,	73538	,	-28361	,	-27784	,	-5.290285	,	9
49,58	,	73554	,	-28351	,	-27778	,	3.3467827	,	16
49,58	,	73586	,	-28342	,	-27788	,	12.097961	,	24
49,58	,	73602	,	-28352	,	-27784	,	19.877693	,	32
49,58	,	73618	,	-28354	,	-27796	,	25.766136	,	39
49,58	,	73650	,	-28365	,	-27790	,	29.048773	,	44
49,58	,	73666	,	-28351	,	-27792	,	29.478321	,	47
49,58	,	73682	,	-28362	,	-27797	,	27.40759	,	46
49,58	,	73714	,	-28377	,	-27793	,	23.449137	,	43
49,58	,	73730	,	-28375	,	-27806	,	18.109509	,	38
49,58	,	73762	,	-28361	,	-27796	,	12.006316	,	31
49,58	,	73777	,	-28349	,	-27799	,	6.122302	,	23
49,58	,	73794	,	-28344	,	-27776	,	1.51198	,	15
49,58	,	73826	,	-28357	,	-27800	,	-1.2469468	,	8
49,58	,	73842	,	-28364	,	-27783	,	-2.3366225	,	3
49,58	,	73858	,	-28357	,	-27782	,	-2.3922367	,	0
49,58	,	73890	,	-28357	,	-27785	,	-1.9532733	,	0
49,59	,	73906	,	-28359	,	-27785	,	-1.3116757	,	0
49,59	,	73938	,	-28371	,	-27792	,	-0.70805657	,	0
49,59	,	73953	,	-28372	,	-27787	,	-0.43798888	,	0
49,59	,	73970	,	-28366	,	-27796	,	-0.68034595	,	0
49,59	,	74002	,	-28376	,	-27806	,	-1.3560456	,	0
49,59	,	74018	,	-28380	,	-27810	,	-2.3194885	,	0
49,59	,	74033	,	-28393	,	-27794	,	-3.5618286	,	0
49,59	,	74066	,	-28393	,	-27811	,	-5.148356	,	0
49,59	,	74082	,	-28396	,	-27807	,	-7.030236	,	0
49,59	,	74098	,	-28401	,	-27811	,	-8.998265	,	0
49,59	,	74130	,	-28422	,	-27812	,	-10.912166	,	0
49,59	,	74146	,	-28417	,	-27821	,	-12.823869	,	0
49,59	,	74177	,	-28418	,	-27817	,	-14.699646	,	0
49,59	,	74193	,	-28395	,	-27803	,	-16.143993	,	0
49,59	,	74209	,	-28370	,	-27790	,	-16.397556	,	0
49,59	,	74242	,	-28342	,	-27786	,	-14.546276	,	0
49,59	,	74258	,	-28332	,	-27740	,	-9.972342	,	1
49,59	,	74274	,	-28330	,	-27740	,	-2.8408604	,	5
49,59	,	74305	,	-28303	,	-27761	,	5.94958	,	12
49,59	,	74322	,	-28275	,	-27753	,	15.445488	,	20
49,59	,	74353	,	-28276	,	-27748	,	24.973475	,	29
49,59	,	74369	,	-28290	,	-27742	,	33.687946	,	38
49,59	,	74385	,	-28301	,	-27748	,	40.317062	,	46
49,59	,	74418	,	-28277	,	-27749	,	43.793385	,	52
49,59	,	74434	,	-28286	,	-27751	,	43.961063	,	55
49,59	,	74450	,	-28289	,	-27756	,	41.345768	,	54
49,59	,	74482	,	-28275	,	-27744	,	36.657536	,	50
49,59	,	74498	,	-28292	,	-27753	,	30.707878	,	43
49,59	,	74529	,	-28281	,	-27727	,	24.254124	,	35
49,59	,	74545	,	-28272	,	-27733	,	17.954308	,	26
49,59	,	74561	,	-28276	,	-27731	,	12.451247	,	17
49,59	,	74593	,	-28252	,	-27726	,	8.25561	,	9
49,59	,	74610	,	-28270	,	-27715	,	5.6393795	,	3
49,59	,	74626	,	-28267	,	-27720	,	4.4635315	,	0
49,59	,	74657	,	-28273	,	-27718	,	4.191188	,	0
49,59	,	74673	,	-28265	,	-27714	,	4.274867	,	0
49,59	,	74689	,	-28262	,	-27715	,	4.4291477	,	0
49,59	,	74721	,	-28271	,	-27710	,	4.5583806	,	0
49,59	,	74737	,	-28272	,	-27721	,	4.531877	,	0
49,59	,	74769	,	-28282	,	-27698	,	4.1409063	,	0
49,59	,	74785	,	-28294	,	-27714	,	3.162654	,	0
49,59	,	74801	,	-28309	,	-27728	,	1.3542774	,	0
49,59	,	74834	,	-28314	,	-27730	,	-1.4467398	,	0
49,59	,	74850	,	-28317	,	-27738	,	-5.1218905	,	0
49,59	,	74866	,	-28317	,	-27741	,	-9.213703	,	0
50,0	,	74897	,	-28328	,	-27738	,	-13.134473	,	0
50,0	,	74913	,	-28334	,	-27748	,	-16.466808	,	0
50,0	,	74945	,	-28345	,	-27746	,	-19.070852	,	0
50,0	,	74961	,	-28332	,	-27748	,	-20.903395	,	0
50,0	,	74977	,	-28330	,	-27759	,	-21.765587	,	0
50,0	,	75009	,	-28310	,	-27711	,	-21.296001	,	0
50,0	,	75025	,	-28260	,	-27714	,	-18.951813	,	0
50,0	,	75041	,	-28235	,	-27700	,	-13.947299	,	2
50,0	,	75073	,	-28210	,	-27696	,	-5.7443695	,	7
50,0	,	75089	,	-28202	,	-27687	,	5.3126965	,	15
50,0	,	75105	,	-28191	,	-27677	,	17.980389	,	26
50,0	,	75137	,	-28181	,	-27674	,	30.594866	,	38
50,0	,	75153	,	-28167	,	-27668	,	41.654087	,	50
50,0	,	75185	,	-28163	,	-27669	,	50.147255	,	61
50,0	,	75201	,	-28151	,	-27656	,	55.57367	,	69
50,0	,	75217	,	-28147	,	-27667	,	57.88298	,	74
50,0	,	75249	,	-28151	,	-27638	,	57.32936	,	74
50,0	,	75265	,	-28149	,	-27644	,	54.273182	,	69
50,0	,	75281	,	-28125	,	-27646	,	49.279083	,	61
50,0	,	75313	,	-28108	,	-27639	,	43.350483	,	50
50,0	,	75329	,	-28115	,	-27642	,	37.617165	,	38
50,0	,	75361	,	-28118	,	-27638	,	32.66729	,	26
50,0	,	75377	,	-28114	,	-27634	,	28.456404	,	15
50,0	,	75393	,	-28101	,	-27615	,	24.813847	,	7
50,0	,	75425	,	-28106	,	-27620	,	21.728397	,	2
50,0	,	75441	,	-28088	,	-27628	,	19.255058	,	0
50,0	,	75457	,	-28100	,	-27643	,	17.407675	,	0
50,0	,	75489	,	-28104	,	-27598	,	16.001831	,	0
50,0	,	75505	,	-28106	,	-27624	,	14.629922	,	0
50,0	,	75521	,	-28110	,	-27621	,	12.936585	,	0
50,0	,	75553	,	-28116	,	-27620	,	10.762974	,	0
50,0	,	75569	,	-28115	,	-27625	,	8.113338	,	0
50,0	,	75601	,	-28131	,	-27631	,	5.0897374	,	0
50,0	,	75617	,	-28131	,	-27638	,	1.77455	,	0
50,0	,	75633	,	-28138	,	-27637	,	-1.7342229	,	0
50,0	,	75665	,	-28136	,	-27646	,	-5.2036705	,	0
50,0	,	75681	,	-28142	,	-27648	,	-8.314068	,	0
50,0	,	75697	,	-28155	,	-27675	,	-10.862594	,	0
50,0	,	75729	,	-28152	,	-27642	,	-12.862971	,	0
50,0	,	75745	,	-28175	,	-27656	,	-14.449989	,	0
50,0	,	75777	,	-28155	,	-27646	,	-15.738447	,	0
50,0	,	75793	,	-28156	,	-27649	,	-16.595947	,	0
50,0	,	75809	,	-28151	,	-27640	,	-16.658062	,	0
50,0	,	75841	,	-28120	,	-27612	,	-15.540396	,	0
50,0	,	75857	,	-28096	,	-27599	,	-12.750303	,	1
50,0	,	75873	,	-28066	,	-27589	,	-7.7344766	,	3
50,1	,	75905	,	-28045	,	-27568	,	-0.24288034	,	8
50,1	,	75921	,	-28031	,	-27559	,	9.406562	,	15
50,1	,	75937	,	-28013	,	-27568	,	20.329046	,	24
50,1	,	75969	,	-27988	,	-27522	,	31.42316	,	34
50,1	,	75985	,	-27974	,	-27528	,	41.763115	,	45
50,1	,	76017	,	-27971	,	-27525	,	50.60064	,	55
50,1	,	76033	,	-27971	,	-27514	,	57.18632	,	63
50,1	,	76049	,	-27972	,	-27520	,	60.83325	,	68
50,1	,	76081	,	-27968	,	-27512	,	61.18112	,	69
50,1	,	76097	,	-27977	,	-27506	,	58.322166	,	64
50,1	,	76113	,	-27966	,	-27509	,	52.73819	,	57
50,1	,	76145	,	-27959	,	-27513	,	45.286575	,	48
50,1	,	76161	,	-27950	,	-27507	,	37.11213	,	38
50,1	,	76193	,	-27941	,	-27513	,	29.349546	,	27
50,1	,	76209	,	-27948	,	-27481	,	22.798273	,	17
50,1	,	76225	,	-27945	,	-27478	,	17.725264	,	9
50,1	,	76257	,	-27945	,	-27491	,	13.981721	,	3
50,1	,	76273	,	-27955	,	-27485	,	11.237747	,	0
50,1	,	76289	,	-27949	,	-27491	,	9.096401	,	0
50,1	,	76321	,	-27956	,	-27477	,	7.2393727	,	0
50,1	,	76337	,	-27951	,	-27500	,	5.512931	,	0
50,1	,	76353	,	-27953	,	-27498	,	3.8968563	,	0
50,1	,	76385	,	-27957	,	-27510	,	2.4324033	,	0
50,1	,	76401	,	-27983	,	-27517	,	1.0045171	,	0
50,1	,	76433	,	-27979	,	-27532	,	-0.74061143	,	0
50,1	,	76449	,	-27986	,	-27504	,	-3.0407891	,	0
50,1	,	76465	,	-28000	,	-27524	,	-5.8258543	,	0
50,1	,	76497	,	-28013	,	-27536	,	-8.983841	,	0
50,1	,	76513	,	-28027	,	-27536	,	-12.494612	,	0
50,1	,	76528	,	-28018	,	-27544	,	-16.227654	,	0
50,1	,	76561	,	-28036	,	-27539	,	-19.807037	,	0
50,1	,	76577	,	-28030	,	-27543	,	-22.80029	,	0
50,1	,	76609	,	-28042	,	-27544	,	-24.910557	,	0
50,1	,	76625	,	-28043	,	-27540	,	-26.01125	,	0
50,1	,	76641	,	-28042	,	-27553	,	-26.110981	,	0
50,1	,	76672	,	-28050	,	-27561	,	-25.281174	,	0
50,1	,	76689	,	-28040	,	-27543	,	-23.639206	,	0
50,1	,	76704	,	-28009	,	-27520	,	-21.132992	,	1
50,1	,	76737	,	-27968	,	-27511	,	-17.216017	,	3
50,1	,	76753	,	-27960	,	-27499	,	-11.129616	,	6
50,1	,	76785	,	-27949	,	-27493	,	-2.7156153	,	12
50,1	,	76801	,	-27947	,	-27488	,	7.2375917	,	20
50,1	,	76817	,	-27921	,	-27476	,	17.486113	,	29
50,1	,	76848	,	-27927	,	-27479	,	26.927671	,	39
50,1	,	76865	,	-27918	,	-27474	,	34.698807	,	48
50,1	,	76880	,	-27911	,	-27483	,	40.167767	,	55
50,2	,	76913	,	-27931	,	-27479	,	42.986732	,	59
50,2	,	76929	,	-27923	,	-27493	,	42.982124	,	59
50,2	,	76945	,	-27936	,	-27490	,	40.218838	,	56
50,2	,	76977	,	-27930	,	-27481	,	35.13328	,	50
50,2	,	76992	,	-27932	,	-27496	,	28.470257	,	42
50,2	,	77024	,	-27931	,	-27496	,	21.13941	,	33
50,2	,	77040	,	-27930	,	-27498	,	13.999243	,	23
50,2	,	77056	,	-27928	,	-27504	,	7.707856	,	14
50,2	,	77088	,	-27936	,	-27510	,	2.654562	,	7
50,2	,	77105	,	-27933	,	-27514	,	-1.0712028	,	2
50,2	,	77121	,	-27940	,	-27525	,	-3.587297	,	0
50,2	,	77153	,	-27951	,	-27517	,	-5.167185	,	0
50,2	,	77168	,	-27962	,	-27539	,	-6.2668977	,	0
50,2	,	77200	,	-27998	,	-27559	,	-7.5272336	,	0
50,2	,	77216	,	-28007	,	-27572	,	-9.68634	,	0
50,2	,	77232	,	-28018	,	-27588	,	-13.189188	,	0
50,2	,	77265	,	-28029	,	-27605	,	-17.869806	,	0
50,2	,	77281	,	-28042	,	-27613	,	-23.164875	,	0
50,2	,	77297	,	-28064	,	-27626	,	-28.51795	,	0
50,2	,	77328	,	-28059	,	-27636	,	-33.501484	,	0
50,2	,	77344	,	-28076	,	-27649	,	-37.678364	,	0
50,2	,	77360	,	-28094	,	-27677	,	-40.72143	,	0
50,2	,	77392	,	-28086	,	-27668	,	-42.56476	,	0
50,2	,	77408	,	-28107	,	-27687	,	-43.21471	,	0
50,2	,	77440	,	-28131	,	-27687	,	-42.855713	,	0
50,2	,	77457	,	-28140	,	-27699	,	-42.026093	,	0
50,2	,	77473	,	-28136	,	-27712	,	-41.17518	,	0
50,2	,	77504	,	-28146	,	-27722	,	-40.27836	,	0
50,2	,	77520	,	-28147	,	-27716	,	-39.075268	,	0
50,2	,	77536	,	-28144	,	-27717	,	-37.338985	,	1
50,2	,	77568	,	-28138	,	-27722	,	-34.84861	,	2
50,2	,	77584	,	-28108	,	-27697	,	-31.281912	,	4
50,2	,	77616	,	-28090	,	-27703	,	-26.16858	,	7
50,2	,	77632	,	-28081	,	-27687	,	-19.170073	,	12
50,2	,	77648	,	-28074	,	-27681	,	-10.508603	,	18
50,2	,	77681	,	-28064	,	-27685	,	-0.95483875	,	26
50,2	,	77696	,	-28049	,	-27678	,	8.577981	,	35
50,2	,	77712	,	-28054	,	-27686	,	17.293512	,	44
50,2	,	77744	,	-28066	,	-27687	,	24.39121	,	51
50,2	,	77760	,	-28057	,	-27684	,	29.084703	,	57
50,2	,	77776	,	-28064	,	-27691	,	30.988018	,	59
50,2	,	77808	,	-28055	,	-27685	,	30.274265	,	57
50,2	,	77824	,	-28058	,	-27683	,	27.509039	,	52
50,2	,	77856	,	-28051	,	-27685	,	23.45086	,	46
50,2	,	77872	,	-28053	,	-27667	,	18.861341	,	38
50,2	,	77888	,	-28052	,	-27685	,	14.352801	,	29
50,3	,	77921	,	-28050	,	-27690	,	10.330815	,	20
50,3	,	77936	,	-28056	,	-27690	,	7.0071726	,	12
50,3	,	77952	,	-28052	,	-27689	,	4.414911	,	5
50,3	,	77984	,	-28068	,	-27697	,	2.4213142	,	1
50,3	,	78000	,	-28053	,	-27704	,	0.8133085	,	0
50,3	,	78032	,	-28078	,	-27704	,	-0.58946824	,	0
50,3	,	78048	,	-28080	,	-27711	,	-2.012856	,	0
50,3	,	78064	,	-28091	,	-27710	,	-3.7427125	,	0
50,3	,	78096	,	-28106	,	-27728	,	-5.9694448	,	0
50,3	,	78112	,	-28105	,	-27708	,	-8.736267	,	0
50,3	,	78128	,	-28122	,	-27746	,	-11.909154	,	0
50,3	,	78160	,	-28134	,	-27751	,	-15.289197	,	0
50,3	,	78176	,	-28126	,	-27761	,	-18.673677	,	0
50,3	,	78192	,	-28139	,	-27765	,	-21.70545	,	0
50,3	,	78224	,	-28142	,	-27782	,	-24.013016	,	0
50,3	,	78240	,	-28155	,	-27784	,	-25.464817	,	0
50,3	,	78272	,	-28186	,	-27778	,	-26.280483	,	0
50,3	,	78288	,	-28168	,	-27782	,	-26.893105	,	0
50,3	,	78304	,	-28171	,	-27798	,	-27.399807	,	0
50,3	,	78336	,	-28182	,	-27808	,	-27.489403	,	0
50,3	,	78352	,	-28195	,	-27774	,	-27.029823	,	0
50,3	,	78368	,	-28204	,	-27814	,	-26.256744	,	0
50,3	,	78400	,	-28226	,	-27809	,	-25.567307	,	0
50,3	,	78416	,	-28215	,	-27813	,	-25.286716	,	0
50,3	,	78448	,	-28191	,	-27813	,	-25.22685	,	0
50,3	,	78464	,	-28172	,	-27791	,	-24.499416	,	0
50,3	,	78480	,	-28161	,	-27792	,	-22.07756	,	0
50,3	,	78512	,	-28146	,	-27778	,	-17.452375	,	2
50,3	,	78528	,	-28130	,	-27784	,	-10.728837	,	6
50,3	,	78544	,	-28131	,	-27765	,	-2.4709234	,	12
50,3	,	78576	,	-28122	,	-27773	,	6.386157	,	20
50,3	,	78592	,	-28120	,	-27743	,	14.769207	,	28
50,3	,	78608	,	-28130	,	-27772	,	21.712715	,	36
50,3	,	78640	,	-28118	,	-27773	,	26.48398	,	42
50,3	,	78656	,	-28145	,	-27782	,	28.686611	,	46
50,3	,	78688	,	-28144	,	-27772	,	28.175335	,	48
50,3	,	78704	,	-28141	,	-27769	,	25.109907	,	46
50,3	,	78720	,	-28125	,	-27780	,	20.236778	,	42
50,3	,	78752	,	-28124	,	-27776	,	14.754942	,	36
50,3	,	78768	,	-28132	,	-27773	,	9.724886	,	28
50,3	,	78784	,	-28110	,	-27767	,	5.749469	,	20
50,3	,	78816	,	-28120	,	-27786	,	3.1333294	,	12
50,3	,	78832	,	-28113	,	-27741	,	1.9116015	,	6
50,3	,	78864	,	-28130	,	-27771	,	1.7481909	,	2
50,3	,	78880	,	-28133	,	-27772	,	2.0337052	,	0
50,4	,	78896	,	-28139	,	-27781	,	2.1337202	,	0
50,4	,	78928	,	-28145	,	-27790	,	1.6370618	,	0
50,4	,	78944	,	-28146	,	-27787	,	0.42047065	,	0
50,4	,	78960	,	-28167	,	-27787	,	-1.4843134	,	0
50,4	,	78991	,	-28169	,	-27798	,	-4.056532	,	0
50,4	,	79007	,	-28177	,	-27807	,	-7.216147	,	0
50,4	,	79040	,	-28176	,	-27799	,	-10.661962	,	0
50,4	,	79056	,	-28181	,	-27825	,	-13.936712	,	0
50,4	,	79072	,	-28205	,	-27794	,	-16.719048	,	0
50,4	,	79104	,	-28219	,	-27816	,	-19.10348	,	0
50,4	,	79119	,	-28221	,	-27827	,	-21.401066	,	0
50,4	,	79136	,	-28228	,	-27837	,	-23.686415	,	0
50,4	,	79168	,	-28227	,	-27834	,	-25.723724	,	0
50,4	,	79184	,	-28228	,	-27839	,	-27.145353	,	0
50,4	,	79200	,	-28247	,	-27849	,	-27.698256	,	0
50,4	,	79232	,	-28261	,	-27855	,	-27.528065	,	0
50,4	,	79247	,	-28270	,	-27846	,	-27.10645	,	0
50,4	,	79279	,	-28269	,	-27861	,	-26.792019	,	0
50,4	,	79296	,	-28260	,	-27870	,	-26.516243	,	0
50,4	,	79312	,	-28239	,	-27820	,	-25.763542	,	0
50,4	,	79344	,	-28208	,	-27820	,	-23.700317	,	0
50,4	,	79360	,	-28196	,	-27823	,	-19.497158	,	2
50,4	,	79376	,	-28178	,	-27820	,	-12.819084	,	6
50,4	,	79407	,	-28192	,	-27818	,	-4.147069	,	12
50,4	,	79423	,	-28182	,	-27819	,	5.3046	,	20
50,4	,	79455	,	-28177	,	-27823	,	14.143614	,	29
50,4	,	79472	,	-28189	,	-27832	,	21.295475	,	37
50,4	,	79488	,	-28176	,	-27835	,	26.070547	,	44
50,4	,	79520	,	-28182	,	-27850	,	28.244514	,	48
50,4	,	79536	,	-28190	,	-27864	,	27.99744	,	50
50,4	,	79552	,	-28184	,	-27834	,	25.678808	,	48
50,4	,	79583	,	-28188	,	-27845	,	21.813084	,	44
50,4	,	79599	,	-28186	,	-27855	,	17.071362	,	38
50,4	,	79616	,	-28178	,	-27836	,	12.144557	,	30
50,4	,	79647	,	-28182	,	-27837	,	7.666995	,	21
50,4	,	79664	,	-28179	,	-27845	,	4.0632234	,	13
50,4	,	79695	,	-28166	,	-27830	,	1.550345	,	6
50,4	,	79711	,	-28189	,	-27833	,	0.18023944	,	2
50,4	,	79727	,	-28181	,	-27845	,	-0.32396138	,	0
50,4	,	79759	,	-28178	,	-27835	,	-0.39039147	,	0
50,4	,	79775	,	-28183	,	-27860	,	-0.26360792	,	0
50,4	,	79791	,	-28189	,	-27837	,	-0.111871734	,	0
50,4	,	79824	,	-28189	,	-27848	,	-0.14324196	,	0
50,4	,	79839	,	-28205	,	-27859	,	-0.5407648	,	0
50,4	,	79871	,	-28213	,	-27864	,	-1.4999743	,	0
50,4	,	79887	,	-28215	,	-27858	,	-3.169973	,	0
50,5	,	79903	,	-28221	,	-27861	,	-5.472441	,	0
50,5	,	79935	,	-28232	,	-27871	,	-8.159938	,	0
50,5	,	79951	,	-28231	,	-27860	,	-10.973279	,	0
50,5	,	79967	,	-28240	,	-27882	,	-13.642603	,	0
50,5	,	80000	,	-28244	,	-27893	,	-15.92325	,	0
50,5	,	80015	,	-28259	,	-27908	,	-17.722221	,	0
50,5	,	80031	,	-28256	,	-27876	,	-19.095203	,	0
50,5	,	80063	,	-28282	,	-27897	,	-20.169762	,	0
50,5	,	80079	,	-28285	,	-27908	,	-21.17118	,	0
50,5	,	80111	,	-28284	,	-27889	,	-22.265186	,	0
50,5	,	80127	,	-28292	,	-27914	,	-23.324131	,	0
50,5	,	80143	,	-28291	,	-27916	,	-24.067917	,	0
50,5	,	80175	,	-28304	,	-27903	,	-24.312801	,	0
50,5	,	80191	,	-28302	,	-27920	,	-24.038834	,	0
50,5	,	80207	,	-28270	,	-27907	,	-23.13418	,	0
50,5	,	80239	,	-28254	,	-27883	,	-21.060493	,	0
50,5	,	80255	,	-28235	,	-27885	,	-17.125225	,	2
50,5	,	80287	,	-28220	,	-27852	,	-11.034954	,	5
50,5	,	80303	,	-28186	,	-27856	,	-2.9564323	,	11
50,5	,	80319	,	-28195	,	-27858	,	6.6094837	,	19
50,5	,	80351	,	-28187	,	-27857	,	16.691809	,	28
50,5	,	80367	,	-28177	,	-27855	,	26.017141	,	38
50,5	,	80383	,	-28181	,	-27848	,	33.5267	,	47
50,5	,	80415	,	-28179	,	-27854	,	38.532692	,	54
50,5	,	80431	,	-28193	,	-27858	,	40.630142	,	59
50,5	,	80447	,	-28186	,	-27859	,	39.725616	,	59
50,5	,	80479	,	-28190	,	-27866	,	36.15499	,	56
50,5	,	80495	,	-28187	,	-27865	,	30.657764	,	50
50,5	,	80527	,	-28193	,	-27856	,	24.112516	,	42
50,5	,	80543	,	-28186	,	-27850	,	17.330256	,	33
50,5	,	80559	,	-28181	,	-27852	,	11.043815	,	23
50,5	,	80591	,	-28189	,	-27850	,	5.831218	,	14
50,5	,	80607	,	-28180	,	-27859	,	1.9635258	,	7
50,5	,	80623	,	-28184	,	-27866	,	-0.5421033	,	2
50,5	,	80655	,	-28189	,	-27853	,	-1.8521636	,	0
50,5	,	80671	,	-28193	,	-27849	,	-2.3339837	,	0
50,5	,	80703	,	-28205	,	-27862	,	-2.4674237	,	0
50,5	,	80719	,	-28199	,	-27878	,	-2.677709	,	0
50,5	,	80735	,	-28202	,	-27870	,	-3.1470346	,	0
50,5	,	80767	,	-28211	,	-27873	,	-3.8443089	,	0
50,5	,	80783	,	-28224	,	-27880	,	-4.792198	,	0
50,5	,	80799	,	-28236	,	-27893	,	-6.168237	,	0
50,5	,	80831	,	-28242	,	-27890	,	-8.145522	,	0
50,5	,	80847	,	-28251	,	-27891	,	-10.712533	,	0
50,5	,	80863	,	-28258	,	-27898	,	-13.664961	,	0
50,5	,	80895	,	-28253	,	-27900	,	-16.658281	,	0
50,6	,	80911	,	-28261	,	-27906	,	-19.24814	,	0
50,6	,	80943	,	-28270	,	-27905	,	-21.100733	,	0
50,6	,	80959	,	-28279	,	-27912	,	-22.188597	,	0
50,6	,	80975	,	-28270	,	-27900	,	-22.623539	,	0
50,6	,	81007	,	-28288	,	-27924	,	-22.45485	,	0
50,6	,	81023	,	-28300	,	-27929	,	-21.854391	,	0
50,6	,	81039	,	-28307	,	-27922	,	-21.21717	,	0
50,6	,	81071	,	-28323	,	-27934	,	-20.917107	,	0
50,6	,	81087	,	-28310	,	-27940	,	-21.079351	,	0
50,6	,	81119	,	-28290	,	-27941	,	-21.33854	,	0
50,6	,	81135	,	-28287	,	-27923	,	-20.881653	,	0
50,6	,	81151	,	-28258	,	-27914	,	-18.924553	,	0
50,6	,	81183	,	-28237	,	-27910	,	-14.933634	,	1
50,6	,	81199	,	-28240	,	-27903	,	-8.7630625	,	4
50,6	,	81215	,	-28233	,	-27901	,	-0.9709997	,	10
50,6	,	81247	,	-28227	,	-27895	,	7.354776	,	17
50,6	,	81263	,	-28210	,	-27895	,	15.196701	,	25
50,6	,	81279	,	-28200	,	-27893	,	21.957949	,	32
50,6	,	81311	,	-28214	,	-27888	,	27.300734	,	38
50,6	,	81327	,	-28228	,	-27896	,	30.742653	,	43
50,6	,	81359	,	-28211	,	-27895	,	31.783941	,	46
50,6	,	81375	,	-28226	,	-27902	,	30.410587	,	46
50,6	,	81391	,	-28209	,	-27881	,	27.11293	,	43
50,6	,	81423	,	-28198	,	-27887	,	22.712667	,	37
50,6	,	81439	,	-28206	,	-27905	,	18.164398	,	30
50,6	,	81455	,	-28210	,	-27876	,	14.076967	,	22
50,6	,	81487	,	-28201	,	-27897	,	10.612876	,	15
50,6	,	81503	,	-28196	,	-27880	,	7.867134	,	9
50,6	,	81535	,	-28202	,	-27895	,	5.9444265	,	4
50,6	,	81551	,	-28215	,	-27909	,	4.6897287	,	1
50,6	,	81567	,	-28211	,	-27908	,	3.6863458	,	0
50,6	,	81599	,	-28214	,	-27890	,	2.607682	,	0
50,6	,	81614	,	-28232	,	-27911	,	1.3019478	,	0
50,6	,	81630	,	-28218	,	-27895	,	-0.33440387	,	0
50,6	,	81662	,	-28233	,	-27927	,	-2.247706	,	0
50,6	,	81678	,	-28240	,	-27927	,	-4.295614	,	0
50,6	,	81695	,	-28232	,	-27904	,	-6.384491	,	0
50,6	,	81727	,	-28246	,	-27908	,	-8.346527	,	0
50,6	,	81743	,	-28252	,	-27929	,	-10.051536	,	0
50,6	,	81775	,	-28259	,	-27934	,	-11.557877	,	0
50,6	,	81791	,	-28276	,	-27941	,	-13.015239	,	0
50,6	,	81806	,	-28278	,	-27921	,	-14.589966	,	0
50,6	,	81839	,	-28276	,	-27929	,	-16.297771	,	0
50,6	,	81854	,	-28285	,	-27942	,	-17.905136	,	0
50,6	,	81871	,	-28296	,	-27955	,	-19.192919	,	0
50,7	,	81903	,	-28313	,	-27963	,	-20.214949	,	0
50,7	,	81918	,	-28317	,	-27966	,	-21.210388	,	0
50,7	,	81951	,	-28312	,	-27937	,	-22.2627	,	0
50,7	,	81967	,	-28310	,	-27961	,	-23.09393	,	0
50,7	,	81982	,	-28285	,	-27946	,	-23.147272	,	0
50,7	,	82014	,	-28246	,	-27915	,	-21.607422	,	0
50,7	,	82030	,	-28223	,	-27913	,	-17.517776	,	1
50,7	,	82046	,	-28209	,	-27901	,	-10.36284	,	5
50,7	,	82079	,	-28185	,	-27890	,	-0.48575878	,	12
50,7	,	82095	,	-28181	,	-27883	,	11.105711	,	21
50,7	,	82127	,	-28170	,	-27879	,	23.051727	,	32
50,7	,	82142	,	-28168	,	-27886	,	33.91154	,	43
50,7	,	82158	,	-28169	,	-27882	,	42.45421	,	53
50,7	,	82190	,	-28169	,	-27862	,	47.828804	,	61
50,7	,	82207	,	-28182	,	-27873	,	49.611694	,	66
50,7	,	82223	,	-28173	,	-27875	,	47.831173	,	66
50,7	,	82254	,	-28166	,	-27884	,	43.086273	,	62
50,7	,	82271	,	-28167	,	-27885	,	36.466602	,	55
50,7	,	82302	,	-28157	,	-27877	,	29.153406	,	46
50,7	,	82318	,	-28160	,	-27882	,	22.131237	,	35
50,7	,	82334	,	-28165	,	-27870	,	16.017962	,	24
50,7	,	82366	,	-28169	,	-27873	,	10.980951	,	14
50,7	,	82382	,	-28174	,	-27889	,	6.8954477	,	6
50,7	,	82399	,	-28160	,	-27867	,	3.625115	,	1
50,7	,	82430	,	-28175	,	-27881	,	1.1495867	,	0
50,7	,	82447	,	-28177	,	-27871	,	-0.62332845	,	0
50,7	,	82478	,	-28187	,	-27889	,	-1.986444	,	0
50,7	,	82494	,	-28173	,	-27885	,	-3.1942317	,	0
50,7	,	82510	,	-28200	,	-27893	,	-4.3297553	,	0
50,7	,	82542	,	-28190	,	-27896	,	-5.4824853	,	0
50,7	,	82558	,	-28197	,	-27903	,	-6.718516	,	0
50,7	,	82575	,	-28200	,	-27907	,	-7.9552183	,	0
50,7	,	82606	,	-28202	,	-27910	,	-9.077582	,	0
50,7	,	82622	,	-28222	,	-27916	,	-10.086701	,	0
50,7	,	82638	,	-28235	,	-27892	,	-11.208347	,	0
50,7	,	82670	,	-28243	,	-27917	,	-12.776052	,	0
50,7	,	82686	,	-28226	,	-27927	,	-14.805756	,	0
50,7	,	82718	,	-28241	,	-27931	,	-16.84004	,	0
50,7	,	82734	,	-28241	,	-27920	,	-18.371868	,	0
50,7	,	82750	,	-28249	,	-27942	,	-19.20493	,	0
50,7	,	82782	,	-28256	,	-27938	,	-19.399252	,	0
50,7	,	82798	,	-28263	,	-27948	,	-19.162064	,	0
50,7	,	82814	,	-28264	,	-27950	,	-18.72958	,	0
50,7	,	82846	,	-28270	,	-27950	,	-18.235546	,	0
50,7	,	82862	,	-28276	,	-27958	,	-17.72966	,	0
50,7	,	82894	,	-28283	,	-27916	,	-17.270758	,	0
50,8	,	82910	,	-28237	,	-27931	,	-16.698261	,	0
50,8	,	82926	,	-28210	,	-27903	,	-15.201699	,	0
50,8	,	82958	,	-28195	,	-27901	,	-11.662113	,	1
50,8	,	82974	,	-28181	,	-27899	,	-5.575051	,	4
50,8	,	82990	,	-28156	,	-27899	,	2.7254586	,	10
50,8	,	83022	,	-28129	,	-27889	,	12.554906	,	18
50,8	,	83038	,	-28138	,	-27884	,	23.080902	,	27
50,8	,	83054	,	-28126	,	-27876	,	33.145428	,	37
50,8	,	83086	,	-28124	,	-27873	,	41.487385	,	47
50,8	,	83102	,	-28108	,	-27865	,	47.270515	,	55
50,8	,	83134	,	-28134	,	-27836	,	50.133644	,	60
50,8	,	83150	,	-28116	,	-27873	,	49.943924	,	61
50,8	,	83166	,	-28106	,	-27870	,	46.982365	,	58
50,8	,	83198	,	-28112	,	-27860	,	42.07199	,	52
50,8	,	83214	,	-28100	,	-27871	,	36.1464	,	44
50,8	,	83230	,	-28094	,	-27861	,	30.022518	,	35
50,8	,	83262	,	-28088	,	-27861	,	24.43194	,	25
50,8	,	83278	,	-28089	,	-27851	,	19.857513	,	15
50,8	,	83310	,	-28068	,	-27857	,	16.502375	,	7
50,8	,	83326	,	-28065	,	-27873	,	14.483634	,	2
50,8	,	83342	,	-28083	,	-27879	,	13.700528	,	0
50,8	,	83374	,	-28079	,	-27840	,	13.5847645	,	0
50,8	,	83390	,	-28089	,	-27866	,	13.391556	,	0
50,8	,	83406	,	-28096	,	-27861	,	12.568414	,	0
50,8	,	83438	,	-28095	,	-27858	,	10.830103	,	0
50,8	,	83454	,	-28116	,	-27869	,	8.134818	,	0
50,8	,	83470	,	-28108	,	-27876	,	4.590451	,	0
50,8	,	83502	,	-28119	,	-27881	,	0.47791576	,	0
50,8	,	83518	,	-28149	,	-27871	,	-3.9045744	,	0
50,8	,	83550	,	-28139	,	-27884	,	-8.472586	,	0
50,8	,	83566	,	-28143	,	-27890	,	-13.022663	,	0
50,8	,	83582	,	-28154	,	-27901	,	-17.076355	,	0
50,8	,	83614	,	-28152	,	-27883	,	-20.248611	,	0
50,8	,	83630	,	-28146	,	-27905	,	-22.296902	,	0
50,8	,	83646	,	-28168	,	-27901	,	-23.085457	,	0
50,8	,	83678	,	-28171	,	-27911	,	-22.828331	,	0
50,8	,	83694	,	-28181	,	-27914	,	-22.023968	,	0
50,8	,	83726	,	-28182	,	-27910	,	-21.102169	,	0
50,8	,	83742	,	-28211	,	-27904	,	-20.382998	,	0
50,8	,	83758	,	-28200	,	-27929	,	-20.159054	,	0
50,8	,	83790	,	-28212	,	-27934	,	-20.486633	,	0
50,8	,	83806	,	-28220	,	-27935	,	-21.152367	,	0
50,8	,	83822	,	-28208	,	-27951	,	-21.863798	,	0
50,8	,	83854	,	-28190	,	-27898	,	-22.114605	,	0
50,8	,	83870	,	-28140	,	-27899	,	-20.972252	,	0
50,8	,	83886	,	-28101	,	-27881	,	-17.18249	,	1
50,9	,	83918	,	-28103	,	-27882	,	-9.868828	,	4
50,9	,	83934	,	-28081	,	-27859	,	0.63957024	,	11
50,9	,	83965	,	-28073	,	-27868	,	12.980345	,	21
50,9	,	83982	,	-28061	,	-27862	,	25.51996	,	33
50,9	,	83998	,	-28060	,	-27858	,	36.756794	,	45
50,9	,	84030	,	-28067	,	-27865	,	45.4227	,	56
50,9	,	84046	,	-28063	,	-27857	,	50.595276	,	64
50,9	,	84062	,	-28056	,	-27862	,	51.965305	,	69
50,9	,	84094	,	-28061	,	-27856	,	49.91534	,	69
50,9	,	84110	,	-28046	,	-27849	,	45.261906	,	66
50,9	,	84141	,	-28058	,	-27859	,	38.989964	,	59
50,9	,	84157	,	-28038	,	-27836	,	32.05766	,	49
50,9	,	84173	,	-28039	,	-27850	,	25.339218	,	37
50,9	,	84206	,	-28035	,	-27849	,	19.5412	,	25
50,9	,	84222	,	-28036	,	-27843	,	15.001753	,	14
50,9	,	84238	,	-28047	,	-27855	,	11.647934	,	6
50,9	,	84270	,	-28040	,	-27830	,	9.1450815	,	1
50,9	,	84285	,	-28044	,	-27853	,	7.163537	,	0
50,9	,	84317	,	-28040	,	-27867	,	5.5299783	,	0
50,9	,	84334	,	-28046	,	-27849	,	4.15791	,	0
50,9	,	84349	,	-28051	,	-27863	,	2.944844	,	0
50,9	,	84382	,	-28059	,	-27865	,	1.7171295	,	0
50,9	,	84398	,	-28063	,	-27862	,	0.27573776	,	0
50,9	,	84414	,	-28069	,	-27863	,	-1.4938581	,	0
50,9	,	84445	,	-28088	,	-27877	,	-3.643504	,	0
50,9	,	84461	,	-28082	,	-27877	,	-6.204107	,	0
50,9	,	84477	,	-28088	,	-27886	,	-9.023684	,	0
50,9	,	84509	,	-28097	,	-27887	,	-11.777749	,	0
50,9	,	84525	,	-28100	,	-27896	,	-14.220899	,	0
50,9	,	84558	,	-28105	,	-27897	,	-16.225296	,	0
50,9	,	84574	,	-28106	,	-27902	,	-17.686272	,	0
50,9	,	84590	,	-28123	,	-27894	,	-18.578518	,	0
50,9	,	84621	,	-28124	,	-27896	,	-19.053862	,	0
50,9	,	84637	,	-28130	,	-27908	,	-19.316566	,	0
50,9	,	84653	,	-28137	,	-27915	,	-19.46252	,	0
50,9	,	84685	,	-28140	,	-27921	,	-19.518421	,	0
50,9	,	84701	,	-28157	,	-27910	,	-19.539871	,	0
50,9	,	84733	,	-28156	,	-27925	,	-19.64381	,	0
50,9	,	84750	,	-28186	,	-27928	,	-19.995583	,	0
50,9	,	84766	,	-28175	,	-27938	,	-20.757193	,	0
50,9	,	84797	,	-28148	,	-27906	,	-21.700115	,	0
50,9	,	84813	,	-28114	,	-27905	,	-21.819227	,	0
50,9	,	84829	,	-28073	,	-27878	,	-19.65155	,	0
50,9	,	84861	,	-28067	,	-27876	,	-14.100225	,	2
50,9	,	84877	,	-28052	,	-27867	,	-5.161475	,	7
50,9	,	84893	,	-28031	,	-27857	,	6.1268806	,	15
50,10	,	84926	,	-28034	,	-27856	,	18.296572	,	26
50,10	,	84941	,	-28023	,	-27856	,	29.800343	,	38
50,10	,	84973	,	-28023	,	-27860	,	39.26257	,	49
50,10	,	84989	,	-28020	,	-27865	,	45.755768	,	58
50,10	,	85005	,	-28030	,	-27858	,	48.823475	,	64
50,10	,	85037	,	-28031	,	-27863	,	48.385128	,	67
50,10	,	85053	,	-28031	,	-27857	,	44.750954	,	65
50,10	,	85069	,	-28023	,	-27861	,	38.684616	,	60
50,10	,	85101	,	-28023	,	-27854	,	31.283825	,	52
50,10	,	85117	,	-28017	,	-27857	,	23.670252	,	41
50,10	,	85149	,	-28017	,	-27851	,	16.735125	,	29
50,10	,	85165	,	-28017	,	-27855	,	11.027387	,	18
50,10	,	85181	,	-28032	,	-27846	,	6.6707287	,	9
50,10	,	85213	,	-28027	,	-27852	,	3.416563	,	3
50,10	,	85229	,	-28014	,	-27860	,	1.0213656	,	0
50,10	,	85245	,	-28031	,	-27867	,	-0.56037426	,	0
50,10	,	85277	,	-28033	,	-27853	,	-1.4885483	,	0
50,10	,	85293	,	-28027	,	-27855	,	-2.0819356	,	0
50,10	,	85309	,	-28052	,	-27872	,	-2.6053002	,	0
50,10	,	85341	,	-28050	,	-27880	,	-3.3561606	,	0
50,10	,	85357	,	-28057	,	-27883	,	-4.5900183	,	0
50,10	,	85389	,	-28073	,	-27880	,	-6.360502	,	0
50,10	,	85405	,	-28076	,	-27886	,	-8.642647	,	0
50,10	,	85421	,	-28070	,	-27893	,	-11.2693405	,	0
50,10	,	85453	,	-28097	,	-27895	,	-13.911019	,	0
50,10	,	85469	,	-28091	,	-27903	,	-16.371466	,	0
50,10	,	85485	,	-28107	,	-27909	,	-18.593254	,	0
50,10	,	85517	,	-28114	,	-27881	,	-20.527864	,	0
50,10	,	85533	,	-28129	,	-27887	,	-22.211512	,	0
50,10	,	85565	,	-28123	,	-27909	,	-23.6899	,	0
50,10	,	85581	,	-28130	,	-27919	,	-24.836542	,	0
50,10	,	85597	,	-28136	,	-27926	,	-25.441813	,	0
50,10	,	85629	,	-28145	,	-27924	,	-25.448296	,	0
50,10	,	85645	,	-28167	,	-27939	,	-25.061258	,	0
50,10	,	85661	,	-28172	,	-27940	,	-24.691048	,	0
50,10	,	85693	,	-28159	,	-27935	,	-24.57837	,	0
50,10	,	85709	,	-28153	,	-27929	,	-24.422218	,	0
50,10	,	85725	,	-28140	,	-27927	,	-23.565697	,	0
50,10	,	85757	,	-28116	,	-27895	,	-21.35804	,	0
50,10	,	85773	,	-28071	,	-27893	,	-17.148258	,	2
50,10	,	85805	,	-28057	,	-27886	,	-10.32745	,	6
50,10	,	85821	,	-28044	,	-27876	,	-0.8534641	,	12
50,10	,	85837	,	-28042	,	-27881	,	10.384524	,	21
50,10	,	85869	,	-28047	,	-27877	,	21.819195	,	32
50,10	,	85885	,	-28040	,	-27869	,	31.750713	,	43
50,11	,	85901	,	-28044	,	-27874	,	38.894314	,	52
50,11	,	85933	,	-28045	,	-27883	,	42.61157	,	59
50,11	,	85949	,	-28050	,	-27883	,	42.817276	,	62
50,11	,	85981	,	-28056	,	-27908	,	39.8481	,	60
50,11	,	85997	,	-28036	,	-27854	,	34.45184	,	56
50,11	,	86013	,	-28032	,	-27882	,	27.811516	,	50
50,11	,	86045	,	-28036	,	-27880	,	21.176445	,	41
50,11	,	86061	,	-28034	,	-27888	,	15.340668	,	30
50,11	,	86077	,	-28036	,	-27878	,	10.601061	,	19
50,11	,	86109	,	-28040	,	-27893	,	6.9596252	,	10
50,11	,	86125	,	-28038	,	-27889	,	4.2529836	,	3
50,11	,	86157	,	-28039	,	-27888	,	2.2912297	,	0
50,11	,	86173	,	-28035	,	-27897	,	0.949548	,	0
50,11	,	86189	,	-28053	,	-27893	,	0.07483435	,	0
50,11	,	86221	,	-28054	,	-27892	,	-0.65081847	,	0
50,11	,	86237	,	-28056	,	-27880	,	-1.5565722	,	0
50,11	,	86253	,	-28061	,	-27913	,	-2.7542002	,	0
50,11	,	86285	,	-28071	,	-27920	,	-4.2218404	,	0
50,11	,	86301	,	-28091	,	-27920	,	-6.021628	,	0
50,11	,	86316	,	-28091	,	-27929	,	-8.306816	,	0
50,11	,	86349	,	-28105	,	-27924	,	-11.108766	,	0
50,11	,	86365	,	-28101	,	-27929	,	-14.218768	,	0
50,11	,	86397	,	-28110	,	-27937	,	-17.250795	,	0
50,11	,	86413	,	-28131	,	-27931	,	-19.885502	,	0
50,11	,	86429	,	-28130	,	-27936	,	-22.082218	,	0
50,11	,	86461	,	-28147	,	-27952	,	-23.922653	,	0
50,11	,	86477	,	-28148	,	-27935	,	-25.43953	,	0
50,11	,	86493	,	-28165	,	-27950	,	-26.653538	,	0
50,11	,	86525	,	-28181	,	-27949	,	-27.669113	,	0
50,11	,	86541	,	-28177	,	-27949	,	-28.62683	,	0
50,11	,	86573	,	-28193	,	-27963	,	-29.500446	,	0
50,11	,	86589	,	-28192	,	-27949	,	-30.130737	,	0
50,11	,	86605	,	-28197	,	-27961	,	-30.352837	,	0
50,11	,	86637	,	-28217	,	-27966	,	-30.093445	,	0
50,11	,	86653	,	-28205	,	-27973	,	-29.437557	,	0
50,11	,	86669	,	-28184	,	-27950	,	-28.27745	,	0
50,11	,	86701	,	-28155	,	-27961	,	-25.987026	,	1
50,11	,	86717	,	-28136	,	-27933	,	-21.728598	,	3
50,11	,	86733	,	-28125	,	-27922	,	-15.058432	,	7
50,11	,	86765	,	-28098	,	-27910	,	-6.1980944	,	13
50,11	,	86781	,	-28097	,	-27910	,	4.136194	,	21
50,11	,	86812	,	-28092	,	-27921	,	14.87412	,	31
50,11	,	86828	,	-28093	,	-27924	,	24.719175	,	41
50,11	,	86844	,	-28090	,	-27918	,	32.49759	,	50
50,11	,	86876	,	-28097	,	-27918	,	37.430817	,	57
50,11	,	86893	,	-28105	,	-27934	,	39.1547	,	60
50,12	,	86909	,	-28100	,	-27925	,	37.716026	,	59
50,12	,	86941	,	-28107	,	-27936	,	33.61287	,	55
50,12	,	86957	,	-28104	,	-27913	,	27.666737	,	49
50,12	,	86988	,	-28096	,	-27923	,	20.849394	,	41
50,12	,	87004	,	-28086	,	-27919	,	14.208371	,	31
50,12	,	87020	,	-28081	,	-27914	,	8.69331	,	21
50,12	,	87052	,	-28088	,	-27918	,	4.8460026	,	12
50,12	,	87069	,	-28094	,	-27922	,	2.6038404	,	5
50,12	,	87085	,	-28087	,	-27912	,	1.5096593	,	1
50,12	,	87116	,	-28103	,	-27927	,	1.0639822	,	0
50,12	,	87132	,	-28100	,	-27932	,	0.8090792	,	0
50,12	,	87148	,	-28095	,	-27932	,	0.43480402	,	0
50,12	,	87180	,	-28110	,	-27928	,	-0.14075127	,	0
50,12	,	87196	,	-28114	,	-27932	,	-0.9929024	,	0
50,12	,	87228	,	-28133	,	-27949	,	-2.3180954	,	0
50,12	,	87244	,	-28138	,	-27934	,	-4.325726	,	0
50,12	,	87260	,	-28146	,	-27938	,	-7.071889	,	0
50,12	,	87292	,	-28152	,	-27954	,	-10.360115	,	0
50,12	,	87308	,	-28164	,	-27952	,	-13.856767	,	0
50,12	,	87324	,	-28158	,	-27974	,	-17.210867	,	0
50,12	,	87357	,	-28166	,	-27954	,	-20.032387	,	0
50,12	,	87372	,	-28178	,	-27974	,	-22.02773	,	0
50,12	,	87404	,	-28182	,	-27963	,	-23.19386	,	0
50,12	,	87420	,	-28186	,	-27972	,	-23.691662	,	0
50,12	,	87436	,	-28190	,	-27984	,	-23.640999	,	0
50,12	,	87468	,	-28219	,	-27976	,	-23.242361	,	0
50,12	,	87484	,	-28223	,	-27980	,	-22.938793	,	0
50,12	,	87500	,	-28231	,	-27981	,	-23.13227	,	0
50,12	,	87532	,	-28240	,	-27997	,	-23.872025	,	0
50,12	,	87548	,	-28243	,	-27987	,	-24.953957	,	0
50,12	,	87564	,	-28251	,	-27994	,	-26.089115	,	0
50,12	,	87596	,	-28243	,	-27994	,	-26.941156	,	0
50,12	,	87612	,	-28213	,	-27987	,	-26.97431	,	0
50,12	,	87644	,	-28202	,	-27973	,	-25.383179	,	0
50,12	,	87660	,	-28171	,	-27980	,	-21.441753	,	1
50,12	,	87676	,	-28166	,	-27964	,	-14.891641	,	4
50,12	,	87708	,	-28146	,	-27950	,	-6.087329	,	10
50,12	,	87724	,	-28132	,	-27961	,	4.141407	,	18
50,12	,	87740	,	-28143	,	-27953	,	14.692711	,	28
50,12	,	87772	,	-28137	,	-27951	,	24.253304	,	38
50,12	,	87788	,	-28133	,	-27948	,	31.637203	,	47
50,12	,	87820	,	-28130	,	-27940	,	36.223362	,	54
50,12	,	87836	,	-28136	,	-27964	,	37.921715	,	58
50,12	,	87852	,	-28130	,	-27956	,	36.955338	,	58
50,12	,	87884	,	-28155	,	-27952	,	33.7015	,	55
50,13	,	87900	,	-28134	,	-27941	,	28.615826	,	49
50,13	,	87916	,	-28149	,	-27949	,	22.35834	,	41
50,13	,	87948	,	-28146	,	-27956	,	15.7149725	,	31
50,13	,	87964	,	-28137	,	-27949	,	9.386459	,	21
50,13	,	87980	,	-28131	,	-27942	,	4.036805	,	12
50,13	,	88012	,	-28136	,	-27941	,	0.18015909	,	5
50,13	,	88028	,	-28133	,	-27948	,	-2.0695891	,	1
50,13	,	88060	,	-28139	,	-27955	,	-2.9585779	,	0
50,13	,	88076	,	-28144	,	-27953	,	-2.928301	,	0
50,13	,	88092	,	-28145	,	-27972	,	-2.4809127	,	0
50,13	,	88124	,	-28150	,	-27959	,	-2.0346358	,	0
50,13	,	88140	,	-28161	,	-27956	,	-1.902582	,	0
50,13	,	88156	,	-28164	,	-27965	,	-2.336977	,	0
50,13	,	88188	,	-28173	,	-27961	,	-3.461557	,	0
50,13	,	88204	,	-28183	,	-27968	,	-5.2533617	,	0
50,13	,	88236	,	-28185	,	-27979	,	-7.594117	,	0
50,13	,	88252	,	-28192	,	-27983	,	-10.255066	,	0
50,13	,	88268	,	-28209	,	-27988	,	-12.999365	,	0
50,13	,	88300	,	-28228	,	-27985	,	-15.801898	,	0
50,13	,	88316	,	-28214	,	-27987	,	-18.704712	,	0
50,13	,	88332	,	-28212	,	-28017	,	-21.38002	,	0
50,13	,	88364	,	-28222	,	-28017	,	-23.232857	,	0
50,13	,	88380	,	-28244	,	-27988	,	-24.033499	,	0
50,13	,	88412	,	-28240	,	-28011	,	-24.085548	,	0
50,13	,	88428	,	-28260	,	-28009	,	-23.822102	,	0
50,13	,	88444	,	-28263	,	-28018	,	-23.575138	,	0
50,13	,	88476	,	-28285	,	-28019	,	-23.611439	,	0
50,13	,	88492	,	-28275	,	-28026	,	-24.065216	,	0
50,13	,	88508	,	-28293	,	-28040	,	-24.816448	,	0
50,13	,	88540	,	-28298	,	-28039	,	-25.631779	,	0
50,13	,	88556	,	-28289	,	-28027	,	-26.286594	,	0
50,13	,	88572	,	-28263	,	-28012	,	-26.30265	,	0
50,13	,	88604	,	-28222	,	-28017	,	-24.739779	,	0
50,13	,	88620	,	-28222	,	-27991	,	-20.59591	,	1
50,13	,	88652	,	-28219	,	-27981	,	-13.661438	,	5
50,13	,	88668	,	-28186	,	-27972	,	-4.6788836	,	11
50,13	,	88684	,	-28188	,	-27983	,	5.3449297	,	19
50,13	,	88716	,	-28177	,	-27976	,	15.412565	,	29
50,13	,	88732	,	-28193	,	-27967	,	24.399452	,	39
50,13	,	88748	,	-28191	,	-27982	,	31.169207	,	47
50,13	,	88780	,	-28190	,	-27973	,	34.936237	,	53
50,13	,	88796	,	-28189	,	-27992	,	35.558098	,	56
50,13	,	88828	,	-28201	,	-27989	,	33.405903	,	55
50,13	,	88844	,	-28182	,	-28004	,	29.135614	,	51
50,13	,	88860	,	-28190	,	-27965	,	23.650377	,	45
50,13	,	88891	,	-28185	,	-27968	,	17.876503	,	37
50,14	,	88907	,	-28184	,	-27972	,	12.500803	,	27
50,14	,	88923	,	-28182	,	-27992	,	7.9770393	,	17
50,14	,	88956	,	-28188	,	-27972	,	4.5216923	,	9
50,14	,	88972	,	-28172	,	-27965	,	2.1516137	,	3
50,14	,	88988	,	-28194	,	-27975	,	0.77789307	,	0
50,14	,	89020	,	-28198	,	-27984	,	0.064451456	,	0
50,14	,	89036	,	-28186	,	-27979	,	-0.46096838	,	0
50,14	,	89068	,	-28187	,	-27984	,	-0.9628401	,	0
50,14	,	89083	,	-28199	,	-28009	,	-1.3798587	,	0
50,14	,	89099	,	-28205	,	-27972	,	-1.8205591	,	0
50,14	,	89132	,	-28211	,	-27998	,	-2.534154	,	0
50,14	,	89148	,	-28220	,	-28001	,	-3.6950572	,	0
50,14	,	89164	,	-28238	,	-27995	,	-5.413228	,	0
50,14	,	89196	,	-28233	,	-27995	,	-7.7456493	,	0
50,14	,	89212	,	-28232	,	-28019	,	-10.481486	,	0
50,14	,	89243	,	-28238	,	-28016	,	-13.126548	,	0
50,14	,	89259	,	-28257	,	-28015	,	-15.312848	,	0
50,14	,	89275	,	-28258	,	-28010	,	-17.048347	,	0
50,14	,	89308	,	-28255	,	-28017	,	-18.428059	,	0
50,14	,	89324	,	-28273	,	-28040	,	-19.409063	,	0
50,14	,	89340	,	-28276	,	-28017	,	-20.019733	,	0
50,14	,	89372	,	-28285	,	-28047	,	-20.421482	,	0
50,14	,	89388	,	-28287	,	-28052	,	-20.71738	,	0
50,14	,	89404	,	-28293	,	-28053	,	-20.901428	,	0
50,14	,	89436	,	-28308	,	-28059	,	-20.979572	,	0
50,14	,	89452	,	-28319	,	-28063	,	-21.099316	,	0
50,14	,	89484	,	-28321	,	-28061	,	-21.446182	,	0
50,14	,	89500	,	-28316	,	-28060	,	-21.967049	,	0
50,14	,	89515	,	-28304	,	-28045	,	-22.256588	,	0
50,14	,	89547	,	-28277	,	-28035	,	-21.625473	,	0
50,14	,	89563	,	-28257	,	-28043	,	-19.25837	,	0
50,14	,	89579	,	-28237	,	-27989	,	-14.541538	,	2
50,14	,	89611	,	-28228	,	-28011	,	-7.4177217	,	6
50,14	,	89628	,	-28227	,	-28002	,	1.4735489	,	13
50,14	,	89659	,	-28219	,	-28006	,	10.962116	,	21
50,14	,	89675	,	-28220	,	-28001	,	19.759598	,	30
50,14	,	89691	,	-28201	,	-28006	,	26.88607	,	38
50,14	,	89723	,	-28220	,	-28003	,	31.811848	,	45
50,14	,	89739	,	-28224	,	-28012	,	34.211754	,	49
50,14	,	89756	,	-28231	,	-28011	,	33.859188	,	51
50,14	,	89787	,	-28219	,	-28007	,	30.92812	,	49
50,14	,	89803	,	-28229	,	-28023	,	26.099352	,	45
50,14	,	89819	,	-28213	,	-27983	,	20.298561	,	38
50,14	,	89851	,	-28201	,	-27989	,	14.541428	,	30
50,14	,	89868	,	-28222	,	-27998	,	9.6944	,	21
50,15	,	89899	,	-28210	,	-28004	,	6.0700216	,	13
50,15	,	89916	,	-28222	,	-28004	,	3.5221615	,	6
50,15	,	89931	,	-28217	,	-27990	,	1.789217	,	2
50,15	,	89964	,	-28215	,	-28006	,	0.6395838	,	0
50,15	,	89979	,	-28210	,	-27994	,	-0.025425076	,	0
50,15	,	89995	,	-28226	,	-28006	,	-0.28108364	,	0
50,15	,	90027	,	-28230	,	-28004	,	-0.40779248	,	0
50,15	,	90043	,	-28232	,	-28026	,	-0.783885	,	0
50,15	,	90075	,	-28235	,	-28001	,	-1.5946045	,	0
50,15	,	90091	,	-28245	,	-28015	,	-2.827373	,	0
50,15	,	90107	,	-28257	,	-28019	,	-4.4775023	,	0
50,15	,	90139	,	-28264	,	-28018	,	-6.6002817	,	0
50,15	,	90155	,	-28271	,	-28024	,	-9.175168	,	0
50,15	,	90171	,	-28285	,	-28033	,	-12.066124	,	0
50,15	,	90203	,	-28286	,	-28032	,	-15.099531	,	0
50,15	,	90219	,	-28278	,	-28034	,	-17.966845	,	0
50,15	,	90235	,	-28289	,	-28043	,	-20.192448	,	0
50,15	,	90267	,	-28305	,	-28040	,	-21.513268	,	0
50,15	,	90283	,	-28296	,	-28062	,	-22.05136	,	0
50,15	,	90315	,	-28306	,	-28029	,	-21.97548	,	0
50,15	,	90331	,	-28326	,	-28060	,	-21.459978	,	0
50,15	,	90347	,	-28335	,	-28064	,	-20.913513	,	0
50,15	,	90379	,	-28337	,	-28064	,	-20.749207	,	0
50,15	,	90395	,	-28350	,	-28071	,	-21.07	,	0
50,15	,	90411	,	-28354	,	-28086	,	-21.767096	,	0
50,15	,	90443	,	-28371	,	-28085	,	-22.719147	,	0
50,15	,	90459	,	-28362	,	-28084	,	-23.796303	,	0
50,15	,	90491	,	-28340	,	-28074	,	-24.596783	,	0
50,15	,	90507	,	-28319	,	-28063	,	-24.26997	,	0
50,15	,	90523	,	-28297	,	-28061	,	-21.850277	,	0
50,15	,	90555	,	-28276	,	-28029	,	-16.748104	,	2
50,15	,	90571	,	-28240	,	-28039	,	-8.877106	,	7
50,15	,	90587	,	-28232	,	-28016	,	1.4198112	,	14
50,15	,	90619	,	-28245	,	-28014	,	13.157629	,	24
50,15	,	90635	,	-28240	,	-28018	,	24.626574	,	35
50,15	,	90667	,	-28241	,	-28009	,	34.051586	,	46
50,15	,	90683	,	-28235	,	-28011	,	40.310276	,	55
50,15	,	90699	,	-28236	,	-28009	,	43.066467	,	61
50,15	,	90731	,	-28245	,	-28015	,	42.521637	,	63
50,15	,	90747	,	-28241	,	-28026	,	39.15229	,	61
50,15	,	90763	,	-28240	,	-28028	,	33.675392	,	56
50,15	,	90795	,	-28244	,	-28024	,	26.994999	,	49
50,15	,	90811	,	-28224	,	-28017	,	20.058403	,	39
50,15	,	90827	,	-28217	,	-28023	,	13.843081	,	28
50,15	,	90859	,	-28231	,	-28001	,	9.098095	,	17
50,15	,	90875	,	-28237	,	-28018	,	5.8993855	,	8
50,16	,	90907	,	-28231	,	-28020	,	3.8063273	,	2
50,16	,	90923	,	-28242	,	-28010	,	2.363174	,	0
50,16	,	90939	,	-28239	,	-28019	,	1.2418263	,	0
50,16	,	90971	,	-28236	,	-28029	,	0.2592578	,	0
50,16	,	90987	,	-28228	,	-28022	,	-0.53881335	,	0
50,16	,	91003	,	-28241	,	-28027	,	-1.019797	,	0
50,16	,	91035	,	-28239	,	-28022	,	-1.2269628	,	0
50,16	,	91051	,	-28262	,	-28029	,	-1.4465439	,	0
50,16	,	91083	,	-28257	,	-28038	,	-2.069002	,	0
50,16	,	91099	,	-28275	,	-28041	,	-3.357638	,	0
50,16	,	91115	,	-28283	,	-28043	,	-5.3866425	,	0
50,16	,	91147	,	-28283	,	-28045	,	-8.079642	,	0
50,16	,	91163	,	-28280	,	-28056	,	-11.093286	,	0
50,16	,	91179	,	-28285	,	-28055	,	-13.875281	,	0
50,16	,	91211	,	-28282	,	-28058	,	-15.945219	,	0
50,16	,	91227	,	-28277	,	-28053	,	-16.989077	,	0
50,16	,	91243	,	-28299	,	-28060	,	-16.934332	,	0
50,16	,	91275	,	-28298	,	-28058	,	-16.103868	,	0
50,16	,	91291	,	-28322	,	-28066	,	-15.087639	,	0
50,16	,	91323	,	-28320	,	-28067	,	-14.453611	,	1
50,16	,	91339	,	-28332	,	-28075	,	-14.52778	,	1
50,16	,	91355	,	-28334	,	-28084	,	-15.308976	,	1
50,16	,	91387	,	-28341	,	-28081	,	-16.572456	,	1
50,16	,	91403	,	-28347	,	-28083	,	-18.021055	,	1
50,16	,	91419	,	-28352	,	-28089	,	-19.398306	,	1
50,16	,	91451	,	-28351	,	-28077	,	-20.487225	,	1
50,16	,	91466	,	-28309	,	-28065	,	-20.856874	,	1
50,16	,	91499	,	-28296	,	-28041	,	-19.662916	,	1
50,16	,	91515	,	-28275	,	-28042	,	-16.069078	,	1
50,16	,	91531	,	-28253	,	-28028	,	-9.802961	,	4
50,16	,	91563	,	-28238	,	-28027	,	-1.1848555	,	10
50,16	,	91578	,	-28245	,	-28015	,	8.921627	,	18
50,16	,	91594	,	-28234	,	-28018	,	19.164604	,	28
50,16	,	91626	,	-28231	,	-28021	,	28.15846	,	38
50,16	,	91643	,	-28221	,	-28013	,	34.96534	,	46
50,16	,	91659	,	-28234	,	-28027	,	39.118774	,	52
50,16	,	91691	,	-28223	,	-28012	,	40.458534	,	56
50,16	,	91707	,	-28226	,	-28025	,	39.1653	,	56
50,16	,	91738	,	-28229	,	-28008	,	35.73678	,	53
50,16	,	91754	,	-28236	,	-28007	,	30.74482	,	47
50,16	,	91771	,	-28224	,	-28004	,	24.781048	,	39
50,16	,	91802	,	-28220	,	-28004	,	18.590866	,	29
50,16	,	91818	,	-28227	,	-28002	,	12.922774	,	19
50,16	,	91835	,	-28206	,	-28006	,	8.292603	,	11
50,16	,	91867	,	-28205	,	-28007	,	5.068925	,	5
50,16	,	91883	,	-28209	,	-28011	,	3.421495	,	1
50,17	,	91915	,	-28209	,	-28013	,	3.0945714	,	0
50,17	,	91930	,	-28220	,	-28017	,	3.5087583	,	0
50,17	,	91946	,	-28222	,	-28013	,	4.0143375	,	0
50,17	,	91979	,	-28229	,	-28010	,	4.0804653	,	0
50,17	,	91995	,	-28243	,	-28012	,	3.3629239	,	0
50,17	,	92011	,	-28247	,	-28024	,	1.6688995	,	0
50,17	,	92042	,	-28253	,	-28033	,	-0.975667	,	0
50,17	,	92058	,	-28258	,	-28024	,	-4.287146	,	0
50,17	,	92074	,	-28258	,	-28052	,	-7.8340006	,	0
50,17	,	92106	,	-28252	,	-28034	,	-11.103145	,	0
50,17	,	92122	,	-28259	,	-28031	,	-13.589617	,	0
50,17	,	92155	,	-28259	,	-28039	,	-15.0078945	,	0
50,17	,	92171	,	-28271	,	-28046	,	-15.405758	,	0
50,17	,	92187	,	-28274	,	-28044	,	-15.093645	,	0
50,17	,	92219	,	-28295	,	-28034	,	-14.538333	,	0
50,17	,	92234	,	-28303	,	-28052	,	-14.276238	,	0
50,17	,	92250	,	-28293	,	-28056	,	-14.629391	,	0
50,17	,	92283	,	-28309	,	-28059	,	-15.468006	,	0
50,17	,	92299	,	-28314	,	-28058	,	-16.506956	,	0
50,17	,	92330	,	-28323	,	-28068	,	-17.61764	,	0
50,17	,	92346	,	-28329	,	-28073	,	-18.7518	,	0
50,17	,	92362	,	-28342	,	-28069	,	-19.87781	,	0
50,17	,	92394	,	-28327	,	-28073	,	-20.910236	,	0
50,17	,	92410	,	-28308	,	-28048	,	-21.438004	,	0
50,17	,	92426	,	-28293	,	-28053	,	-20.69589	,	0
50,17	,	92458	,	-28268	,	-28017	,	-17.956776	,	0
50,17	,	92474	,	-28252	,	-28028	,	-12.8427925	,	2
50,17	,	92506	,	-28237	,	-28016	,	-5.4461718	,	7
50,17	,	92522	,	-28226	,	-28021	,	3.6361923	,	14
50,17	,	92538	,	-28221	,	-28022	,	13.423271	,	23
50,17	,	92570	,	-28209	,	-27997	,	22.799551	,	32
50,17	,	92586	,	-28208	,	-28003	,	30.793062	,	41
50,17	,	92602	,	-28205	,	-28002	,	36.698154	,	48
50,17	,	92635	,	-28192	,	-28004	,	40.15071	,	53
50,17	,	92650	,	-28202	,	-28006	,	41.175564	,	56
50,17	,	92666	,	-28201	,	-28026	,	39.97767	,	55
50,17	,	92698	,	-28215	,	-27979	,	36.760365	,	50
50,17	,	92714	,	-28203	,	-27997	,	31.837936	,	43
50,17	,	92746	,	-28211	,	-28007	,	25.784775	,	34
50,17	,	92762	,	-28208	,	-27996	,	19.317549	,	25
50,17	,	92778	,	-28199	,	-27993	,	13.11684	,	16
50,17	,	92810	,	-28186	,	-28008	,	7.865366	,	9
50,17	,	92826	,	-28194	,	-28011	,	4.13025	,	4
50,17	,	92842	,	-28197	,	-27994	,	2.0077634	,	1
50,17	,	92874	,	-28201	,	-28008	,	1.0949483	,	0
50,17	,	92890	,	-28191	,	-27996	,	0.8862034	,	0
50,18	,	92922	,	-28203	,	-28026	,	1.0395147	,	0
50,18	,	92938	,	-28214	,	-27980	,	1.2231486	,	0
50,18	,	92954	,	-28231	,	-28019	,	0.94511205	,	0
50,18	,	92986	,	-28221	,	-28023	,	-0.20753694	,	0
50,18	,	93002	,	-28233	,	-28039	,	-2.2273731	,	0
50,18	,	93018	,	-28243	,	-28021	,	-4.8307986	,	0
50,18	,	93050	,	-28246	,	-28023	,	-7.7755113	,	0
50,18	,	93066	,	-28242	,	-28033	,	-10.784142	,	0
50,18	,	93082	,	-28253	,	-28023	,	-13.463151	,	0
50,18	,	93114	,	-28251	,	-28028	,	-15.504438	,	0
50,18	,	93130	,	-28259	,	-28042	,	-16.79137	,	0
50,18	,	93162	,	-28256	,	-28049	,	-17.327759	,	0
50,18	,	93178	,	-28271	,	-28020	,	-17.216154	,	0
50,18	,	93194	,	-28279	,	-28048	,	-16.730694	,	0
50,18	,	93226	,	-28284	,	-28052	,	-16.252071	,	0
50,18	,	93242	,	-28303	,	-28050	,	-16.100319	,	0
50,18	,	93258	,	-28301	,	-28062	,	-16.48147	,	0
50,18	,	93290	,	-28302	,	-28060	,	-17.357399	,	0
50,18	,	93306	,	-28311	,	-28066	,	-18.416807	,	0
50,18	,	93338	,	-28298	,	-28064	,	-19.27749	,	0
50,18	,	93354	,	-28296	,	-28056	,	-19.524971	,	0
50,18	,	93370	,	-28274	,	-28043	,	-18.68914	,	0
50,18	,	93402	,	-28251	,	-28046	,	-16.279922	,	0
50,18	,	93418	,	-28230	,	-28026	,	-11.856187	,	2
50,18	,	93434	,	-28209	,	-28027	,	-5.2410736	,	6
50,18	,	93466	,	-28206	,	-28010	,	3.2451801	,	12
50,18	,	93482	,	-28192	,	-28015	,	12.745649	,	20
50,18	,	93498	,	-28194	,	-28023	,	22.105253	,	29
50,18	,	93530	,	-28183	,	-28017	,	30.21409	,	38
50,18	,	93546	,	-28196	,	-28008	,	36.197235	,	46
50,18	,	93578	,	-28189	,	-28005	,	39.466656	,	51
50,18	,	93594	,	-28188	,	-28022	,	39.854347	,	54
50,18	,	93610	,	-28192	,	-28017	,	37.67559	,	52
50,18	,	93642	,	-28184	,	-28025	,	33.547398	,	48
50,18	,	93658	,	-28180	,	-27993	,	28.262074	,	42
50,18	,	93674	,	-28181	,	-27991	,	22.656816	,	34
50,18	,	93706	,	-28162	,	-28001	,	17.45234	,	25
50,18	,	93721	,	-28155	,	-28012	,	13.288104	,	16
50,18	,	93754	,	-28167	,	-28007	,	10.562262	,	8
50,18	,	93770	,	-28164	,	-28003	,	9.125148	,	3
50,18	,	93786	,	-28170	,	-28023	,	8.452357	,	0
50,18	,	93818	,	-28175	,	-28012	,	7.999446	,	0
50,18	,	93834	,	-28182	,	-28008	,	7.3030386	,	0
50,18	,	93850	,	-28181	,	-28016	,	6.0638785	,	0
50,18	,	93882	,	-28193	,	-28022	,	4.214717	,	0
50,19	,	93897	,	-28198	,	-28020	,	1.8087509	,	0
50,19	,	93913	,	-28201	,	-28041	,	-1.0467443	,	0
50,19	,	93946	,	-28200	,	-28046	,	-4.107417	,	0
50,19	,	93962	,	-28220	,	-28036	,	-7.087059	,	0
50,19	,	93994	,	-28219	,	-28043	,	-9.871813	,	0
50,19	,	94010	,	-28231	,	-28045	,	-12.4616585	,	0
50,19	,	94026	,	-28227	,	-28049	,	-14.793494	,	0
50,19	,	94057	,	-28245	,	-28044	,	-16.762451	,	0
50,19	,	94073	,	-28226	,	-28056	,	-18.25689	,	0
50,19	,	94105	,	-28243	,	-28054	,	-19.09135	,	0
50,19	,	94122	,	-28258	,	-28056	,	-19.224104	,	0
50,19	,	94138	,	-28269	,	-28068	,	-19.013607	,	0
50,19	,	94170	,	-28278	,	-28085	,	-18.960278	,	0
50,19	,	94186	,	-28279	,	-28084	,	-19.324665	,	0
50,19	,	94202	,	-28296	,	-28090	,	-20.092468	,	0
50,19	,	94234	,	-28296	,	-28090	,	-21.150017	,	0
50,19	,	94250	,	-28314	,	-28090	,	-22.380375	,	0
50,19	,	94266	,	-28289	,	-28077	,	-23.55479	,	0
50,19	,	94297	,	-28263	,	-28075	,	-24.034695	,	0
50,19	,	94313	,	-28250	,	-28063	,	-22.813059	,	0
50,19	,	94345	,	-28233	,	-28063	,	-19.140732	,	1
50,19	,	94361	,	-28242	,	-28046	,	-13.042951	,	4
50,19	,	94377	,	-28215	,	-28051	,	-5.2614155	,	10
50,19	,	94410	,	-28203	,	-28050	,	3.2958221	,	17
50,19	,	94426	,	-28203	,	-28041	,	11.8804655	,	25
50,19	,	94442	,	-28190	,	-28048	,	19.764132	,	33
50,19	,	94473	,	-28196	,	-28044	,	26.255556	,	40
50,19	,	94489	,	-28198	,	-28043	,	30.786724	,	46
50,19	,	94521	,	-28201	,	-28054	,	32.938984	,	50
50,19	,	94537	,	-28204	,	-28051	,	32.586075	,	51
50,19	,	94553	,	-28190	,	-28047	,	30.033813	,	48
50,19	,	94585	,	-28199	,	-28059	,	25.970528	,	42
50,19	,	94601	,	-28188	,	-28040	,	21.183655	,	35
50,19	,	94618	,	-28191	,	-28047	,	16.359238	,	27
50,19	,	94650	,	-28174	,	-28044	,	12.089745	,	19
50,19	,	94666	,	-28188	,	-28036	,	8.800374	,	12
50,19	,	94682	,	-28192	,	-28045	,	6.523927	,	6
50,19	,	94713	,	-28191	,	-28042	,	4.932439	,	2
50,19	,	94729	,	-28206	,	-28039	,	3.62707	,	0
50,19	,	94761	,	-28199	,	-28036	,	2.2763896	,	0
50,19	,	94777	,	-28199	,	-28038	,	0.7561798	,	0
50,19	,	94793	,	-28192	,	-28040	,	-0.75591373	,	0
50,19	,	94825	,	-28195	,	-28037	,	-1.9679023	,	0
50,19	,	94841	,	-28199	,	-28063	,	-2.7177708	,	0
50,19	,	94857	,	-28202	,	-28050	,	-3.0605266	,	0
50,19	,	94890	,	-28214	,	-28050	,	-3.2209666	,	0
50,20	,	94905	,	-28222	,	-28063	,	-3.5363202	,	0
50,20	,	94937	,	-28231	,	-28065	,	-4.348813	,	0
50,20	,	94953	,	-28231	,	-28073	,	-5.81275	,	0
50,20	,	94969	,	-28234	,	-28075	,	-7.7797713	,	0
50,20	,	95001	,	-28244	,	-28064	,	-9.929499	,	0
50,20	,	95017	,	-28243	,	-28071	,	-11.987284	,	0
50,20	,	95033	,	-28246	,	-28076	,	-13.73418	,	0
50,20	,	95065	,	-28246	,	-28076	,	-14.957298	,	0
50,20	,	95081	,	-28248	,	-28078	,	-15.509245	,	0
50,20	,	95097	,	-28253	,	-28080	,	-15.373369	,	0
50,20	,	95129	,	-28245	,	-28075	,	-14.637184	,	0
50,20	,	95145	,	-28241	,	-28066	,	-13.35372	,	0
50,20	,	95177	,	-28210	,	-28054	,	-11.365402	,	1
50,20	,	95193	,	-28193	,	-28062	,	-8.23801	,	2
50,20	,	95209	,	-28193	,	-28051	,	-3.6159015	,	5
50,20	,	95241	,	-28199	,	-28055	,	2.2134829	,	9
50,20	,	95257	,	-28187	,	-28052	,	8.367066	,	14
50,20	,	95273	,	-28177	,	-28060	,	14.000546	,	20
50,20	,	95305	,	-28180	,	-28046	,	18.635485	,	25
50,20	,	95321	,	-28167	,	-28051	,	22.028341	,	29
50,20	,	95353	,	-28188	,	-28047	,	24.02096	,	32
50,20	,	95369	,	-28187	,	-28057	,	24.41528	,	32
50,20	,	95385	,	-28193	,	-28060	,	23.053276	,	31
50,20	,	95417	,	-28189	,	-28065	,	20.085495	,	28
50,20	,	95433	,	-28180	,	-28056	,	16.051672	,	24
50,20	,	95449	,	-28179	,	-28050	,	11.730851	,	19
50,20	,	95481	,	-28183	,	-28048	,	7.8038683	,	13
50,20	,	95497	,	-28184	,	-28063	,	4.596615	,	8
50,20	,	95513	,	-28173	,	-28059	,	2.2064857	,	4
50,20	,	95545	,	-28196	,	-28050	,	0.6168711	,	1
50,20	,	95561	,	-28183	,	-28068	,	-0.39675522	,	0
50,20	,	95593	,	-28198	,	-28072	,	-1.143214	,	0
50,20	,	95609	,	-28211	,	-28070	,	-1.921504	,	0
50,20	,	95625	,	-28208	,	-28069	,	-3.0499356	,	0
50,20	,	95657	,	-28217	,	-28070	,	-4.6532974	,	0
50,20	,	95673	,	-28227	,	-28084	,	-6.6392174	,	0
50,20	,	95689	,	-28220	,	-28089	,	-8.847835	,	0
50,20	,	95721	,	-28221	,	-28088	,	-10.970731	,	0
50,20	,	95737	,	-28233	,	-28084	,	-12.655748	,	0
50,20	,	95769	,	-28248	,	-28105	,	-13.857547	,	0
50,20	,	95785	,	-28241	,	-28081	,	-14.791202	,	0
50,20	,	95801	,	-28255	,	-28101	,	-15.585274	,	0
50,20	,	95833	,	-28270	,	-28113	,	-16.319347	,	0
50,20	,	95849	,	-28280	,	-28105	,	-17.218105	,	0
50,20	,	95865	,	-28287	,	-28114	,	-18.490042	,	0
50,20	,	95897	,	-28276	,	-28122	,	-20.035812	,	0
50,21	,	95913	,	-28284	,	-28110	,	-21.415012	,	0
50,21	,	95929	,	-28270	,	-28106	,	-22.102802	,	0
50,21	,	95961	,	-28244	,	-28102	,	-21.569057	,	0
50,21	,	95977	,	-28245	,	-28094	,	-19.272524	,	0
50,21	,	96009	,	-28234	,	-28106	,	-15.030254	,	2
50,21	,	96025	,	-28219	,	-28078	,	-9.1672	,	6
50,21	,	96041	,	-28227	,	-28079	,	-2.2940989	,	11
50,21	,	96073	,	-28208	,	-28072	,	4.8128505	,	17
50,21	,	96089	,	-28206	,	-28063	,	11.43985	,	24
50,21	,	96105	,	-28209	,	-28064	,	17.067287	,	30
50,21	,	96137	,	-28209	,	-28070	,	21.227808	,	35
50,21	,	96153	,	-28211	,	-28071	,	23.55579	,	39
50,21	,	96185	,	-28221	,	-28064	,	23.906567	,	41
50,21	,	96201	,	-28197	,	-28067	,	22.446457	,	39
50,21	,	96217	,	-28206	,	-28051	,	19.758453	,	35
50,21	,	96249	,	-28210	,	-28075	,	16.52428	,	30
50,21	,	96265	,	-28206	,	-28049	,	13.152011	,	24
50,21	,	96281	,	-28209	,	-28083	,	9.885075	,	17
50,21	,	96313	,	-28203	,	-28075	,	6.947435	,	11
50,21	,	96329	,	-28203	,	-28063	,	4.5296645	,	6
50,21	,	96360	,	-28213	,	-28070	,	2.6997037	,	2
50,21	,	96377	,	-28232	,	-28070	,	1.2237844	,	0
50,21	,	96393	,	-28221	,	-28070	,	-0.31977987	,	0
50,21	,	96425	,	-28236	,	-28079	,	-2.1442204	,	0
50,21	,	96441	,	-28237	,	-28083	,	-4.2155504	,	0
50,21	,	96456	,	-28240	,	-28081	,	-6.4273543	,	0
50,21	,	96488	,	-28243	,	-28109	,	-8.597034	,	0
50,21	,	96504	,	-28247	,	-28066	,	-10.511623	,	0
50,21	,	96521	,	-28269	,	-28095	,	-12.111902	,	0
50,21	,	96553	,	-28274	,	-28099	,	-13.599367	,	0
50,21	,	96569	,	-28286	,	-28119	,	-15.251585	,	0
50,21	,	96600	,	-28279	,	-28108	,	-17.115665	,	0
50,21	,	96616	,	-28288	,	-28115	,	-18.937855	,	0
50,21	,	96632	,	-28286	,	-28117	,	-20.361128	,	0
50,21	,	96664	,	-28309	,	-28121	,	-21.207592	,	0
50,21	,	96681	,	-28303	,	-28125	,	-21.575016	,	0
50,21	,	96696	,	-28292	,	-28115	,	-21.528341	,	0
50,21	,	96729	,	-28277	,	-28133	,	-20.764572	,	0
50,21	,	96745	,	-28269	,	-28080	,	-18.784664	,	0
50,21	,	96776	,	-28249	,	-28099	,	-15.252701	,	1
50,21	,	96793	,	-28242	,	-28087	,	-10.119763	,	4
50,21	,	96809	,	-28231	,	-28088	,	-3.650895	,	9
50,21	,	96840	,	-28243	,	-28092	,	3.5048347	,	15
50,21	,	96856	,	-28226	,	-28083	,	10.419375	,	22
50,21	,	96872	,	-28244	,	-28083	,	16.218828	,	28
50,22	,	96904	,	-28235	,	-28086	,	20.264307	,	33
50,22	,	96921	,	-28239	,	-28099	,	22.223759	,	37
50,22	,	96937	,	-28241	,	-28084	,	22.137426	,	38
50,22	,	96969	,	-28240	,	-28109	,	20.320087	,	37
50,22	,	96984	,	-28234	,	-28078	,	17.281036	,	34
50,22	,	97016	,	-28246	,	-28090	,	13.613016	,	29
50,22	,	97032	,	-28234	,	-28104	,	9.808631	,	23
50,22	,	97048	,	-28240	,	-28089	,	6.26291	,	16
50,22	,	97080	,	-28243	,	-28080	,	3.2627702	,	10
50,22	,	97096	,	-28251	,	-28094	,	0.8583665	,	5
50,22	,	97113	,	-28240	,	-28088	,	-1.0426986	,	1
50,22	,	97145	,	-28244	,	-28095	,	-2.4451556	,	0
50,22	,	97160	,	-28261	,	-28097	,	-3.3742757	,	0
50,22	,	97192	,	-28266	,	-28106	,	-4.124982	,	0
50,22	,	97209	,	-28267	,	-28112	,	-5.06781	,	0
50,22	,	97224	,	-28276	,	-28081	,	-6.3399343	,	0
50,22	,	97256	,	-28286	,	-28113	,	-7.926614	,	0
50,22	,	97272	,	-28297	,	-28113	,	-9.832666	,	0
50,22	,	97288	,	-28310	,	-28122	,	-12.092769	,	0
50,22	,	97320	,	-28313	,	-28114	,	-14.692576	,	0
50,22	,	97336	,	-28311	,	-28129	,	-17.422264	,	0
50,22	,	97352	,	-28317	,	-28124	,	-19.861237	,	0
50,22	,	97384	,	-28318	,	-28139	,	-21.605036	,	0
50,22	,	97400	,	-28327	,	-28140	,	-22.461159	,	0
50,22	,	97432	,	-28325	,	-28148	,	-22.452385	,	0
50,22	,	97448	,	-28336	,	-28165	,	-21.731365	,	0
50,22	,	97464	,	-28339	,	-28136	,	-20.539738	,	0
50,22	,	97496	,	-28334	,	-28143	,	-19.110643	,	1
50,22	,	97512	,	-28333	,	-28136	,	-17.502762	,	2
50,22	,	97528	,	-28321	,	-28129	,	-15.593288	,	3
50,22	,	97560	,	-28317	,	-28121	,	-13.189121	,	4
50,22	,	97576	,	-28316	,	-28124	,	-10.189631	,	6
50,22	,	97608	,	-28298	,	-28121	,	-6.6536536	,	8
50,22	,	97624	,	-28305	,	-28113	,	-2.7162824	,	11
50,22	,	97640	,	-28305	,	-28115	,	1.3275657	,	14
50,22	,	97672	,	-28290	,	-28113	,	5.0582275	,	18
50,22	,	97688	,	-28288	,	-28128	,	8.250446	,	20
50,22	,	97704	,	-28305	,	-28107	,	10.792757	,	22
50,22	,	97736	,	-28309	,	-28130	,	12.358267	,	23
50,22	,	97752	,	-28310	,	-28126	,	12.57192	,	23
50,22	,	97768	,	-28309	,	-28122	,	11.397665	,	21
50,22	,	97800	,	-28298	,	-28108	,	9.22324	,	19
50,22	,	97816	,	-28299	,	-28125	,	6.683684	,	16
50,22	,	97848	,	-28302	,	-28121	,	4.333984	,	13
50,22	,	97864	,	-28304	,	-28123	,	2.422718	,	9
50,22	,	97880	,	-28318	,	-28112	,	0.90201783	,	6
50,23	,	97912	,	-28307	,	-28117	,	-0.4248271	,	3
50,23	,	97928	,	-28317	,	-28138	,	-1.6681485	,	1
50,23	,	97944	,	-28321	,	-28126	,	-2.8336194	,	0
50,23	,	97976	,	-28334	,	-28128	,	-4.012637	,	0
50,23	,	97992	,	-28320	,	-28132	,	-5.3052597	,	0
50,23	,	98024	,	-28323	,	-28142	,	-6.564953	,	0
50,23	,	98040	,	-28354	,	-28151	,	-7.63006	,	0
50,23	,	98056	,	-28339	,	-28153	,	-8.675367	,	0
50,23	,	98088	,	-28348	,	-28144	,	-9.861273	,	0
50,23	,	98104	,	-28358	,	-28156	,	-11.093591	,	0
50,23	,	98120	,	-28369	,	-28152	,	-12.348622	,	0
50,23	,	98152	,	-28371	,	-28155	,	-13.720785	,	0
50,23	,	98168	,	-28375	,	-28179	,	-15.185947	,	0
50,23	,	98184	,	-28378	,	-28160	,	-16.560371	,	0
50,23	,	98216	,	-28393	,	-28173	,	-17.684135	,	0
50,23	,	98232	,	-28410	,	-28168	,	-18.637619	,	0
50,23	,	98264	,	-28404	,	-28185	,	-19.64771	,	0
50,23	,	98280	,	-28414	,	-28185	,	-20.73918	,	0
50,23	,	98296	,	-28415	,	-28191	,	-21.705582	,	0
50,23	,	98328	,	-28425	,	-28192	,	-22.359352	,	0
50,23	,	98344	,	-28425	,	-28205	,	-22.62025	,	0
50,23	,	98360	,	-28442	,	-28196	,	-22.516584	,	0
50,23	,	98392	,	-28442	,	-28216	,	-22.197842	,	0
50,23	,	98408	,	-28433	,	-28194	,	-21.741295	,	0
50,23	,	98439	,	-28416	,	-28188	,	-20.872414	,	0
50,23	,	98456	,	-28403	,	-28182	,	-19.030754	,	0
50,23	,	98471	,	-28389	,	-28173	,	-15.72174	,	1
50,23	,	98504	,	-28375	,	-28175	,	-10.76952	,	4
50,23	,	98520	,	-28384	,	-28175	,	-4.4524355	,	8
50,23	,	98536	,	-28388	,	-28165	,	2.4033685	,	14
50,23	,	98568	,	-28390	,	-28171	,	8.657811	,	20
50,23	,	98584	,	-28375	,	-28172	,	13.437789	,	26
50,23	,	98616	,	-28371	,	-28169	,	16.513487	,	30
50,23	,	98632	,	-28389	,	-28170	,	18.033413	,	33
50,23	,	98648	,	-28382	,	-28164	,	18.08071	,	34
50,23	,	98680	,	-28391	,	-28177	,	16.723986	,	33
50,23	,	98696	,	-28387	,	-28175	,	14.213629	,	30
50,23	,	98712	,	-28381	,	-28160	,	10.994473	,	26
50,23	,	98744	,	-28394	,	-28167	,	7.5860887	,	20
50,23	,	98760	,	-28384	,	-28165	,	4.367407	,	14
50,23	,	98776	,	-28400	,	-28167	,	1.5274076	,	8
50,23	,	98808	,	-28391	,	-28181	,	-0.867728	,	4
50,23	,	98824	,	-28386	,	-28165	,	-2.742257	,	1
50,23	,	98855	,	-28387	,	-28172	,	-3.9265902	,	0
50,23	,	98872	,	-28376	,	-28181	,	-4.281677	,	0
50,23	,	98887	,	-28404	,	-28158	,	-3.8935363	,	0
50,24	,	98920	,	-28407	,	-28184	,	-3.2466316	,	0
50,24	,	98936	,	-28426	,	-28181	,	-3.0586472	,	0
50,24	,	98952	,	-28418	,	-28185	,	-3.8146214	,	0
50,24	,	98984	,	-28427	,	-28180	,	-5.5095696	,	0
50,24	,	99000	,	-28441	,	-28191	,	-7.8415456	,	0
50,24	,	99032	,	-28448	,	-28183	,	-10.56524	,	0
50,24	,	99047	,	-28439	,	-28198	,	-13.438985	,	0
50,24	,	99064	,	-28440	,	-28194	,	-15.999065	,	0
50,24	,	99095	,	-28457	,	-28198	,	-17.797365	,	0
50,24	,	99111	,	-28453	,	-28218	,	-18.749268	,	0
50,24	,	99128	,	-28476	,	-28190	,	-19.075096	,	0
50,24	,	99160	,	-28480	,	-28208	,	-19.150364	,	0
50,24	,	99176	,	-28481	,	-28217	,	-19.311817	,	0
50,24	,	99191	,	-28480	,	-28213	,	-19.586288	,	0
50,24	,	99223	,	-28495	,	-28221	,	-19.793644	,	0
50,24	,	99239	,	-28502	,	-28212	,	-19.882145	,	0
50,24	,	99271	,	-28503	,	-28232	,	-19.940517	,	0
50,24	,	99287	,	-28519	,	-28241	,	-20.033321	,	0
50,24	,	99304	,	-28524	,	-28244	,	-20.233356	,	0
50,24	,	99335	,	-28531	,	-28243	,	-20.61909	,	0
50,24	,	99352	,	-28537	,	-28257	,	-21.169947	,	0
50,24	,	99367	,	-28527	,	-28219	,	-21.71051	,	0
50,24	,	99400	,	-28495	,	-28230	,	-21.724142	,	0
50,24	,	99416	,	-28478	,	-28223	,	-20.300335	,	0
50,24	,	99447	,	-28469	,	-28208	,	-16.653227	,	1
50,24	,	99463	,	-28457	,	-28212	,	-10.685928	,	4
50,24	,	99479	,	-28456	,	-28219	,	-3.0027275	,	9
50,24	,	99511	,	-28469	,	-28214	,	5.2874217	,	16
50,24	,	99527	,	-28462	,	-28186	,	12.831097	,	24
50,24	,	99543	,	-28462	,	-28208	,	18.551146	,	31
50,24	,	99575	,	-28443	,	-28193	,	22.063795	,	36
50,24	,	99591	,	-28456	,	-28211	,	23.581812	,	39
50,24	,	99607	,	-28457	,	-28188	,	23.434885	,	40
50,24	,	99639	,	-28456	,	-28202	,	21.840513	,	39
50,24	,	99655	,	-28455	,	-28202	,	19.097366	,	36
50,24	,	99687	,	-28446	,	-28186	,	15.694863	,	31
50,24	,	99703	,	-28459	,	-28193	,	12.157509	,	24
50,24	,	99719	,	-28451	,	-28188	,	8.832749	,	16
50,24	,	99751	,	-28454	,	-28191	,	5.9047256	,	9
50,24	,	99767	,	-28456	,	-28192	,	3.4893432	,	4
50,24	,	99783	,	-28454	,	-28192	,	1.6072874	,	1
50,24	,	99815	,	-28446	,	-28196	,	0.2628579	,	0
50,24	,	99831	,	-28446	,	-28213	,	-0.46872354	,	0
50,24	,	99863	,	-28449	,	-28176	,	-0.5729656	,	0
50,24	,	99879	,	-28465	,	-28190	,	-0.29066753	,	0
50,24	,	99895	,	-28467	,	-28194	,	-0.100977376	,	0
50,25	,	99927	,	-28466	,	-28206	,	-0.39990053	,	0
50,25	,	99943	,	-28492	,	-28207	,	-1.351079	,	0
50,25	,	99959	,	-28488	,	-28217	,	-3.072365	,	0
50,25	,	99991	,	-28488	,	-28216	,	-5.5192666	,	0
50,25	,	100007	,	-28499	,	-28212	,	-8.324309	,	0
50,25	,	100023	,	-28501	,	-28223	,	-11.076977	,	0
50,25	,	100055	,	-28506	,	-28220	,	-13.50876	,	0
50,25	,	100071	,	-28515	,	-28252	,	-15.4692335	,	0
50,25	,	100103	,	-28510	,	-28208	,	-16.89788	,	0
50,25	,	100119	,	-28528	,	-28238	,	-17.78461	,	0
50,25	,	100135	,	-28523	,	-28245	,	-18.207455	,	0
50,25	,	100167	,	-28530	,	-28246	,	-18.274982	,	0
50,25	,	100183	,	-28542	,	-28238	,	-18.076397	,	0
50,25	,	100199	,	-28545	,	-28241	,	-17.77517	,	0
50,25	,	100231	,	-28541	,	-28254	,	-17.491896	,	0
50,25	,	100247	,	-28556	,	-28258	,	-17.19588	,	0
50,25	,	100279	,	-28560	,	-28261	,	-16.9004	,	0
50,25	,	100295	,	-28567	,	-28252	,	-16.727398	,	0
50,25	,	100311	,	-28568	,	-28282	,	-16.737785	,	0
50,25	,	100343	,	-28552	,	-28229	,	-16.763845	,	0
50,25	,	100359	,	-28533	,	-28238	,	-16.28892	,	0
50,25	,	100375	,	-28505	,	-28235	,	-14.525482	,	0
50,25	,	100407	,	-28492	,	-28215	,	-10.764536	,	1
50,25	,	100423	,	-28496	,	-28225	,	-4.876627	,	4
50,25	,	100455	,	-28502	,	-28224	,	2.382349	,	9
50,25	,	100471	,	-28488	,	-28218	,	9.740198	,	16
50,25	,	100487	,	-28475	,	-28212	,	16.193735	,	23
50,25	,	100519	,	-28484	,	-28223	,	21.270895	,	29
50,25	,	100535	,	-28486	,	-28217	,	24.667597	,	34
50,25	,	100551	,	-28485	,	-28237	,	26.115086	,	37
50,25	,	100583	,	-28483	,	-28188	,	25.616343	,	38
50,25	,	100599	,	-28465	,	-28206	,	23.590425	,	37
50,25	,	100615	,	-28474	,	-28201	,	20.742565	,	34
50,25	,	100647	,	-28478	,	-28197	,	17.644854	,	29
50,25	,	100663	,	-28482	,	-28196	,	14.490039	,	22
50,25	,	100695	,	-28476	,	-28195	,	11.326658	,	15
50,25	,	100711	,	-28455	,	-28189	,	8.409293	,	9
50,25	,	100727	,	-28459	,	-28190	,	6.2282934	,	4
50,25	,	100759	,	-28465	,	-28194	,	5.0729737	,	1
50,25	,	100775	,	-28469	,	-28196	,	4.7143946	,	0
50,25	,	100791	,	-28470	,	-28214	,	4.6623983	,	0
50,25	,	100823	,	-28474	,	-28185	,	4.5145736	,	0
50,25	,	100839	,	-28475	,	-28189	,	4.043256	,	0
50,25	,	100871	,	-28469	,	-28200	,	3.208734	,	0
50,25	,	100887	,	-28473	,	-28204	,	2.1560726	,	0
50,26	,	100903	,	-28493	,	-28198	,	0.984215	,	0
50,26	,	100935	,	-28480	,	-28194	,	-0.39859366	,	0
50,26	,	100951	,	-28507	,	-28204	,	-2.0887618	,	0
50,26	,	100967	,	-28507	,	-28204	,	-4.1599245	,	0
50,26	,	100999	,	-28499	,	-28216	,	-6.5839057	,	0
50,26	,	101015	,	-28512	,	-28215	,	-9.045321	,	0
50,26	,	101031	,	-28513	,	-28222	,	-11.205198	,	0
50,26	,	101063	,	-28512	,	-28204	,	-12.900257	,	0
50,26	,	101078	,	-28532	,	-28224	,	-14.083879	,	0
50,26	,	101110	,	-28542	,	-28220	,	-14.943417	,	0
50,26	,	101127	,	-28538	,	-28234	,	-15.782446	,	0
50,26	,	101143	,	-28542	,	-28227	,	-16.648746	,	0
50,26	,	101175	,	-28545	,	-28229	,	-17.345757	,	0
50,26	,	101191	,	-28557	,	-28242	,	-17.737648	,	0
50,26	,	101207	,	-28555	,	-28234	,	-17.853	,	0
50,26	,	101239	,	-28568	,	-28234	,	-17.779549	,	0
50,26	,	101255	,	-28574	,	-28239	,	-17.643093	,	0
50,26	,	101287	,	-28573	,	-28256	,	-17.570984	,	0
50,26	,	101303	,	-28574	,	-28236	,	-17.5284	,	0
50,26	,	101319	,	-28540	,	-28223	,	-17.160435	,	0
50,26	,	101351	,	-28525	,	-28212	,	-15.734303	,	0
50,26	,	101366	,	-28505	,	-28204	,	-12.469617	,	1
50,26	,	101383	,	-28491	,	-28200	,	-7.0355854	,	4
50,26	,	101415	,	-28490	,	-28193	,	0.25859022	,	9
50,26	,	101431	,	-28469	,	-28183	,	8.599234	,	16
50,26	,	101447	,	-28465	,	-28190	,	17.047081	,	24
50,26	,	101479	,	-28466	,	-28176	,	24.740139	,	32
50,26	,	101495	,	-28463	,	-28185	,	30.866016	,	39
50,26	,	101527	,	-28462	,	-28183	,	34.81219	,	45
50,26	,	101542	,	-28466	,	-28174	,	36.314747	,	48
50,26	,	101559	,	-28467	,	-28177	,	35.413834	,	48
50,26	,	101590	,	-28463	,	-28177	,	32.428688	,	45
50,26	,	101607	,	-28451	,	-28170	,	28.00743	,	40
50,26	,	101623	,	-28458	,	-28158	,	22.994265	,	33
50,26	,	101655	,	-28451	,	-28162	,	18.096298	,	25
50,26	,	101670	,	-28453	,	-28165	,	13.74823	,	17
50,26	,	101702	,	-28436	,	-28171	,	10.248467	,	10
50,26	,	101718	,	-28441	,	-28170	,	7.835882	,	4
50,26	,	101735	,	-28446	,	-28174	,	6.512906	,	1
50,26	,	101767	,	-28451	,	-28172	,	5.915703	,	0
50,26	,	101783	,	-28452	,	-28168	,	5.5413985	,	0
50,26	,	101798	,	-28454	,	-28169	,	5.028154	,	0
50,26	,	101831	,	-28456	,	-28174	,	4.21276	,	0
50,26	,	101846	,	-28471	,	-28167	,	3.0132184	,	0
50,26	,	101862	,	-28469	,	-28174	,	1.3345358	,	0
50,26	,	101894	,	-28466	,	-28178	,	-0.7746422	,	0
50,27	,	101910	,	-28479	,	-28176	,	-3.0536108	,	0
50,27	,	101942	,	-28478	,	-28173	,	-5.272184	,	0
50,27	,	101958	,	-28491	,	-28173	,	-7.3493443	,	0
50,27	,	101975	,	-28483	,	-28180	,	-9.2413	,	0
50,27	,	102006	,	-28491	,	-28179	,	-10.831823	,	0
50,27	,	102022	,	-28490	,	-28182	,	-11.969963	,	0
50,27	,	102038	,	-28505	,	-28193	,	-12.632798	,	0
50,27	,	102070	,	-28507	,	-28195	,	-12.99406	,	0
50,27	,	102087	,	-28514	,	-28192	,	-13.29002	,	0
50,27	,	102118	,	-28519	,	-28199	,	-13.660847	,	0
50,27	,	102134	,	-28528	,	-28193	,	-14.158898	,	0
50,27	,	102150	,	-28533	,	-28209	,	-14.814541	,	0
50,27	,	102182	,	-28528	,	-28203	,	-15.573986	,	0
50,27	,	102199	,	-28527	,	-28193	,	-16.192879	,	0
50,27	,	102214	,	-28518	,	-28189	,	-16.291298	,	0
50,27	,	102246	,	-28497	,	-28165	,	-15.437175	,	0
50,27	,	102262	,	-28474	,	-28157	,	-13.121575	,	0
50,27	,	102278	,	-28462	,	-28168	,	-8.909016	,	2
50,27	,	102310	,	-28463	,	-28157	,	-2.8398685	,	6
50,27	,	102327	,	-28455	,	-28145	,	4.392673	,	12
50,27	,	102358	,	-28451	,	-28129	,	11.769606	,	19
50,27	,	102374	,	-28448	,	-28150	,	18.359085	,	26
50,27	,	102390	,	-28442	,	-28138	,	23.50183	,	32
50,27	,	102422	,	-28435	,	-28146	,	26.892273	,	37
50,27	,	102438	,	-28446	,	-28156	,	28.492546	,	40
50,27	,	102454	,	-28448	,	-28159	,	28.303492	,	41
50,27	,	102486	,	-28455	,	-28135	,	26.345127	,	39
50,27	,	102502	,	-28439	,	-28138	,	22.891373	,	35
50,27	,	102534	,	-28440	,	-28141	,	18.590118	,	29
50,27	,	102550	,	-28435	,	-28136	,	14.218142	,	22
50,27	,	102566	,	-28431	,	-28136	,	10.375887	,	15
50,27	,	102598	,	-28442	,	-28129	,	7.3658915	,	9
50,27	,	102614	,	-28444	,	-28131	,	5.1322403	,	4
50,27	,	102630	,	-28440	,	-28135	,	3.41753	,	1
50,27	,	102662	,	-28440	,	-28133	,	2.0533643	,	0
50,27	,	102678	,	-28433	,	-28134	,	1.0355532	,	0
50,27	,	102710	,	-28459	,	-28149	,	0.32809865	,	0
50,27	,	102726	,	-28446	,	-28120	,	-0.30970037	,	0
50,27	,	102742	,	-28449	,	-28145	,	-1.0740798	,	0
50,27	,	102774	,	-28449	,	-28137	,	-1.8962803	,	0
50,27	,	102790	,	-28460	,	-28152	,	-2.6783388	,	0
50,27	,	102806	,	-28458	,	-28147	,	-3.4661946	,	0
50,27	,	102838	,	-28464	,	-28146	,	-4.3266783	,	0
50,27	,	102854	,	-28462	,	-28145	,	-5.2312007	,	0
50,27	,	102870	,	-28471	,	-28157	,	-6.100266	,	0
50,28	,	102902	,	-28475	,	-28157	,	-6.917811	,	0
50,28	,	102918	,	-28474	,	-28163	,	-7.7209296	,	0
50,28	,	102950	,	-28488	,	-28173	,	-8.5282755	,	0
50,28	,	102966	,	-28486	,	-28155	,	-9.369343	,	0
50,28	,	102982	,	-28484	,	-28158	,	-10.214806	,	0
50,28	,	103014	,	-28465	,	-28151	,	-10.78891	,	0
50,28	,	103030	,	-28440	,	-28139	,	-10.492903	,	0
50,28	,	103046	,	-28443	,	-28133	,	-8.671331	,	0
50,28	,	103078	,	-28423	,	-28132	,	-5.0980744	,	1
50,28	,	103094	,	-28414	,	-28122	,	-0.027476788	,	4
50,28	,	103126	,	-28403	,	-28117	,	6.068048	,	9
50,28	,	103142	,	-28398	,	-28105	,	12.579846	,	15
50,28	,	103158	,	-28390	,	-28104	,	18.828823	,	21
50,28	,	103190	,	-28400	,	-28126	,	24.134659	,	27
50,28	,	103206	,	-28394	,	-28091	,	27.851488	,	32
50,28	,	103222	,	-28397	,	-28103	,	29.559555	,	35
50,28	,	103254	,	-28399	,	-28111	,	29.206066	,	36
50,28	,	103270	,	-28410	,	-28099	,	26.969816	,	35
50,28	,	103286	,	-28380	,	-28100	,	23.269085	,	32
50,28	,	103318	,	-28379	,	-28094	,	18.956581	,	27
50,28	,	103334	,	-28373	,	-28093	,	15.029548	,	21
50,28	,	103366	,	-28385	,	-28092	,	12.030461	,	15
50,28	,	103382	,	-28375	,	-28101	,	9.936209	,	9
50,28	,	103398	,	-28371	,	-28096	,	8.547697	,	4
50,28	,	103430	,	-28367	,	-28105	,	7.768179	,	1
50,28	,	103446	,	-28371	,	-28078	,	7.500931	,	0
50,28	,	103462	,	-28386	,	-28093	,	7.4512014	,	0
50,28	,	103494	,	-28376	,	-28095	,	7.186651	,	0
50,28	,	103510	,	-28382	,	-28095	,	6.453079	,	0
50,28	,	103542	,	-28385	,	-28098	,	5.2623367	,	0
50,28	,	103558	,	-28395	,	-28097	,	3.666704	,	0
50,28	,	103574	,	-28412	,	-28109	,	1.5948589	,	0
50,28	,	103606	,	-28400	,	-28107	,	-1.0311549	,	0
50,28	,	103622	,	-28417	,	-28113	,	-4.044194	,	0
50,28	,	103638	,	-28417	,	-28115	,	-7.129548	,	0
50,28	,	103670	,	-28407	,	-28123	,	-9.965464	,	0
50,28	,	103686	,	-28418	,	-28097	,	-12.162946	,	0
50,28	,	103702	,	-28439	,	-28116	,	-13.571772	,	0
50,28	,	103734	,	-28454	,	-28120	,	-14.581671	,	0
50,28	,	103750	,	-28425	,	-28115	,	-15.617462	,	0
50,28	,	103782	,	-28414	,	-28108	,	-16.405365	,	0
50,28	,	103798	,	-28392	,	-28097	,	-16.087898	,	0
50,28	,	103814	,	-28380	,	-28086	,	-13.887054	,	0
50,28	,	103846	,	-28363	,	-28077	,	-9.489206	,	2
50,28	,	103862	,	-28350	,	-28071	,	-3.090602	,	6
50,28	,	103878	,	-28335	,	-28067	,	4.7420707	,	12
50,29	,	103909	,	-28334	,	-28075	,	13.21097	,	19
50,29	,	103926	,	-28321	,	-28041	,	21.387	,	27
50,29	,	103957	,	-28320	,	-28037	,	28.414848	,	35
50,29	,	103974	,	-28314	,	-28042	,	33.680824	,	42
50,29	,	103990	,	-28316	,	-28052	,	36.828804	,	47
50,29	,	104022	,	-28324	,	-28053	,	37.69116	,	50
50,29	,	104038	,	-28320	,	-28034	,	36.263485	,	48
50,29	,	104054	,	-28310	,	-28024	,	32.87234	,	44
50,29	,	104086	,	-28295	,	-28025	,	28.305838	,	38
50,29	,	104102	,	-28294	,	-28020	,	23.575678	,	31
50,29	,	104118	,	-28286	,	-28029	,	19.484375	,	23
50,29	,	104149	,	-28292	,	-28042	,	16.38609	,	15
50,29	,	104165	,	-28291	,	-28010	,	14.208875	,	8
50,29	,	104198	,	-28297	,	-28024	,	12.621094	,	3
50,29	,	104214	,	-28279	,	-28029	,	11.32166	,	0
50,29	,	104230	,	-28287	,	-28033	,	10.242794	,	0
50,29	,	104262	,	-28308	,	-28021	,	9.281507	,	0
50,29	,	104278	,	-28309	,	-28033	,	8.014807	,	0
50,29	,	104293	,	-28320	,	-28040	,	6.0086794	,	0
50,29	,	104325	,	-28306	,	-28035	,	3.231152	,	0
50,29	,	104341	,	-28316	,	-28037	,	0.07370472	,	0
50,29	,	104373	,	-28308	,	-28045	,	-2.9344873	,	0
50,29	,	104390	,	-28318	,	-28052	,	-5.4053965	,	0
50,29	,	104406	,	-28337	,	-28034	,	-7.270732	,	0
50,29	,	104438	,	-28325	,	-28047	,	-8.750256	,	0
50,29	,	104453	,	-28335	,	-28050	,	-9.989384	,	0
50,29	,	104469	,	-28345	,	-28065	,	-10.995947	,	0
50,29	,	104502	,	-28346	,	-28067	,	-11.857472	,	0
50,29	,	104518	,	-28352	,	-28055	,	-12.661146	,	0
50,29	,	104534	,	-28362	,	-28062	,	-13.432783	,	0
50,29	,	104565	,	-28344	,	-28060	,	-14.126621	,	0
50,29	,	104581	,	-28336	,	-28054	,	-14.422682	,	0
50,29	,	104613	,	-28317	,	-28035	,	-13.735455	,	0
50,29	,	104629	,	-28303	,	-28031	,	-11.511644	,	0
50,29	,	104645	,	-28273	,	-28021	,	-7.4045386	,	2
50,29	,	104678	,	-28247	,	-27999	,	-1.2506137	,	6
50,29	,	104694	,	-28243	,	-27988	,	6.8098235	,	12
50,29	,	104709	,	-28244	,	-27991	,	16.013714	,	20
50,29	,	104741	,	-28228	,	-27989	,	25.095718	,	29
50,29	,	104757	,	-28227	,	-27988	,	32.891426	,	38
50,29	,	104789	,	-28230	,	-27992	,	38.604298	,	45
50,29	,	104805	,	-28210	,	-27988	,	41.805756	,	50
50,29	,	104821	,	-28211	,	-27989	,	42.57289	,	53
50,29	,	104853	,	-28231	,	-28007	,	41.240425	,	51
50,29	,	104869	,	-28222	,	-27978	,	37.99929	,	47
50,29	,	104885	,	-28213	,	-27979	,	33.1628	,	41
50,30	,	104917	,	-28210	,	-27966	,	27.46245	,	33
50,30	,	104933	,	-28214	,	-27974	,	21.713282	,	24
50,30	,	104965	,	-28204	,	-27966	,	16.486645	,	15
50,30	,	104981	,	-28203	,	-27970	,	12.163953	,	8
50,30	,	104997	,	-28208	,	-27974	,	8.938998	,	3
50,30	,	105029	,	-28201	,	-27974	,	6.7419686	,	0
50,30	,	105045	,	-28214	,	-27966	,	5.323426	,	0
50,30	,	105061	,	-28226	,	-27975	,	4.269879	,	0
50,30	,	105093	,	-28221	,	-27988	,	3.0955527	,	0
50,30	,	105109	,	-28226	,	-27969	,	1.5672483	,	0
50,30	,	105125	,	-28228	,	-27990	,	-0.24067914	,	0
50,30	,	105157	,	-28235	,	-27994	,	-2.1789196	,	0
50,30	,	105173	,	-28236	,	-28003	,	-4.137615	,	0
50,30	,	105205	,	-28239	,	-27996	,	-6.0110035	,	0
50,30	,	105221	,	-28255	,	-27996	,	-7.7372394	,	0
50,30	,	105237	,	-28257	,	-28005	,	-9.39578	,	0
50,30	,	105269	,	-28259	,	-28009	,	-11.068209	,	0
50,30	,	105285	,	-28268	,	-28004	,	-12.684379	,	0
50,30	,	105301	,	-28275	,	-28020	,	-14.155262	,	0
50,30	,	105333	,	-28289	,	-28025	,	-15.514454	,	0
50,30	,	105349	,	-28278	,	-28011	,	-16.802866	,	0
50,30	,	105381	,	-28280	,	-28030	,	-17.836653	,	0
50,30	,	105397	,	-28308	,	-28041	,	-18.408714	,	0
50,30	,	105413	,	-28294	,	-28026	,	-18.629833	,	0
50,30	,	105445	,	-28294	,	-28030	,	-18.606628	,	0
50,30	,	105461	,	-28281	,	-28007	,	-18.100632	,	0
50,30	,	105477	,	-28259	,	-28006	,	-16.656895	,	0
50,30	,	105509	,	-28236	,	-27991	,	-13.727908	,	1
50,30	,	105525	,	-28226	,	-27985	,	-8.897221	,	3
50,30	,	105541	,	-28221	,	-27981	,	-2.2668605	,	7
50,30	,	105573	,	-28218	,	-27987	,	5.434536	,	13
50,30	,	105589	,	-28204	,	-27957	,	13.199093	,	20
50,30	,	105621	,	-28193	,	-27980	,	20.219587	,	27
50,30	,	105637	,	-28194	,	-27955	,	26.013298	,	34
50,30	,	105653	,	-28200	,	-27967	,	30.183271	,	39
50,30	,	105685	,	-28196	,	-27960	,	32.34415	,	43
50,30	,	105701	,	-28192	,	-27963	,	32.3758	,	44
50,30	,	105717	,	-28189	,	-27968	,	30.570648	,	42
50,30	,	105749	,	-28181	,	-27961	,	27.503521	,	38
50,30	,	105765	,	-28187	,	-27968	,	23.80157	,	32
50,30	,	105797	,	-28190	,	-27959	,	19.903763	,	25
50,30	,	105813	,	-28181	,	-27971	,	16.04697	,	18
50,30	,	105829	,	-28185	,	-27954	,	12.456892	,	11
50,30	,	105861	,	-28178	,	-27967	,	9.360985	,	6
50,30	,	105877	,	-28167	,	-27954	,	6.96646	,	2
50,30	,	105893	,	-28173	,	-27968	,	5.4630604	,	0
50,31	,	105925	,	-28186	,	-27967	,	4.7691913	,	0
50,31	,	105941	,	-28199	,	-27975	,	4.3600307	,	0
50,31	,	105957	,	-28203	,	-27970	,	3.5533483	,	0
