Data recorded on Tue Jul 25 10-32-48 CAT 2017
Time: 10:32:57
Time		Millis		IR PPG		Red PPG		Filtered		SSF
33,6	,	25706	,	-23150	,	-20811	,	18.366499	,	9
33,6	,	25722	,	-23150	,	-20811	,	15.3063345	,	4
33,6	,	25754	,	-23139	,	-20809	,	12.098717	,	1
33,6	,	25770	,	-23148	,	-20815	,	9.035506	,	0
33,6	,	25786	,	-23151	,	-20821	,	6.3246627	,	0
33,6	,	25818	,	-23148	,	-20812	,	3.9843898	,	0
33,6	,	25834	,	-23150	,	-20814	,	2.0115647	,	0
33,6	,	25866	,	-23162	,	-20822	,	0.3796792	,	0
33,6	,	25882	,	-23170	,	-20821	,	-1.1090064	,	0
33,6	,	25898	,	-23166	,	-20823	,	-2.697228	,	0
33,6	,	25930	,	-23174	,	-20820	,	-4.425669	,	0
33,6	,	25946	,	-23182	,	-20832	,	-6.2036343	,	0
33,6	,	25962	,	-23177	,	-20832	,	-7.9496636	,	0
33,6	,	25994	,	-23188	,	-20821	,	-9.546416	,	0
33,6	,	26010	,	-23199	,	-20839	,	-10.938863	,	0
33,6	,	26041	,	-23213	,	-20830	,	-12.285236	,	0
33,6	,	26058	,	-23210	,	-20829	,	-13.788277	,	0
33,6	,	26074	,	-23222	,	-20818	,	-15.448479	,	0
33,6	,	26106	,	-23219	,	-20838	,	-17.088768	,	0
33,6	,	26122	,	-23231	,	-20836	,	-18.500578	,	0
33,6	,	26138	,	-23229	,	-20852	,	-19.526058	,	0
33,6	,	26170	,	-23249	,	-20848	,	-20.136436	,	0
33,6	,	26186	,	-23251	,	-20847	,	-20.48425	,	0
33,6	,	26202	,	-23259	,	-20848	,	-20.770123	,	0
33,6	,	26233	,	-23262	,	-20851	,	-21.060112	,	0
33,6	,	26249	,	-23256	,	-20868	,	-21.239285	,	0
33,6	,	26282	,	-23251	,	-20852	,	-21.009382	,	0
33,6	,	26298	,	-23240	,	-20842	,	-19.974277	,	0
33,6	,	26314	,	-23227	,	-20838	,	-17.784199	,	1
33,6	,	26346	,	-23216	,	-20840	,	-14.223097	,	3
33,6	,	26362	,	-23223	,	-20842	,	-9.381676	,	6
33,6	,	26378	,	-23200	,	-20839	,	-3.7161007	,	10
33,6	,	26410	,	-23197	,	-20830	,	2.2629018	,	15
33,6	,	26426	,	-23201	,	-20825	,	8.107876	,	20
33,6	,	26457	,	-23187	,	-20824	,	13.312221	,	25
33,6	,	26474	,	-23189	,	-20826	,	17.470072	,	30
33,6	,	26489	,	-23183	,	-20832	,	20.388243	,	34
33,6	,	26521	,	-23176	,	-20809	,	22.036764	,	35
33,6	,	26538	,	-23174	,	-20822	,	22.562546	,	34
33,6	,	26553	,	-23173	,	-20816	,	22.192825	,	31
33,6	,	26586	,	-23161	,	-20808	,	21.162132	,	27
33,6	,	26602	,	-23165	,	-20805	,	19.742874	,	22
33,6	,	26633	,	-23168	,	-20813	,	18.11477	,	17
33,6	,	26649	,	-23171	,	-20816	,	16.256685	,	12
33,6	,	26665	,	-23168	,	-20810	,	14.10367	,	7
33,6	,	26698	,	-23164	,	-20818	,	11.731572	,	3
33,7	,	26713	,	-23171	,	-20818	,	9.329029	,	1
33,7	,	26729	,	-23178	,	-20827	,	7.0047617	,	0
33,7	,	26761	,	-23181	,	-20808	,	4.7076035	,	0
33,7	,	26777	,	-23183	,	-20814	,	2.3670983	,	0
33,7	,	26793	,	-23185	,	-20824	,	0.023002863	,	0
33,7	,	26825	,	-23197	,	-20825	,	-2.240542	,	0
33,7	,	26841	,	-23202	,	-20814	,	-4.436534	,	0
33,7	,	26873	,	-23201	,	-20823	,	-6.6091847	,	0
33,7	,	26889	,	-23214	,	-20823	,	-8.7062435	,	0
33,7	,	26905	,	-23211	,	-20818	,	-10.636875	,	0
33,7	,	26938	,	-23220	,	-20832	,	-12.315167	,	0
33,7	,	26954	,	-23214	,	-20820	,	-13.625283	,	0
33,7	,	26970	,	-23231	,	-20841	,	-14.477339	,	0
33,7	,	27002	,	-23231	,	-20831	,	-14.931803	,	0
33,7	,	27017	,	-23241	,	-20833	,	-15.17127	,	0
33,7	,	27049	,	-23239	,	-20837	,	-15.334995	,	0
33,7	,	27065	,	-23247	,	-20834	,	-15.452618	,	0
33,7	,	27081	,	-23240	,	-20835	,	-15.455851	,	0
33,7	,	27114	,	-23260	,	-20839	,	-15.2716055	,	0
33,7	,	27130	,	-23268	,	-20853	,	-15.03054	,	0
33,7	,	27145	,	-23288	,	-20849	,	-15.099246	,	0
33,7	,	27177	,	-23282	,	-20849	,	-15.786465	,	0
33,7	,	27193	,	-23292	,	-20847	,	-17.051708	,	0
33,7	,	27209	,	-23285	,	-20852	,	-18.528278	,	0
33,7	,	27241	,	-23283	,	-20838	,	-19.701658	,	0
33,7	,	27257	,	-23254	,	-20840	,	-19.949247	,	0
33,7	,	27289	,	-23237	,	-20830	,	-18.540298	,	0
33,7	,	27305	,	-23237	,	-20825	,	-14.965255	,	1
33,7	,	27321	,	-23230	,	-20832	,	-9.386773	,	4
33,7	,	27353	,	-23211	,	-20820	,	-2.5010252	,	9
33,7	,	27369	,	-23221	,	-20820	,	4.882043	,	15
33,7	,	27385	,	-23206	,	-20816	,	11.932259	,	22
33,7	,	27417	,	-23203	,	-20814	,	17.938725	,	29
33,7	,	27433	,	-23181	,	-20812	,	22.580666	,	35
33,7	,	27465	,	-23177	,	-20821	,	25.949057	,	39
33,7	,	27481	,	-23166	,	-20787	,	28.302294	,	42
33,7	,	27497	,	-23166	,	-20790	,	29.816992	,	43
33,7	,	27529	,	-23159	,	-20777	,	30.535706	,	41
33,7	,	27545	,	-23167	,	-20795	,	30.403389	,	36
33,7	,	27561	,	-23154	,	-20791	,	29.347744	,	30
33,7	,	27593	,	-23151	,	-20779	,	27.469816	,	23
33,7	,	27609	,	-23144	,	-20771	,	25.093258	,	16
33,7	,	27625	,	-23148	,	-20775	,	22.5546	,	10
33,7	,	27657	,	-23154	,	-20785	,	19.984222	,	6
33,7	,	27673	,	-23157	,	-20777	,	17.29397	,	3
33,8	,	27705	,	-23162	,	-20801	,	14.351394	,	1
33,8	,	27721	,	-23174	,	-20768	,	11.070049	,	0
33,8	,	27737	,	-23166	,	-20779	,	7.447796	,	0
33,8	,	27769	,	-23173	,	-20779	,	3.6871104	,	0
33,8	,	27785	,	-23178	,	-20769	,	0.09796286	,	0
33,8	,	27801	,	-23175	,	-20769	,	-3.0922117	,	0
33,8	,	27833	,	-23187	,	-20774	,	-5.7471733	,	0
33,8	,	27849	,	-23181	,	-20770	,	-7.8126774	,	0
33,8	,	27881	,	-23182	,	-20771	,	-9.247951	,	0
33,8	,	27897	,	-23186	,	-20763	,	-9.998028	,	0
33,8	,	27913	,	-23180	,	-20776	,	-10.083837	,	0
33,8	,	27945	,	-23189	,	-20785	,	-9.60332	,	0
33,8	,	27961	,	-23183	,	-20755	,	-8.7129545	,	0
33,8	,	27977	,	-23208	,	-20767	,	-7.6848083	,	0
33,8	,	28009	,	-23200	,	-20771	,	-6.910188	,	1
33,8	,	28025	,	-23214	,	-20767	,	-6.6991944	,	1
33,8	,	28057	,	-23216	,	-20776	,	-7.1422977	,	1
33,8	,	28073	,	-23210	,	-20774	,	-8.122459	,	1
33,8	,	28089	,	-23209	,	-20772	,	-9.274744	,	1
33,8	,	28121	,	-23207	,	-20773	,	-10.124452	,	1
33,8	,	28137	,	-23186	,	-20764	,	-10.246413	,	1
33,8	,	28153	,	-23170	,	-20766	,	-9.18153	,	1
33,8	,	28185	,	-23171	,	-20777	,	-6.5785403	,	2
33,8	,	28201	,	-23158	,	-20751	,	-2.5289283	,	3
33,8	,	28217	,	-23140	,	-20742	,	2.558196	,	7
33,8	,	28249	,	-23142	,	-20746	,	8.243675	,	12
33,8	,	28265	,	-23117	,	-20743	,	14.07028	,	17
33,8	,	28297	,	-23111	,	-20728	,	19.653448	,	22
33,8	,	28313	,	-23114	,	-20742	,	24.672495	,	27
33,8	,	28329	,	-23116	,	-20731	,	28.645374	,	32
33,8	,	28361	,	-23116	,	-20727	,	31.021297	,	35
33,8	,	28377	,	-23112	,	-20728	,	31.505814	,	36
33,8	,	28393	,	-23102	,	-20730	,	30.235754	,	34
33,8	,	28425	,	-23112	,	-20733	,	27.66283	,	30
33,8	,	28441	,	-23109	,	-20712	,	24.231129	,	25
33,8	,	28473	,	-23095	,	-20712	,	20.343872	,	20
33,8	,	28489	,	-23090	,	-20716	,	16.562193	,	15
33,8	,	28505	,	-23090	,	-20709	,	13.440253	,	10
33,8	,	28537	,	-23087	,	-20702	,	11.213912	,	5
33,8	,	28553	,	-23084	,	-20708	,	9.826237	,	2
33,8	,	28569	,	-23086	,	-20701	,	9.08507	,	0
33,8	,	28601	,	-23086	,	-20702	,	8.716687	,	0
33,8	,	28616	,	-23090	,	-20713	,	8.415628	,	0
33,8	,	28633	,	-23090	,	-20707	,	7.9331546	,	0
33,8	,	28664	,	-23083	,	-20719	,	7.1801043	,	0
33,8	,	28681	,	-23091	,	-20702	,	6.2297993	,	0
33,9	,	28713	,	-23102	,	-20707	,	5.102132	,	0
33,9	,	28729	,	-23106	,	-20708	,	3.6383305	,	0
33,9	,	28745	,	-23098	,	-20706	,	1.7516379	,	0
33,9	,	28777	,	-23113	,	-20702	,	-0.39427495	,	0
33,9	,	28793	,	-23118	,	-20712	,	-2.627905	,	0
33,9	,	28809	,	-23117	,	-20715	,	-4.8963523	,	0
33,9	,	28841	,	-23115	,	-20717	,	-7.0540686	,	0
33,9	,	28857	,	-23111	,	-20714	,	-8.794355	,	0
33,9	,	28889	,	-23116	,	-20723	,	-9.830074	,	0
33,9	,	28905	,	-23134	,	-20732	,	-10.157662	,	0
33,9	,	28921	,	-23128	,	-20730	,	-10.104509	,	0
33,9	,	28953	,	-23109	,	-20725	,	-9.874962	,	0
33,9	,	28968	,	-23109	,	-20728	,	-9.234123	,	0
33,9	,	28985	,	-23094	,	-20721	,	-7.816859	,	0
33,9	,	29017	,	-23080	,	-20721	,	-5.387642	,	1
33,9	,	29033	,	-23071	,	-20705	,	-1.839242	,	3
33,9	,	29049	,	-23064	,	-20702	,	2.709241	,	6
33,9	,	29081	,	-23061	,	-20706	,	7.844275	,	10
33,9	,	29097	,	-23054	,	-20700	,	12.976074	,	15
33,9	,	29128	,	-23049	,	-20693	,	17.543316	,	20
33,9	,	29145	,	-23047	,	-20693	,	21.139511	,	24
33,9	,	29161	,	-23045	,	-20694	,	23.51243	,	27
33,9	,	29193	,	-23045	,	-20683	,	24.545315	,	29
33,9	,	29208	,	-23029	,	-20691	,	24.328814	,	29
33,9	,	29224	,	-23019	,	-20686	,	23.26744	,	27
33,9	,	29257	,	-23016	,	-20688	,	21.933609	,	24
33,9	,	29273	,	-23024	,	-20683	,	20.67126	,	20
33,9	,	29304	,	-23022	,	-20681	,	19.419256	,	15
33,9	,	29320	,	-23017	,	-20680	,	17.975374	,	10
33,9	,	29336	,	-23012	,	-20686	,	16.314857	,	6
33,9	,	29368	,	-23012	,	-20690	,	14.58535	,	3
33,9	,	29384	,	-23016	,	-20679	,	12.900644	,	1
33,9	,	29400	,	-23030	,	-20684	,	11.174177	,	0
33,9	,	29432	,	-23037	,	-20685	,	9.123742	,	0
33,9	,	29448	,	-23040	,	-20686	,	6.4958777	,	0
33,9	,	29480	,	-23043	,	-20691	,	3.2944012	,	0
33,9	,	29497	,	-23045	,	-20688	,	-0.2205801	,	0
33,9	,	29513	,	-23047	,	-20693	,	-3.6798937	,	0
33,9	,	29544	,	-23052	,	-20695	,	-6.7463336	,	0
33,9	,	29560	,	-23056	,	-20705	,	-9.216258	,	0
33,9	,	29576	,	-23056	,	-20689	,	-11.022035	,	0
33,9	,	29608	,	-23063	,	-20698	,	-12.173751	,	0
33,9	,	29624	,	-23069	,	-20689	,	-12.778925	,	0
33,9	,	29640	,	-23064	,	-20696	,	-12.996302	,	0
33,9	,	29672	,	-23088	,	-20705	,	-12.977041	,	0
33,9	,	29688	,	-23097	,	-20707	,	-13.021305	,	0
33,10	,	29720	,	-23102	,	-20706	,	-13.518229	,	0
33,10	,	29736	,	-23109	,	-20713	,	-14.612291	,	0
33,10	,	29753	,	-23112	,	-20717	,	-16.15038	,	0
33,10	,	29784	,	-23105	,	-20719	,	-17.783524	,	0
33,10	,	29800	,	-23091	,	-20713	,	-18.949215	,	0
33,10	,	29816	,	-23096	,	-20710	,	-19.028467	,	0
33,10	,	29849	,	-23076	,	-20710	,	-17.656176	,	0
33,10	,	29864	,	-23064	,	-20697	,	-14.712174	,	1
33,10	,	29896	,	-23054	,	-20691	,	-10.206587	,	3
33,10	,	29912	,	-23042	,	-20691	,	-4.3719616	,	7
33,10	,	29928	,	-23038	,	-20683	,	2.3073883	,	12
33,10	,	29960	,	-23031	,	-20686	,	9.174822	,	18
33,10	,	29976	,	-23002	,	-20673	,	15.647881	,	24
33,10	,	29992	,	-23003	,	-20666	,	21.464085	,	30
33,10	,	30024	,	-23008	,	-20673	,	26.411667	,	35
33,10	,	30040	,	-22987	,	-20673	,	30.122879	,	39
33,10	,	30056	,	-22993	,	-20673	,	32.387066	,	41
33,10	,	30088	,	-22983	,	-20675	,	33.237087	,	41
33,10	,	30104	,	-22996	,	-20661	,	32.734367	,	37
33,10	,	30136	,	-22987	,	-20668	,	30.917637	,	32
33,10	,	30152	,	-22986	,	-20671	,	27.953653	,	26
33,10	,	30168	,	-22990	,	-20675	,	24.196083	,	20
33,10	,	30200	,	-22989	,	-20677	,	20.010834	,	14
33,10	,	30216	,	-22999	,	-20665	,	15.66197	,	9
33,10	,	30232	,	-23003	,	-20674	,	11.300795	,	5
33,10	,	30264	,	-23006	,	-20676	,	7.013608	,	2
33,10	,	30280	,	-23005	,	-20669	,	2.9473042	,	0
33,10	,	30312	,	-23011	,	-20689	,	-0.6862092	,	0
33,10	,	30328	,	-23011	,	-20699	,	-3.7275121	,	0
33,10	,	30344	,	-23025	,	-20681	,	-6.1552944	,	0
33,10	,	30376	,	-23025	,	-20678	,	-8.092277	,	0
33,10	,	30392	,	-23034	,	-20694	,	-9.706165	,	0
33,10	,	30408	,	-23044	,	-20695	,	-11.144391	,	0
33,10	,	30440	,	-23059	,	-20680	,	-12.596098	,	0
33,10	,	30456	,	-23048	,	-20690	,	-14.191866	,	0
33,10	,	30472	,	-23053	,	-20691	,	-15.763447	,	0
33,10	,	30504	,	-23067	,	-20690	,	-17.00569	,	0
33,10	,	30520	,	-23081	,	-20696	,	-17.897034	,	0
33,10	,	30552	,	-23065	,	-20691	,	-18.589443	,	0
33,10	,	30568	,	-23091	,	-20703	,	-19.074223	,	0
33,10	,	30584	,	-23087	,	-20687	,	-19.33749	,	0
33,10	,	30616	,	-23092	,	-20688	,	-19.454254	,	0
33,10	,	30632	,	-23118	,	-20706	,	-19.516504	,	0
33,10	,	30648	,	-23113	,	-20710	,	-19.735882	,	0
33,10	,	30680	,	-23126	,	-20704	,	-20.275146	,	0
33,10	,	30696	,	-23113	,	-20708	,	-20.98938	,	0
33,11	,	30728	,	-23099	,	-20703	,	-21.388748	,	0
33,11	,	30744	,	-23097	,	-20704	,	-20.804226	,	0
33,11	,	30760	,	-23078	,	-20692	,	-18.739418	,	0
33,11	,	30792	,	-23073	,	-20696	,	-15.020669	,	2
33,11	,	30808	,	-23070	,	-20695	,	-9.829808	,	5
33,11	,	30824	,	-23069	,	-20681	,	-3.7522173	,	10
33,11	,	30856	,	-23053	,	-20690	,	2.4712324	,	16
33,11	,	30872	,	-23046	,	-20680	,	8.311715	,	22
33,11	,	30888	,	-23037	,	-20681	,	13.511552	,	27
33,11	,	30920	,	-23034	,	-20677	,	17.911024	,	32
33,11	,	30936	,	-23029	,	-20685	,	21.35038	,	36
33,11	,	30968	,	-23031	,	-20680	,	23.677725	,	39
33,11	,	30984	,	-23021	,	-20680	,	24.80997	,	39
33,11	,	31000	,	-23016	,	-20678	,	24.842342	,	37
33,11	,	31032	,	-23010	,	-20688	,	24.054298	,	32
33,11	,	31048	,	-23025	,	-20696	,	22.687292	,	26
33,11	,	31099	,	-23033	,	-20698	,	17.990921	,	15
33,11	,	31112	,	-23033	,	-20690	,	14.508424	,	10
33,11	,	31144	,	-23033	,	-20695	,	10.539222	,	6
33,11	,	31160	,	-23041	,	-20689	,	6.4608564	,	3
33,11	,	31176	,	-23051	,	-20697	,	2.5292788	,	1
33,11	,	31207	,	-23050	,	-20692	,	-1.1745005	,	0
33,11	,	31224	,	-23049	,	-20702	,	-4.536749	,	0
33,11	,	31240	,	-23059	,	-20705	,	-7.3526845	,	0
33,11	,	31272	,	-23073	,	-20698	,	-9.579948	,	0
33,11	,	31288	,	-23060	,	-20712	,	-11.357546	,	0
33,11	,	31304	,	-23074	,	-20698	,	-12.717052	,	0
33,11	,	31336	,	-23088	,	-20711	,	-13.673737	,	0
33,11	,	31352	,	-23095	,	-20712	,	-14.475281	,	0
33,11	,	31384	,	-23097	,	-20718	,	-15.392673	,	0
33,11	,	31400	,	-23099	,	-20716	,	-16.43528	,	0
33,11	,	31416	,	-23109	,	-20722	,	-17.426308	,	0
33,11	,	31447	,	-23126	,	-20732	,	-18.292898	,	0
33,11	,	31464	,	-23118	,	-20724	,	-19.118422	,	0
33,11	,	31480	,	-23129	,	-20745	,	-19.884953	,	0
33,11	,	31512	,	-23129	,	-20746	,	-20.432302	,	0
33,11	,	31527	,	-23138	,	-20757	,	-20.646547	,	0
33,11	,	31560	,	-23140	,	-20728	,	-20.521523	,	0
33,11	,	31576	,	-23150	,	-20748	,	-20.129726	,	0
33,11	,	31592	,	-23154	,	-20756	,	-19.596771	,	0
33,11	,	31624	,	-23161	,	-20743	,	-19.06047	,	0
33,11	,	31640	,	-23158	,	-20756	,	-18.587143	,	0
33,11	,	31656	,	-23149	,	-20758	,	-18.047186	,	0
33,11	,	31688	,	-23143	,	-20743	,	-17.097733	,	0
33,11	,	31704	,	-23130	,	-20759	,	-15.348991	,	0
33,12	,	31736	,	-23118	,	-20746	,	-12.508904	,	1
33,12	,	31752	,	-23113	,	-20740	,	-8.473484	,	3
33,12	,	31767	,	-23100	,	-20752	,	-3.4096775	,	7
33,12	,	31800	,	-23088	,	-20729	,	2.3317924	,	12
33,12	,	31816	,	-23071	,	-20736	,	8.40389	,	17
33,12	,	31832	,	-23067	,	-20736	,	14.50148	,	23
33,12	,	31863	,	-23056	,	-20725	,	20.269367	,	29
33,12	,	31880	,	-23059	,	-20723	,	25.27164	,	34
33,12	,	31896	,	-23052	,	-20722	,	29.061142	,	39
33,12	,	31927	,	-23056	,	-20725	,	31.288212	,	41
33,12	,	31944	,	-23065	,	-20722	,	31.727825	,	41
33,12	,	31975	,	-23050	,	-20721	,	30.337395	,	37
33,12	,	31991	,	-23049	,	-20715	,	27.455288	,	32
33,12	,	32008	,	-23062	,	-20730	,	23.650782	,	27
33,12	,	32040	,	-23048	,	-20707	,	19.383055	,	21
33,12	,	32055	,	-23046	,	-20720	,	15.093587	,	15
33,12	,	32071	,	-23057	,	-20717	,	11.221845	,	10
33,12	,	32103	,	-23049	,	-20719	,	7.95568	,	5
33,12	,	32119	,	-23067	,	-20719	,	5.2353535	,	2
33,12	,	32151	,	-23066	,	-20722	,	2.8565025	,	0
33,12	,	32167	,	-23072	,	-20730	,	0.5903864	,	0
33,12	,	32183	,	-23068	,	-20723	,	-1.6237166	,	0
33,12	,	32216	,	-23066	,	-20724	,	-3.6295793	,	0
33,12	,	32231	,	-23075	,	-20724	,	-5.2108426	,	0
33,12	,	32247	,	-23072	,	-20732	,	-6.2869105	,	0
33,12	,	32279	,	-23084	,	-20709	,	-6.9371843	,	0
33,12	,	32295	,	-23099	,	-20728	,	-7.4135656	,	0
33,12	,	32311	,	-23105	,	-20733	,	-8.123454	,	0
33,12	,	32343	,	-23103	,	-20744	,	-9.326881	,	0
33,12	,	32359	,	-23105	,	-20735	,	-10.896852	,	0
33,12	,	32391	,	-23113	,	-20731	,	-12.5004835	,	0
33,12	,	32407	,	-23126	,	-20731	,	-13.938684	,	0
33,12	,	32423	,	-23125	,	-20741	,	-15.216979	,	0
33,12	,	32455	,	-23140	,	-20747	,	-16.385397	,	0
33,12	,	32471	,	-23140	,	-20748	,	-17.471363	,	0
33,12	,	32487	,	-23146	,	-20775	,	-18.451515	,	0
33,12	,	32519	,	-23149	,	-20740	,	-19.220734	,	0
33,12	,	32535	,	-23147	,	-20755	,	-19.637966	,	0
33,12	,	32567	,	-23147	,	-20759	,	-19.541634	,	0
33,12	,	32583	,	-23145	,	-20755	,	-18.780474	,	0
33,12	,	32599	,	-23144	,	-20759	,	-17.289078	,	0
33,12	,	32631	,	-23126	,	-20756	,	-15.043277	,	1
33,12	,	32648	,	-23128	,	-20745	,	-11.995736	,	3
33,12	,	32663	,	-23121	,	-20745	,	-8.212769	,	6
33,12	,	32695	,	-23130	,	-20739	,	-4.0302043	,	9
33,13	,	32711	,	-23107	,	-20724	,	0.097540855	,	13
33,13	,	32727	,	-23105	,	-20749	,	3.9345882	,	17
33,13	,	32759	,	-23101	,	-20714	,	7.4576507	,	20
33,13	,	32775	,	-23081	,	-20728	,	10.660825	,	23
33,13	,	32807	,	-23075	,	-20723	,	13.624771	,	26
33,13	,	32823	,	-23075	,	-20725	,	16.436543	,	27
33,13	,	32839	,	-23074	,	-20721	,	18.93388	,	27
33,13	,	32871	,	-23057	,	-20720	,	20.85036	,	26
33,13	,	32887	,	-23058	,	-20724	,	22.121061	,	24
33,13	,	32903	,	-23067	,	-20725	,	22.744862	,	21
33,13	,	32935	,	-23067	,	-20722	,	22.528503	,	17
33,13	,	32951	,	-23063	,	-20727	,	21.283503	,	14
33,13	,	32983	,	-23071	,	-20739	,	19.072466	,	11
33,13	,	32999	,	-23070	,	-20701	,	16.116112	,	8
33,13	,	33015	,	-23073	,	-20711	,	12.678651	,	6
33,13	,	33047	,	-23068	,	-20723	,	9.077228	,	4
33,13	,	33063	,	-23067	,	-20738	,	5.679263	,	2
33,13	,	33079	,	-23069	,	-20735	,	2.81108	,	1
33,13	,	33111	,	-23069	,	-20723	,	0.6392188	,	0
33,13	,	33127	,	-23080	,	-20725	,	-0.8826754	,	0
33,13	,	33143	,	-23067	,	-20730	,	-1.9257029	,	0
33,13	,	33175	,	-23071	,	-20731	,	-2.5691469	,	0
33,13	,	33191	,	-23078	,	-20734	,	-2.8267894	,	0
33,13	,	33223	,	-23088	,	-20751	,	-2.8980155	,	0
33,13	,	33239	,	-23094	,	-20721	,	-3.150383	,	0
33,13	,	33255	,	-23097	,	-20726	,	-3.8664873	,	0
33,13	,	33287	,	-23104	,	-20744	,	-5.10639	,	0
33,13	,	33303	,	-23106	,	-20731	,	-6.7614136	,	0
33,13	,	33319	,	-23115	,	-20740	,	-8.652569	,	0
33,13	,	33351	,	-23123	,	-20735	,	-10.62472	,	0
33,13	,	33367	,	-23134	,	-20754	,	-12.62058	,	0
33,13	,	33399	,	-23144	,	-20749	,	-14.666906	,	0
33,13	,	33415	,	-23133	,	-20740	,	-16.70787	,	0
33,13	,	33431	,	-23143	,	-20759	,	-18.455244	,	0
33,13	,	33463	,	-23153	,	-20762	,	-19.627352	,	0
33,13	,	33479	,	-23138	,	-20737	,	-20.140507	,	0
33,13	,	33495	,	-23116	,	-20738	,	-19.758764	,	0
33,13	,	33527	,	-23112	,	-20725	,	-17.970898	,	0
33,13	,	33543	,	-23099	,	-20720	,	-14.45272	,	1
33,13	,	33559	,	-23095	,	-20721	,	-9.354306	,	4
33,13	,	33591	,	-23085	,	-20719	,	-3.1815395	,	9
33,13	,	33607	,	-23077	,	-20718	,	3.4246125	,	15
33,13	,	33639	,	-23067	,	-20713	,	9.882455	,	21
33,13	,	33655	,	-23054	,	-20706	,	15.777406	,	27
33,13	,	33671	,	-23046	,	-20712	,	20.873743	,	32
33,14	,	33703	,	-23048	,	-20711	,	24.996727	,	37
33,14	,	33718	,	-23042	,	-20682	,	27.916548	,	41
33,14	,	33734	,	-23043	,	-20699	,	29.430943	,	42
33,14	,	33767	,	-23044	,	-20700	,	29.464	,	40
33,14	,	33783	,	-23027	,	-20694	,	28.146252	,	35
33,14	,	33815	,	-23036	,	-20700	,	25.864916	,	29
33,14	,	33831	,	-23047	,	-20695	,	22.96576	,	23
33,14	,	33847	,	-23033	,	-20699	,	19.575802	,	17
33,14	,	33879	,	-23042	,	-20701	,	15.885089	,	12
33,14	,	33895	,	-23042	,	-20701	,	12.181467	,	7
33,14	,	33911	,	-23051	,	-20715	,	8.628594	,	3
33,14	,	33942	,	-23063	,	-20715	,	5.200557	,	1
33,14	,	33959	,	-23061	,	-20705	,	1.7787924	,	0
33,14	,	33991	,	-23065	,	-20706	,	-1.6208267	,	0
33,14	,	34007	,	-23066	,	-20718	,	-4.784872	,	0
33,14	,	34023	,	-23064	,	-20713	,	-7.4446115	,	0
33,14	,	34055	,	-23072	,	-20717	,	-9.397504	,	0
33,14	,	34070	,	-23084	,	-20722	,	-10.659262	,	0
33,14	,	34087	,	-23081	,	-20708	,	-11.461141	,	0
33,14	,	34119	,	-23092	,	-20716	,	-12.021535	,	0
33,14	,	34135	,	-23095	,	-20716	,	-12.479438	,	0
33,14	,	34151	,	-23096	,	-20721	,	-12.92441	,	0
33,14	,	34182	,	-23105	,	-20726	,	-13.360413	,	0
33,14	,	34199	,	-23113	,	-20711	,	-13.79345	,	0
33,14	,	34231	,	-23126	,	-20732	,	-14.339214	,	0
33,14	,	34248	,	-23124	,	-20729	,	-15.129829	,	0
33,14	,	34263	,	-23122	,	-20737	,	-16.086103	,	0
33,14	,	34295	,	-23142	,	-20731	,	-16.962563	,	0
33,14	,	34310	,	-23138	,	-20734	,	-17.64843	,	0
33,14	,	34326	,	-23150	,	-20745	,	-18.171608	,	0
33,14	,	34358	,	-23147	,	-20742	,	-18.530998	,	0
33,14	,	34374	,	-23158	,	-20750	,	-18.689346	,	0
33,14	,	34406	,	-23161	,	-20749	,	-18.640518	,	0
33,14	,	34422	,	-23163	,	-20763	,	-18.415627	,	0
33,14	,	34438	,	-23152	,	-20737	,	-17.950111	,	0
33,14	,	34470	,	-23129	,	-20742	,	-16.911694	,	0
33,14	,	34487	,	-23119	,	-20742	,	-14.743863	,	1
33,14	,	34503	,	-23115	,	-20734	,	-11.0664015	,	3
33,14	,	34534	,	-23092	,	-20734	,	-5.944935	,	6
33,14	,	34550	,	-23088	,	-20723	,	0.28737736	,	11
33,14	,	34566	,	-23078	,	-20725	,	7.1470156	,	17
33,14	,	34598	,	-23064	,	-20721	,	14.034537	,	23
33,14	,	34614	,	-23057	,	-20722	,	20.421173	,	29
33,14	,	34646	,	-23043	,	-20704	,	25.940365	,	35
33,14	,	34662	,	-23038	,	-20713	,	30.362238	,	40
33,14	,	34678	,	-23036	,	-20701	,	33.52745	,	43
33,15	,	34710	,	-23026	,	-20706	,	35.315258	,	44
33,15	,	34726	,	-23025	,	-20694	,	35.72978	,	42
33,15	,	34742	,	-23029	,	-20695	,	34.865852	,	37
33,15	,	34774	,	-23032	,	-20692	,	32.7736	,	31
33,15	,	34790	,	-23020	,	-20693	,	29.567755	,	25
33,15	,	34822	,	-23018	,	-20690	,	25.638432	,	19
33,15	,	34838	,	-23036	,	-20700	,	21.447105	,	13
33,15	,	34854	,	-23023	,	-20700	,	17.212269	,	8
33,15	,	34886	,	-23046	,	-20692	,	12.994405	,	4
33,15	,	34902	,	-23040	,	-20704	,	8.807159	,	1
33,15	,	34918	,	-23043	,	-20689	,	4.7061224	,	0
33,15	,	34950	,	-23033	,	-20705	,	0.9525304	,	0
33,15	,	34966	,	-23057	,	-20706	,	-2.165851	,	0
33,15	,	34982	,	-23068	,	-20701	,	-4.724928	,	0
33,15	,	35014	,	-23060	,	-20696	,	-7.0488877	,	0
33,15	,	35030	,	-23073	,	-20710	,	-9.249506	,	0
33,15	,	35062	,	-23074	,	-20703	,	-11.231931	,	0
33,15	,	35078	,	-23075	,	-20709	,	-12.896028	,	0
33,15	,	35094	,	-23080	,	-20709	,	-14.132234	,	0
33,15	,	35126	,	-23079	,	-20716	,	-14.857068	,	0
33,15	,	35142	,	-23102	,	-20716	,	-15.134739	,	0
33,15	,	35158	,	-23103	,	-20722	,	-15.25585	,	0
33,15	,	35190	,	-23103	,	-20731	,	-15.508398	,	0
33,15	,	35206	,	-23124	,	-20727	,	-15.971371	,	0
33,15	,	35238	,	-23132	,	-20734	,	-16.726044	,	0
33,15	,	35254	,	-23127	,	-20734	,	-17.842937	,	0
33,15	,	35270	,	-23129	,	-20739	,	-19.090563	,	0
33,15	,	35302	,	-23149	,	-20737	,	-20.127945	,	0
33,15	,	35318	,	-23138	,	-20745	,	-20.830873	,	0
33,15	,	35334	,	-23162	,	-20746	,	-21.208738	,	0
33,15	,	35366	,	-23151	,	-20751	,	-21.30525	,	0
33,15	,	35382	,	-23163	,	-20753	,	-21.149416	,	0
33,15	,	35414	,	-23167	,	-20753	,	-20.740112	,	0
33,15	,	35430	,	-23192	,	-20751	,	-20.238136	,	0
33,15	,	35446	,	-23177	,	-20757	,	-19.930365	,	0
33,15	,	35478	,	-23160	,	-20755	,	-19.736444	,	0
33,15	,	35494	,	-23144	,	-20750	,	-18.9814	,	0
33,15	,	35510	,	-23142	,	-20751	,	-16.906242	,	0
33,15	,	35542	,	-23114	,	-20739	,	-13.151483	,	2
33,15	,	35558	,	-23112	,	-20733	,	-7.722316	,	5
33,15	,	35574	,	-23108	,	-20736	,	-0.9913111	,	10
33,15	,	35606	,	-23088	,	-20727	,	6.3301873	,	16
33,15	,	35622	,	-23075	,	-20724	,	13.586133	,	23
33,15	,	35654	,	-23070	,	-20731	,	20.347982	,	30
33,15	,	35670	,	-23056	,	-20721	,	26.252434	,	36
33,15	,	35686	,	-23040	,	-20718	,	31.050188	,	41
33,16	,	35718	,	-23051	,	-20719	,	34.626316	,	45
33,16	,	35734	,	-23053	,	-20724	,	36.73464	,	46
33,16	,	35749	,	-23045	,	-20711	,	37.04895	,	45
33,16	,	35782	,	-23031	,	-20721	,	35.617718	,	40
33,16	,	35798	,	-23036	,	-20723	,	32.93678	,	34
33,16	,	35830	,	-23036	,	-20714	,	29.527308	,	27
33,16	,	35846	,	-23035	,	-20705	,	25.70381	,	20
33,16	,	35862	,	-23031	,	-20699	,	21.709171	,	14
33,16	,	35894	,	-23036	,	-20716	,	17.786974	,	9
33,16	,	35909	,	-23040	,	-20714	,	14.077473	,	5
33,16	,	35926	,	-23032	,	-20711	,	10.634885	,	2
33,16	,	35957	,	-23034	,	-20714	,	7.57652	,	0
33,16	,	35974	,	-23045	,	-20724	,	5.0037947	,	0
33,16	,	35990	,	-23039	,	-20712	,	2.8558545	,	0
33,16	,	36022	,	-23048	,	-20735	,	1.0230777	,	0
33,16	,	36038	,	-23057	,	-20721	,	-0.61461854	,	0
33,16	,	36070	,	-23057	,	-20724	,	-2.2336903	,	0
33,16	,	36086	,	-23061	,	-20735	,	-3.9209032	,	0
33,16	,	36102	,	-23070	,	-20714	,	-5.640897	,	0
33,16	,	36133	,	-23073	,	-20733	,	-7.372344	,	0
33,16	,	36149	,	-23082	,	-20734	,	-9.118599	,	0
33,16	,	36166	,	-23087	,	-20734	,	-10.864806	,	0
33,16	,	36198	,	-23090	,	-20742	,	-12.561361	,	0
33,16	,	36214	,	-23103	,	-20740	,	-14.144214	,	0
33,16	,	36246	,	-23118	,	-20736	,	-15.658309	,	0
33,16	,	36262	,	-23105	,	-20736	,	-17.178848	,	0
33,16	,	36278	,	-23124	,	-20744	,	-18.582808	,	0
33,16	,	36310	,	-23118	,	-20746	,	-19.660833	,	0
33,16	,	36326	,	-23138	,	-20755	,	-20.337248	,	0
33,16	,	36341	,	-23140	,	-20728	,	-20.709377	,	0
33,16	,	36373	,	-23152	,	-20750	,	-20.968094	,	0
33,16	,	36390	,	-23150	,	-20762	,	-21.232689	,	0
33,16	,	36406	,	-23164	,	-20761	,	-21.495512	,	0
33,16	,	36437	,	-23159	,	-20764	,	-21.685913	,	0
33,16	,	36454	,	-23138	,	-20746	,	-21.556221	,	0
33,16	,	36485	,	-23139	,	-20745	,	-20.595863	,	0
33,16	,	36501	,	-23119	,	-20754	,	-18.321918	,	0
33,16	,	36517	,	-23119	,	-20737	,	-14.554351	,	2
33,16	,	36549	,	-23116	,	-20734	,	-9.50697	,	5
33,16	,	36566	,	-23097	,	-20750	,	-3.6917267	,	10
33,16	,	36582	,	-23092	,	-20716	,	2.4062853	,	15
33,16	,	36614	,	-23084	,	-20734	,	8.415417	,	21
33,16	,	36629	,	-23077	,	-20724	,	13.968793	,	27
33,16	,	36661	,	-23082	,	-20722	,	18.684103	,	32
33,16	,	36677	,	-23068	,	-20737	,	22.206749	,	36
33,16	,	36693	,	-23079	,	-20729	,	24.322432	,	39
33,17	,	36725	,	-23073	,	-20723	,	24.960634	,	39
33,17	,	36741	,	-23068	,	-20735	,	24.202026	,	36
33,17	,	36758	,	-23056	,	-20727	,	22.412312	,	31
33,17	,	36789	,	-23063	,	-20718	,	20.130665	,	26
33,17	,	36806	,	-23063	,	-20725	,	17.72293	,	20
33,17	,	36837	,	-23062	,	-20718	,	15.289051	,	14
33,17	,	36853	,	-23073	,	-20741	,	12.814928	,	9
33,17	,	36870	,	-23069	,	-20727	,	10.252328	,	5
33,17	,	36901	,	-23070	,	-20735	,	7.615687	,	2
33,17	,	36917	,	-23077	,	-20725	,	5.0151987	,	0
33,17	,	36933	,	-23080	,	-20733	,	2.5234714	,	0
33,17	,	36965	,	-23081	,	-20733	,	0.16379404	,	0
33,17	,	36981	,	-23075	,	-20734	,	-1.9679546	,	0
33,17	,	36997	,	-23088	,	-20727	,	-3.7301402	,	0
33,17	,	37029	,	-23089	,	-20725	,	-5.108368	,	0
33,17	,	37045	,	-23087	,	-20743	,	-6.183813	,	0
33,17	,	37077	,	-23092	,	-20726	,	-6.9705844	,	0
33,17	,	37093	,	-23109	,	-20745	,	-7.5359116	,	0
33,17	,	37109	,	-23099	,	-20742	,	-8.0815	,	0
33,17	,	37141	,	-23117	,	-20744	,	-8.742533	,	0
33,17	,	37157	,	-23116	,	-20752	,	-9.565193	,	0
33,17	,	37173	,	-23122	,	-20755	,	-10.567423	,	0
33,17	,	37205	,	-23125	,	-20748	,	-11.673382	,	0
33,17	,	37221	,	-23126	,	-20755	,	-12.734034	,	0
33,17	,	37253	,	-23133	,	-20763	,	-13.599943	,	0
33,17	,	37269	,	-23139	,	-20758	,	-14.203318	,	0
33,17	,	37285	,	-23138	,	-20781	,	-14.56509	,	0
33,17	,	37317	,	-23152	,	-20763	,	-14.734853	,	0
33,17	,	37333	,	-23151	,	-20771	,	-14.806682	,	0
33,17	,	37349	,	-23135	,	-20773	,	-14.762451	,	0
33,17	,	37381	,	-23120	,	-20766	,	-14.220566	,	0
33,17	,	37397	,	-23113	,	-20769	,	-12.611795	,	0
33,17	,	37413	,	-23111	,	-20762	,	-9.650755	,	1
33,17	,	37445	,	-23098	,	-20750	,	-5.5020947	,	3
33,17	,	37461	,	-23089	,	-20752	,	-0.5429802	,	7
33,17	,	37493	,	-23092	,	-20747	,	4.786471	,	11
33,17	,	37509	,	-23082	,	-20751	,	9.944597	,	16
33,17	,	37525	,	-23071	,	-20766	,	14.4604025	,	21
33,17	,	37557	,	-23074	,	-20736	,	18.094864	,	25
33,17	,	37573	,	-23067	,	-20753	,	20.709354	,	28
33,17	,	37589	,	-23062	,	-20745	,	22.233007	,	30
33,17	,	37621	,	-23069	,	-20746	,	22.703806	,	30
33,17	,	37637	,	-23079	,	-20750	,	22.10137	,	28
33,17	,	37669	,	-23073	,	-20747	,	20.337143	,	24
33,17	,	37685	,	-23072	,	-20761	,	17.53605	,	20
33,18	,	37701	,	-23073	,	-20752	,	14.10188	,	15
33,18	,	37733	,	-23076	,	-20743	,	10.4780035	,	10
33,18	,	37749	,	-23081	,	-20747	,	6.9723463	,	6
33,18	,	37765	,	-23084	,	-20757	,	3.7408218	,	3
33,18	,	37797	,	-23092	,	-20733	,	0.81994295	,	1
33,18	,	37813	,	-23099	,	-20752	,	-1.851876	,	0
33,18	,	37845	,	-23103	,	-20757	,	-4.375527	,	0
33,18	,	37861	,	-23094	,	-20752	,	-6.719258	,	0
33,18	,	37877	,	-23106	,	-20767	,	-8.66906	,	0
33,18	,	37909	,	-23106	,	-20752	,	-10.069004	,	0
33,18	,	37925	,	-23120	,	-20766	,	-10.991957	,	0
33,18	,	37941	,	-23121	,	-20767	,	-11.656624	,	0
33,18	,	37973	,	-23124	,	-20765	,	-12.243711	,	0
33,18	,	37989	,	-23139	,	-20768	,	-12.835014	,	0
33,18	,	38005	,	-23139	,	-20784	,	-13.516706	,	0
33,18	,	38037	,	-23147	,	-20757	,	-14.348951	,	0
33,18	,	38053	,	-23160	,	-20780	,	-15.330368	,	0
33,18	,	38085	,	-23174	,	-20786	,	-16.529533	,	0
33,18	,	38101	,	-23158	,	-20774	,	-17.959757	,	0
33,18	,	38117	,	-23162	,	-20782	,	-19.283688	,	0
33,18	,	38149	,	-23165	,	-20783	,	-19.997787	,	0
33,18	,	38165	,	-23162	,	-20773	,	-19.828804	,	0
33,18	,	38181	,	-23166	,	-20780	,	-18.762028	,	0
33,18	,	38213	,	-23167	,	-20770	,	-16.94999	,	1
33,18	,	38229	,	-23149	,	-20772	,	-14.575872	,	2
33,18	,	38260	,	-23153	,	-20753	,	-11.688563	,	4
33,18	,	38277	,	-23145	,	-20757	,	-8.331754	,	6
33,18	,	38293	,	-23115	,	-20757	,	-4.5506663	,	9
33,18	,	38325	,	-23092	,	-20744	,	-0.10511637	,	12
33,18	,	38341	,	-23090	,	-20751	,	5.329008	,	16
33,18	,	38357	,	-23092	,	-20741	,	11.55265	,	21
33,18	,	38389	,	-23069	,	-20731	,	17.851622	,	27
33,18	,	38405	,	-23079	,	-20746	,	23.51343	,	32
33,18	,	38421	,	-23076	,	-20747	,	27.946285	,	36
33,18	,	38453	,	-23071	,	-20745	,	30.659662	,	38
33,18	,	38468	,	-23083	,	-20745	,	31.424387	,	38
33,18	,	38501	,	-23065	,	-20740	,	30.312725	,	35
33,18	,	38517	,	-23072	,	-20735	,	27.709888	,	32
33,18	,	38533	,	-23069	,	-20736	,	24.16819	,	28
33,18	,	38565	,	-23065	,	-20742	,	20.183945	,	23
33,18	,	38580	,	-23059	,	-20747	,	16.225225	,	17
33,18	,	38597	,	-23061	,	-20742	,	12.718862	,	11
33,18	,	38629	,	-23073	,	-20737	,	9.835065	,	6
33,18	,	38645	,	-23071	,	-20746	,	7.4176435	,	2
33,18	,	38676	,	-23069	,	-20749	,	5.2581744	,	0
33,18	,	38692	,	-23070	,	-20750	,	3.3275304	,	0
33,19	,	38709	,	-23072	,	-20752	,	1.6872008	,	0
33,19	,	38741	,	-23086	,	-20735	,	0.2993989	,	0
33,19	,	38756	,	-23067	,	-20737	,	-0.9457394	,	0
33,19	,	38772	,	-23092	,	-20739	,	-2.0789564	,	0
33,19	,	38805	,	-23098	,	-20752	,	-3.211354	,	0
33,19	,	38821	,	-23102	,	-20761	,	-4.6086783	,	0
33,19	,	38837	,	-23102	,	-20751	,	-6.3667393	,	0
33,19	,	38868	,	-23103	,	-20750	,	-8.284094	,	0
33,19	,	38884	,	-23110	,	-20747	,	-10.060042	,	0
33,19	,	38917	,	-23112	,	-20751	,	-11.492462	,	0
33,19	,	38933	,	-23130	,	-20753	,	-12.580371	,	0
33,19	,	38948	,	-23118	,	-20759	,	-13.45315	,	0
33,19	,	38981	,	-23124	,	-20752	,	-14.1150875	,	0
33,19	,	38997	,	-23125	,	-20759	,	-14.414631	,	0
33,19	,	39013	,	-23146	,	-20769	,	-14.353729	,	0
33,19	,	39044	,	-23147	,	-20760	,	-14.214964	,	0
33,19	,	39060	,	-23157	,	-20767	,	-14.316872	,	0
33,19	,	39092	,	-23156	,	-20759	,	-14.7664795	,	0
33,19	,	39108	,	-23160	,	-20760	,	-15.438572	,	0
33,19	,	39124	,	-23169	,	-20756	,	-16.123377	,	0
33,19	,	39156	,	-23171	,	-20772	,	-16.693945	,	0
33,19	,	39172	,	-23170	,	-20758	,	-17.070429	,	0
33,19	,	39189	,	-23181	,	-20760	,	-17.155502	,	0
33,19	,	39221	,	-23176	,	-20745	,	-16.914268	,	0
33,19	,	39236	,	-23154	,	-20753	,	-16.23055	,	0
33,19	,	39268	,	-23124	,	-20742	,	-14.6021595	,	0
33,19	,	39284	,	-23101	,	-20728	,	-11.238832	,	1
33,19	,	39300	,	-23084	,	-20716	,	-5.5809307	,	4
33,19	,	39333	,	-23053	,	-20706	,	2.3687425	,	9
33,19	,	39349	,	-23027	,	-20700	,	12.199408	,	16
33,19	,	39364	,	-23007	,	-20690	,	23.287376	,	25
33,19	,	39396	,	-22990	,	-20682	,	34.788364	,	36
33,19	,	39412	,	-22975	,	-20676	,	45.709732	,	47
33,19	,	39428	,	-22949	,	-20672	,	55.17136	,	57
33,19	,	39461	,	-22950	,	-20664	,	62.56839	,	66
33,19	,	39476	,	-22940	,	-20668	,	67.45081	,	72
33,19	,	39508	,	-22923	,	-20659	,	69.556496	,	73
33,19	,	39524	,	-22916	,	-20665	,	69.04384	,	70
33,19	,	39540	,	-22915	,	-20655	,	66.36343	,	63
33,19	,	39572	,	-22912	,	-20651	,	61.95174	,	54
33,19	,	39588	,	-22908	,	-20655	,	56.201706	,	43
33,19	,	39604	,	-22899	,	-20647	,	49.589912	,	32
33,19	,	39636	,	-22907	,	-20649	,	42.645287	,	22
33,19	,	39652	,	-22902	,	-20647	,	35.762993	,	13
33,19	,	39684	,	-22907	,	-20656	,	29.168484	,	6
33,19	,	39700	,	-22907	,	-20635	,	23.00347	,	2
33,20	,	39716	,	-22904	,	-20646	,	17.38649	,	0
33,20	,	39748	,	-22899	,	-20630	,	12.492346	,	0
33,20	,	39764	,	-22909	,	-20638	,	8.486821	,	0
33,20	,	39781	,	-22917	,	-20634	,	5.306032	,	0
33,20	,	39812	,	-22926	,	-20656	,	2.6253152	,	0
33,20	,	39828	,	-22940	,	-20656	,	0.03678465	,	0
33,20	,	39844	,	-22929	,	-20653	,	-2.7162197	,	0
33,20	,	39876	,	-22937	,	-20660	,	-5.538939	,	0
33,20	,	39892	,	-22936	,	-20651	,	-8.105272	,	0
33,20	,	39924	,	-22958	,	-20653	,	-10.230286	,	0
33,20	,	39940	,	-22952	,	-20659	,	-11.997451	,	0
33,20	,	39956	,	-22954	,	-20662	,	-13.4858885	,	0
33,20	,	39988	,	-22973	,	-20666	,	-14.660716	,	0
33,20	,	40004	,	-22975	,	-20663	,	-15.607367	,	0
33,20	,	40020	,	-22979	,	-20674	,	-16.480494	,	0
33,20	,	40052	,	-22985	,	-20671	,	-17.29499	,	0
33,20	,	40068	,	-22992	,	-20678	,	-17.999146	,	0
33,20	,	40100	,	-22986	,	-20669	,	-18.523268	,	0
33,20	,	40116	,	-23001	,	-20676	,	-18.75235	,	0
33,20	,	40132	,	-23007	,	-20686	,	-18.681793	,	0
33,20	,	40164	,	-23003	,	-20696	,	-18.432121	,	0
33,20	,	40180	,	-23009	,	-20676	,	-18.030537	,	0
33,20	,	40196	,	-23014	,	-20691	,	-17.437115	,	0
33,20	,	40228	,	-22994	,	-20678	,	-16.584278	,	0
33,20	,	40244	,	-22981	,	-20684	,	-15.157038	,	0
33,20	,	40260	,	-22973	,	-20676	,	-12.674626	,	1
33,20	,	40292	,	-22949	,	-20666	,	-8.827971	,	3
33,20	,	40308	,	-22942	,	-20672	,	-3.568645	,	6
33,20	,	40340	,	-22929	,	-20668	,	2.8672132	,	11
33,20	,	40356	,	-22924	,	-20664	,	9.9366455	,	17
33,20	,	40372	,	-22897	,	-20651	,	17.017273	,	24
33,20	,	40404	,	-22901	,	-20655	,	23.631859	,	31
33,20	,	40420	,	-22892	,	-20644	,	29.346436	,	37
33,20	,	40436	,	-22885	,	-20639	,	33.717403	,	42
33,20	,	40468	,	-22877	,	-20637	,	36.49324	,	45
33,20	,	40484	,	-22878	,	-20643	,	37.65202	,	45
33,20	,	40516	,	-22883	,	-20646	,	37.225437	,	43
33,20	,	40532	,	-22868	,	-20636	,	35.301834	,	38
33,20	,	40548	,	-22869	,	-20641	,	32.21723	,	32
33,20	,	40579	,	-22865	,	-20637	,	28.48842	,	25
33,20	,	40596	,	-22861	,	-20628	,	24.577492	,	18
33,20	,	40612	,	-22867	,	-20628	,	20.800682	,	12
33,20	,	40644	,	-22869	,	-20648	,	17.26803	,	7
33,20	,	40660	,	-22872	,	-20634	,	13.925816	,	3
33,20	,	40676	,	-22875	,	-20641	,	10.712468	,	1
33,21	,	40708	,	-22866	,	-20637	,	7.6696396	,	0
33,21	,	40724	,	-22874	,	-20634	,	4.9490376	,	0
33,21	,	40756	,	-22882	,	-20633	,	2.6286225	,	0
33,21	,	40772	,	-22880	,	-20647	,	0.61366606	,	0
33,21	,	40788	,	-22888	,	-20645	,	-1.2049682	,	0
33,21	,	40820	,	-22887	,	-20638	,	-2.8685582	,	0
33,21	,	40836	,	-22894	,	-20637	,	-4.3897567	,	0
33,21	,	40852	,	-22890	,	-20636	,	-5.7470427	,	0
33,21	,	40884	,	-22901	,	-20651	,	-6.8941984	,	0
33,21	,	40900	,	-22903	,	-20634	,	-7.8420525	,	0
33,21	,	40932	,	-22920	,	-20644	,	-8.724472	,	0
33,21	,	40948	,	-22932	,	-20659	,	-9.806908	,	0
33,21	,	40964	,	-22925	,	-20662	,	-11.302692	,	0
33,21	,	40995	,	-22929	,	-20658	,	-13.076006	,	0
33,21	,	41011	,	-22940	,	-20658	,	-14.769846	,	0
33,21	,	41028	,	-22942	,	-20658	,	-16.171082	,	0
33,21	,	41060	,	-22952	,	-20665	,	-17.246284	,	0
33,21	,	41076	,	-22956	,	-20673	,	-18.035995	,	0
33,21	,	41092	,	-22953	,	-20667	,	-18.561134	,	0
33,21	,	41124	,	-22945	,	-20678	,	-18.67792	,	0
33,21	,	41140	,	-22944	,	-20645	,	-18.102064	,	0
33,21	,	41172	,	-22915	,	-20662	,	-16.507439	,	0
33,21	,	41187	,	-22903	,	-20638	,	-13.494091	,	1
33,21	,	41204	,	-22897	,	-20647	,	-8.801684	,	4
33,21	,	41236	,	-22888	,	-20644	,	-2.6642814	,	8
33,21	,	41252	,	-22876	,	-20639	,	4.2864957	,	14
33,21	,	41268	,	-22872	,	-20629	,	11.339059	,	20
33,21	,	41300	,	-22859	,	-20644	,	17.85493	,	27
33,21	,	41316	,	-22857	,	-20626	,	23.350721	,	33
33,21	,	41347	,	-22861	,	-20632	,	27.460033	,	38
33,21	,	41363	,	-22847	,	-20646	,	29.910076	,	42
33,21	,	41379	,	-22844	,	-20613	,	30.711903	,	43
33,21	,	41412	,	-22822	,	-20619	,	30.25653	,	40
33,21	,	41428	,	-22812	,	-20618	,	29.190517	,	36
33,21	,	41444	,	-22797	,	-20611	,	28.186493	,	30
33,21	,	41476	,	-22798	,	-20612	,	27.658033	,	24
33,21	,	41492	,	-22793	,	-20602	,	27.5996	,	17
33,21	,	41523	,	-22777	,	-20601	,	27.764519	,	11
33,21	,	41540	,	-22786	,	-20601	,	27.922964	,	6
33,21	,	41556	,	-22791	,	-20605	,	27.761852	,	2
33,21	,	41588	,	-22796	,	-20615	,	26.81707	,	0
33,21	,	41604	,	-22804	,	-20618	,	24.718594	,	0
33,21	,	41620	,	-22800	,	-20601	,	21.385279	,	0
33,21	,	41651	,	-22806	,	-20606	,	17.06601	,	0
33,21	,	41667	,	-22809	,	-20607	,	12.20454	,	0
33,21	,	41683	,	-22831	,	-20618	,	7.1477222	,	0
33,22	,	41715	,	-22819	,	-20611	,	2.0713477	,	0
33,22	,	41731	,	-22823	,	-20607	,	-2.7459335	,	0
33,22	,	41764	,	-22829	,	-20620	,	-6.885461	,	0
33,22	,	41779	,	-22834	,	-20614	,	-10.096306	,	0
33,22	,	41795	,	-22836	,	-20618	,	-12.363496	,	0
33,22	,	41827	,	-22842	,	-20624	,	-13.778411	,	0
33,22	,	41843	,	-22852	,	-20633	,	-14.526758	,	0
33,22	,	41859	,	-22853	,	-20605	,	-14.867981	,	0
33,22	,	41892	,	-22866	,	-20622	,	-15.041576	,	0
33,22	,	41907	,	-22892	,	-20630	,	-15.355709	,	0
33,22	,	41939	,	-22876	,	-20626	,	-16.15463	,	0
33,22	,	41955	,	-22887	,	-20626	,	-17.415636	,	0
33,22	,	41971	,	-22877	,	-20626	,	-18.696705	,	0
33,22	,	42003	,	-22866	,	-20621	,	-19.417847	,	0
33,22	,	42019	,	-22852	,	-20612	,	-18.970844	,	0
33,22	,	42035	,	-22835	,	-20611	,	-16.839853	,	0
33,22	,	42067	,	-22820	,	-20608	,	-12.757242	,	2
33,22	,	42083	,	-22828	,	-20603	,	-6.8949966	,	6
33,22	,	42099	,	-22811	,	-20590	,	0.047385216	,	11
33,22	,	42131	,	-22786	,	-20607	,	7.289376	,	17
33,22	,	42147	,	-22775	,	-20590	,	14.431068	,	24
33,22	,	42179	,	-22780	,	-20598	,	21.188976	,	31
33,22	,	42195	,	-22761	,	-20603	,	27.0768	,	37
33,22	,	42211	,	-22765	,	-20596	,	31.627657	,	42
33,22	,	42243	,	-22768	,	-20591	,	34.5184	,	46
33,22	,	42259	,	-22765	,	-20588	,	35.496597	,	46
33,22	,	42275	,	-22761	,	-20603	,	34.541306	,	42
33,22	,	42307	,	-22750	,	-20593	,	32.017834	,	37
33,22	,	42323	,	-22763	,	-20605	,	28.494135	,	31
33,22	,	42355	,	-22762	,	-20596	,	24.388317	,	24
33,22	,	42371	,	-22775	,	-20608	,	19.870901	,	17
33,22	,	42388	,	-22775	,	-20603	,	15.023975	,	11
33,22	,	42419	,	-22778	,	-20601	,	10.005648	,	6
33,22	,	42435	,	-22779	,	-20618	,	5.1111383	,	2
33,22	,	42451	,	-22792	,	-20610	,	0.62308073	,	0
33,22	,	42483	,	-22778	,	-20619	,	-3.2806644	,	0
33,22	,	42499	,	-22786	,	-20616	,	-6.392955	,	0
33,22	,	42531	,	-22799	,	-20620	,	-8.58464	,	0
33,22	,	42547	,	-22805	,	-20610	,	-10.048845	,	0
33,22	,	42563	,	-22814	,	-20629	,	-11.161566	,	0
33,22	,	42595	,	-22814	,	-20617	,	-12.196333	,	0
33,22	,	42611	,	-22834	,	-20627	,	-13.289868	,	0
33,22	,	42627	,	-22828	,	-20636	,	-14.525154	,	0
33,22	,	42659	,	-22838	,	-20631	,	-15.863767	,	0
33,22	,	42675	,	-22851	,	-20642	,	-17.180828	,	0
33,22	,	42691	,	-22851	,	-20651	,	-18.432892	,	0
33,23	,	42723	,	-22868	,	-20643	,	-19.626245	,	0
33,23	,	42739	,	-22870	,	-20645	,	-20.771967	,	0
33,23	,	42771	,	-22871	,	-20658	,	-21.830286	,	0
33,23	,	42787	,	-22877	,	-20660	,	-22.62981	,	0
33,23	,	42803	,	-22886	,	-20677	,	-23.015835	,	0
33,23	,	42835	,	-22890	,	-20663	,	-22.99455	,	0
33,23	,	42851	,	-22898	,	-20673	,	-22.671768	,	0
33,23	,	42867	,	-22908	,	-20681	,	-22.197231	,	0
33,23	,	42899	,	-22918	,	-20685	,	-21.772243	,	0
33,23	,	42915	,	-22916	,	-20694	,	-21.545694	,	0
33,23	,	42947	,	-22928	,	-20695	,	-21.49856	,	0
33,23	,	42963	,	-22931	,	-20698	,	-21.534092	,	0
33,23	,	42979	,	-22922	,	-20697	,	-21.499332	,	0
33,23	,	43011	,	-22903	,	-20698	,	-20.993042	,	0
33,23	,	43027	,	-22905	,	-20698	,	-19.45493	,	0
33,23	,	43043	,	-22888	,	-20698	,	-16.551395	,	1
33,23	,	43075	,	-22881	,	-20692	,	-12.276996	,	3
33,23	,	43091	,	-22866	,	-20685	,	-6.819339	,	7
33,23	,	43107	,	-22852	,	-20685	,	-0.4812975	,	12
33,23	,	43139	,	-22849	,	-20679	,	6.333802	,	18
33,23	,	43155	,	-22843	,	-20691	,	13.073242	,	24
33,23	,	43187	,	-22839	,	-20682	,	19.09272	,	30
33,23	,	43203	,	-22833	,	-20670	,	23.857805	,	36
33,23	,	43219	,	-22832	,	-20685	,	27.06279	,	40
33,23	,	43251	,	-22829	,	-20677	,	28.614052	,	42
33,23	,	43267	,	-22826	,	-20685	,	28.5971	,	41
33,23	,	43283	,	-22835	,	-20677	,	27.205914	,	37
33,23	,	43315	,	-22838	,	-20686	,	24.617237	,	32
33,23	,	43331	,	-22829	,	-20689	,	21.056599	,	26
33,23	,	43363	,	-22828	,	-20688	,	16.963465	,	20
33,23	,	43379	,	-22840	,	-20691	,	12.828034	,	14
33,23	,	43395	,	-22848	,	-20701	,	8.868334	,	8
33,23	,	43426	,	-22851	,	-20697	,	5.0478687	,	4
33,23	,	43443	,	-22854	,	-20700	,	1.3453355	,	1
33,23	,	43458	,	-22872	,	-20705	,	-2.2019963	,	0
33,23	,	43491	,	-22869	,	-20715	,	-5.612442	,	0
33,23	,	43507	,	-22885	,	-20730	,	-8.894848	,	0
33,23	,	43523	,	-22888	,	-20733	,	-11.999697	,	0
33,23	,	43555	,	-22909	,	-20745	,	-14.922813	,	0
33,23	,	43571	,	-22917	,	-20758	,	-17.76531	,	0
33,23	,	43603	,	-22929	,	-20761	,	-20.638252	,	0
33,23	,	43618	,	-22939	,	-20768	,	-23.53189	,	0
33,23	,	43635	,	-22960	,	-20774	,	-26.380672	,	0
33,23	,	43667	,	-22962	,	-20783	,	-29.148731	,	0
33,23	,	43683	,	-22972	,	-20789	,	-31.709522	,	0
33,23	,	43699	,	-22985	,	-20795	,	-33.839436	,	0
33,24	,	43731	,	-22995	,	-20797	,	-35.410965	,	0
33,24	,	43746	,	-23010	,	-20815	,	-36.453094	,	0
33,24	,	43778	,	-23013	,	-20798	,	-37.04929	,	0
33,24	,	43794	,	-23035	,	-20820	,	-37.28244	,	0
33,24	,	43810	,	-23055	,	-20824	,	-37.357925	,	0
33,24	,	43843	,	-23057	,	-20824	,	-37.577866	,	0
33,24	,	43859	,	-23076	,	-20843	,	-38.064354	,	0
33,24	,	43875	,	-23089	,	-20842	,	-38.765354	,	0
33,24	,	43907	,	-23082	,	-20853	,	-39.532906	,	0
33,24	,	43923	,	-23095	,	-20854	,	-40.018654	,	0
33,24	,	43954	,	-23107	,	-20865	,	-39.886894	,	0
33,24	,	43970	,	-23104	,	-20862	,	-39.057495	,	0
33,24	,	43986	,	-23110	,	-20876	,	-37.545456	,	0
33,24	,	44019	,	-23126	,	-20859	,	-35.42907	,	1
33,24	,	44035	,	-23107	,	-20866	,	-32.885338	,	3
33,24	,	44051	,	-23101	,	-20872	,	-29.884611	,	5
33,24	,	44083	,	-23094	,	-20862	,	-26.142387	,	8
33,24	,	44098	,	-23096	,	-20870	,	-21.519257	,	11
33,24	,	44114	,	-23091	,	-20869	,	-16.226856	,	15
33,24	,	44146	,	-23078	,	-20865	,	-10.633006	,	20
33,24	,	44162	,	-23072	,	-20867	,	-5.000642	,	25
33,24	,	44194	,	-23061	,	-20861	,	0.52183056	,	30
33,24	,	44210	,	-23060	,	-20859	,	5.770361	,	34
33,24	,	44227	,	-23058	,	-20879	,	10.484545	,	37
33,24	,	44258	,	-23049	,	-20855	,	14.364583	,	39
33,24	,	44275	,	-23064	,	-20862	,	17.162453	,	39
33,24	,	44291	,	-23058	,	-20860	,	18.640991	,	38
33,24	,	44322	,	-23060	,	-20855	,	18.665794	,	35
33,24	,	44338	,	-23054	,	-20851	,	17.396343	,	30
33,24	,	44371	,	-23063	,	-20861	,	15.202885	,	25
33,24	,	44387	,	-23054	,	-20852	,	12.470762	,	20
33,24	,	44403	,	-23064	,	-20846	,	9.543022	,	15
33,24	,	44434	,	-23058	,	-20854	,	6.693318	,	10
33,24	,	44450	,	-23065	,	-20849	,	4.1012278	,	6
33,24	,	44466	,	-23069	,	-20868	,	1.8405261	,	3
33,24	,	44498	,	-23071	,	-20850	,	-0.123147964	,	1
33,24	,	44514	,	-23063	,	-20855	,	-1.8037902	,	0
33,24	,	44530	,	-23084	,	-20865	,	-3.1767926	,	0
33,24	,	44562	,	-23080	,	-20871	,	-4.357494	,	0
33,24	,	44578	,	-23079	,	-20862	,	-5.4845924	,	0
33,24	,	44610	,	-23095	,	-20858	,	-6.557671	,	0
33,24	,	44626	,	-23101	,	-20861	,	-7.6404915	,	0
33,24	,	44642	,	-23108	,	-20869	,	-8.905811	,	0
33,24	,	44674	,	-23102	,	-20871	,	-10.377463	,	0
33,24	,	44690	,	-23110	,	-20877	,	-11.845003	,	0
33,25	,	44706	,	-23116	,	-20888	,	-13.078655	,	0
33,25	,	44738	,	-23122	,	-20870	,	-14.018183	,	0
33,25	,	44754	,	-23131	,	-20888	,	-14.738774	,	0
33,25	,	44786	,	-23135	,	-20892	,	-15.354414	,	0
33,25	,	44802	,	-23146	,	-20898	,	-15.966699	,	0
33,25	,	44818	,	-23150	,	-20902	,	-16.65294	,	0
33,25	,	44850	,	-23151	,	-20900	,	-17.404943	,	0
33,25	,	44866	,	-23163	,	-20906	,	-18.112139	,	0
33,25	,	44882	,	-23166	,	-20898	,	-18.698952	,	0
33,25	,	44914	,	-23172	,	-20897	,	-19.162582	,	0
33,25	,	44930	,	-23185	,	-20903	,	-19.530602	,	0
33,25	,	44946	,	-23184	,	-20917	,	-19.861666	,	0
33,25	,	44978	,	-23191	,	-20907	,	-20.158321	,	0
33,25	,	44994	,	-23182	,	-20913	,	-20.278189	,	0
33,25	,	45026	,	-23173	,	-20905	,	-19.909594	,	0
33,25	,	45042	,	-23166	,	-20910	,	-18.64621	,	0
33,25	,	45058	,	-23155	,	-20900	,	-16.186897	,	1
33,25	,	45090	,	-23150	,	-20903	,	-12.470494	,	3
33,25	,	45106	,	-23150	,	-20907	,	-7.7360125	,	6
33,25	,	45122	,	-23147	,	-20904	,	-2.515751	,	10
33,25	,	45154	,	-23133	,	-20895	,	2.607809	,	15
33,25	,	45170	,	-23119	,	-20903	,	7.3324203	,	20
33,25	,	45202	,	-23112	,	-20909	,	11.6518955	,	24
33,25	,	45218	,	-23112	,	-20885	,	15.5581045	,	28
33,25	,	45234	,	-23106	,	-20892	,	18.863873	,	31
33,25	,	45266	,	-23107	,	-20888	,	21.306526	,	33
33,25	,	45282	,	-23102	,	-20895	,	22.692064	,	33
33,25	,	45298	,	-23097	,	-20885	,	22.986479	,	31
33,25	,	45330	,	-23096	,	-20891	,	22.339876	,	27
33,25	,	45346	,	-23090	,	-20892	,	21.002495	,	22
33,25	,	45362	,	-23102	,	-20894	,	19.185322	,	17
33,25	,	45394	,	-23099	,	-20896	,	16.956776	,	13
33,25	,	45410	,	-23099	,	-20888	,	14.340908	,	9
33,25	,	45442	,	-23102	,	-20903	,	11.4651785	,	6
33,25	,	45458	,	-23097	,	-20874	,	8.540884	,	3
33,25	,	45474	,	-23101	,	-20888	,	5.8057504	,	1
33,25	,	45506	,	-23106	,	-20891	,	3.4216537	,	0
33,25	,	45522	,	-23120	,	-20888	,	1.3294389	,	0
33,25	,	45538	,	-23112	,	-20896	,	-0.6667893	,	0
33,25	,	45570	,	-23109	,	-20888	,	-2.5764086	,	0
33,25	,	45586	,	-23109	,	-20896	,	-4.147052	,	0
33,25	,	45618	,	-23122	,	-20892	,	-5.199934	,	0
33,25	,	45634	,	-23126	,	-20890	,	-5.8713207	,	0
33,25	,	45650	,	-23131	,	-20902	,	-6.4589586	,	0
33,25	,	45682	,	-23130	,	-20911	,	-7.1429443	,	0
33,25	,	45698	,	-23141	,	-20889	,	-7.9359617	,	0
33,26	,	45714	,	-23144	,	-20902	,	-8.832271	,	0
33,26	,	45746	,	-23158	,	-20906	,	-9.89101	,	0
33,26	,	45762	,	-23161	,	-20911	,	-11.194472	,	0
33,26	,	45778	,	-23174	,	-20909	,	-12.783064	,	0
33,26	,	45810	,	-23170	,	-20916	,	-14.592461	,	0
33,26	,	45826	,	-23162	,	-20909	,	-16.330894	,	0
33,26	,	45858	,	-23175	,	-20917	,	-17.542154	,	0
33,26	,	45874	,	-23189	,	-20917	,	-18.037666	,	0
33,26	,	45890	,	-23194	,	-20921	,	-18.081871	,	0
33,26	,	45921	,	-23192	,	-20932	,	-18.00705	,	0
33,26	,	45937	,	-23175	,	-20906	,	-17.787804	,	0
33,26	,	45954	,	-23176	,	-20917	,	-17.03669	,	0
33,26	,	45986	,	-23163	,	-20903	,	-15.352758	,	0
33,26	,	46002	,	-23160	,	-20907	,	-12.565226	,	1
33,26	,	46034	,	-23138	,	-20896	,	-8.68871	,	3
33,26	,	46050	,	-23128	,	-20896	,	-3.796701	,	6
33,26	,	46066	,	-23117	,	-20897	,	1.9600992	,	10
33,26	,	46098	,	-23122	,	-20891	,	8.174722	,	15
33,26	,	46114	,	-23096	,	-20878	,	14.238526	,	21
33,26	,	46130	,	-23083	,	-20873	,	19.749138	,	27
33,26	,	46162	,	-23086	,	-20884	,	24.57901	,	32
33,26	,	46178	,	-23086	,	-20863	,	28.479246	,	36
33,26	,	46209	,	-23070	,	-20870	,	31.086096	,	38
33,26	,	46225	,	-23077	,	-20875	,	32.257324	,	38
33,26	,	46242	,	-23083	,	-20872	,	31.982613	,	36
33,26	,	46274	,	-23080	,	-20870	,	30.223524	,	32
33,26	,	46290	,	-23080	,	-20874	,	27.109894	,	27
33,26	,	46306	,	-23078	,	-20868	,	23.03603	,	21
33,26	,	46338	,	-23071	,	-20867	,	18.54333	,	15
33,26	,	46354	,	-23072	,	-20862	,	14.202823	,	10
33,26	,	46369	,	-23071	,	-20852	,	10.44804	,	6
33,26	,	46401	,	-23068	,	-20871	,	7.4812393	,	3
33,26	,	46418	,	-23078	,	-20845	,	5.2958813	,	1
33,26	,	46450	,	-23078	,	-20856	,	3.6929302	,	0
33,26	,	46466	,	-23073	,	-20849	,	2.4352405	,	0
33,26	,	46482	,	-23085	,	-20853	,	1.3870332	,	0
33,26	,	46513	,	-23083	,	-20844	,	0.4203061	,	0
33,26	,	46530	,	-23072	,	-20832	,	-0.5213312	,	0
33,26	,	46546	,	-23064	,	-20833	,	-1.2187252	,	0
33,26	,	46578	,	-23075	,	-20838	,	-1.3725581	,	0
33,26	,	46594	,	-23085	,	-20831	,	-1.0395634	,	0
33,26	,	46625	,	-23076	,	-20824	,	-0.6034894	,	0
33,26	,	46641	,	-23071	,	-20834	,	-0.29859126	,	0
33,26	,	46657	,	-23079	,	-20805	,	-0.080118895	,	0
33,26	,	46689	,	-23086	,	-20825	,	0.051756054	,	0
33,27	,	46705	,	-23094	,	-20818	,	-0.09745317	,	0
33,27	,	46721	,	-23087	,	-20811	,	-0.7054034	,	0
33,27	,	46753	,	-23097	,	-20810	,	-1.7357239	,	0
33,27	,	46769	,	-23104	,	-20810	,	-3.065919	,	0
33,27	,	46785	,	-23108	,	-20805	,	-4.648039	,	0
33,27	,	46817	,	-23117	,	-20810	,	-6.4499116	,	0
33,27	,	46834	,	-23133	,	-20812	,	-8.467999	,	0
33,27	,	46865	,	-23132	,	-20813	,	-10.746697	,	0
33,27	,	46881	,	-23138	,	-20827	,	-13.197242	,	0
33,27	,	46897	,	-23135	,	-20811	,	-15.515778	,	0
33,27	,	46929	,	-23126	,	-20816	,	-17.26619	,	0
33,27	,	46945	,	-23100	,	-20815	,	-17.874107	,	0
33,27	,	46961	,	-23094	,	-20803	,	-16.704931	,	0
33,27	,	46993	,	-23073	,	-20796	,	-13.377242	,	1
33,27	,	47009	,	-23076	,	-20801	,	-8.008235	,	4
33,27	,	47041	,	-23062	,	-20796	,	-1.2149596	,	9
33,27	,	47057	,	-23049	,	-20788	,	6.170821	,	15
33,27	,	47073	,	-23036	,	-20781	,	13.471862	,	22
33,27	,	47105	,	-23020	,	-20780	,	20.266539	,	29
33,27	,	47121	,	-23005	,	-20791	,	26.333656	,	35
33,27	,	47137	,	-22993	,	-20758	,	31.57988	,	41
33,27	,	47169	,	-22995	,	-20767	,	35.876373	,	46
33,27	,	47185	,	-22995	,	-20770	,	38.90828	,	49
33,27	,	47201	,	-22983	,	-20758	,	40.32161	,	49
33,27	,	47233	,	-22978	,	-20757	,	40.06405	,	45
33,27	,	47249	,	-22975	,	-20771	,	38.41678	,	39
33,27	,	47281	,	-22984	,	-20764	,	35.695507	,	32
33,27	,	47298	,	-22968	,	-20764	,	32.135727	,	25
33,27	,	47313	,	-22983	,	-20760	,	28.018883	,	19
33,27	,	47345	,	-22966	,	-20764	,	23.666897	,	13
33,27	,	47361	,	-22976	,	-20767	,	19.38588	,	8
33,27	,	47377	,	-22979	,	-20747	,	15.387273	,	4
33,27	,	47409	,	-22985	,	-20763	,	11.680853	,	1
33,27	,	47425	,	-22982	,	-20771	,	8.20179	,	0
33,27	,	47457	,	-22988	,	-20774	,	4.972557	,	0
33,27	,	47473	,	-22997	,	-20770	,	2.0237708	,	0
33,27	,	47489	,	-22985	,	-20774	,	-0.64431405	,	0
33,27	,	47521	,	-22990	,	-20779	,	-2.9095736	,	0
33,27	,	47537	,	-23009	,	-20765	,	-4.664026	,	0
33,27	,	47553	,	-22995	,	-20773	,	-6.029081	,	0
33,27	,	47585	,	-23000	,	-20763	,	-7.089693	,	0
33,27	,	47601	,	-23003	,	-20789	,	-7.7674036	,	0
33,27	,	47617	,	-23018	,	-20767	,	-8.116115	,	0
33,27	,	47649	,	-23036	,	-20784	,	-8.484103	,	0
33,27	,	47665	,	-23033	,	-20781	,	-9.312212	,	0
33,27	,	47697	,	-23044	,	-20784	,	-10.774105	,	0
33,28	,	47713	,	-23041	,	-20787	,	-12.69085	,	0
33,28	,	47729	,	-23046	,	-20788	,	-14.694752	,	0
33,28	,	47761	,	-23055	,	-20791	,	-16.426764	,	0
33,28	,	47777	,	-23062	,	-20799	,	-17.730225	,	0
33,28	,	47793	,	-23071	,	-20796	,	-18.659658	,	0
33,28	,	47825	,	-23073	,	-20801	,	-19.329882	,	0
33,28	,	47841	,	-23078	,	-20813	,	-19.787306	,	0
33,28	,	47873	,	-23090	,	-20799	,	-20.03683	,	0
33,28	,	47889	,	-23102	,	-20811	,	-20.19453	,	0
33,28	,	47905	,	-23103	,	-20811	,	-20.45372	,	0
33,28	,	47937	,	-23099	,	-20809	,	-20.81469	,	0
33,28	,	47953	,	-23093	,	-20806	,	-20.954617	,	0
33,28	,	47969	,	-23081	,	-20803	,	-20.379633	,	0
33,28	,	48001	,	-23069	,	-20792	,	-18.62714	,	0
33,28	,	48017	,	-23046	,	-20787	,	-15.348486	,	1
33,28	,	48049	,	-23047	,	-20792	,	-10.412999	,	4
33,28	,	48065	,	-23034	,	-20785	,	-4.1020975	,	8
33,28	,	48081	,	-23018	,	-20792	,	2.9941678	,	14
33,28	,	48113	,	-23006	,	-20763	,	10.321394	,	21
33,28	,	48129	,	-22987	,	-20767	,	17.476698	,	28
33,28	,	48145	,	-22981	,	-20762	,	24.140089	,	35
33,28	,	48177	,	-22970	,	-20757	,	29.98765	,	41
33,28	,	48193	,	-22965	,	-20762	,	34.682888	,	46
33,28	,	48210	,	-22962	,	-20763	,	37.93966	,	49
33,28	,	48241	,	-22971	,	-20762	,	39.496723	,	49
33,28	,	48257	,	-22972	,	-20748	,	39.10196	,	46
33,28	,	48289	,	-22966	,	-20756	,	36.708412	,	40
33,28	,	48305	,	-22962	,	-20758	,	32.68753	,	33
33,28	,	48321	,	-22966	,	-20764	,	27.692299	,	26
33,28	,	48353	,	-22971	,	-20760	,	22.308115	,	19
33,28	,	48368	,	-22965	,	-20758	,	16.945808	,	13
33,28	,	48385	,	-22976	,	-20762	,	11.920692	,	8
33,28	,	48417	,	-22992	,	-20765	,	7.33842	,	4
33,28	,	48433	,	-22984	,	-20765	,	3.081297	,	1
33,28	,	48465	,	-22992	,	-20774	,	-0.8747139	,	0
33,28	,	48481	,	-22986	,	-20774	,	-4.3448014	,	0
33,28	,	48497	,	-22996	,	-20773	,	-7.1169186	,	0
33,28	,	48529	,	-22996	,	-20775	,	-9.107496	,	0
33,28	,	48545	,	-23003	,	-20777	,	-10.385292	,	0
33,28	,	48561	,	-23015	,	-20788	,	-11.148792	,	0
33,28	,	48593	,	-23017	,	-20768	,	-11.697309	,	0
33,28	,	48609	,	-23029	,	-20779	,	-12.298904	,	0
33,28	,	48624	,	-23032	,	-20777	,	-13.099291	,	0
33,28	,	48657	,	-23047	,	-20780	,	-14.162567	,	0
33,28	,	48672	,	-23049	,	-20787	,	-15.507273	,	0
33,29	,	48704	,	-23063	,	-20780	,	-17.097578	,	0
33,29	,	48721	,	-23061	,	-20784	,	-18.816717	,	0
33,29	,	48737	,	-23058	,	-20791	,	-20.397062	,	0
33,29	,	48769	,	-23066	,	-20790	,	-21.46414	,	0
33,29	,	48785	,	-23074	,	-20799	,	-21.813227	,	0
33,29	,	48801	,	-23086	,	-20808	,	-21.56937	,	0
33,29	,	48832	,	-23082	,	-20792	,	-21.007143	,	0
33,29	,	48848	,	-23099	,	-20801	,	-20.33916	,	0
33,29	,	48881	,	-23106	,	-20802	,	-19.762035	,	0
33,29	,	48897	,	-23106	,	-20801	,	-19.453796	,	0
33,29	,	48913	,	-23101	,	-20804	,	-19.346775	,	0
33,29	,	48945	,	-23109	,	-20803	,	-19.143692	,	0
33,29	,	48961	,	-23098	,	-20797	,	-18.567558	,	0
33,29	,	48977	,	-23092	,	-20785	,	-17.386576	,	0
33,29	,	49008	,	-23081	,	-20795	,	-15.345664	,	1
33,29	,	49024	,	-23057	,	-20778	,	-12.184983	,	3
33,29	,	49040	,	-23056	,	-20791	,	-7.7235374	,	6
33,29	,	49073	,	-23053	,	-20772	,	-2.1326008	,	10
33,29	,	49089	,	-23044	,	-20773	,	3.9827285	,	15
33,29	,	49120	,	-23022	,	-20760	,	10.007605	,	21
33,29	,	49136	,	-23013	,	-20756	,	15.665249	,	27
33,29	,	49153	,	-23017	,	-20754	,	20.805532	,	32
33,29	,	49185	,	-23014	,	-20756	,	25.065746	,	37
33,29	,	49201	,	-23017	,	-20753	,	27.953033	,	40
33,29	,	49216	,	-23015	,	-20756	,	29.125872	,	40
33,29	,	49248	,	-23008	,	-20747	,	28.5648	,	38
33,29	,	49264	,	-22996	,	-20752	,	26.651674	,	34
33,29	,	49296	,	-23009	,	-20752	,	23.96676	,	29
33,29	,	49312	,	-23003	,	-20752	,	20.904099	,	23
33,29	,	49328	,	-23011	,	-20758	,	17.62767	,	17
33,29	,	49360	,	-23009	,	-20751	,	14.247999	,	12
33,29	,	49376	,	-23013	,	-20753	,	10.873372	,	7
33,29	,	49392	,	-23016	,	-20755	,	7.6052256	,	3
33,29	,	49425	,	-23025	,	-20768	,	4.495765	,	1
33,29	,	49440	,	-23019	,	-20755	,	1.5591035	,	0
33,29	,	49456	,	-23023	,	-20767	,	-1.1082959	,	0
33,29	,	49488	,	-23017	,	-20762	,	-3.3131187	,	0
33,29	,	49504	,	-23027	,	-20761	,	-4.9024086	,	0
33,29	,	49536	,	-23030	,	-20764	,	-5.902863	,	0
33,29	,	49552	,	-23036	,	-20760	,	-6.518875	,	0
33,29	,	49568	,	-23046	,	-20762	,	-7.0212307	,	0
33,29	,	49600	,	-23060	,	-20768	,	-7.7148294	,	0
33,29	,	49616	,	-23052	,	-20760	,	-8.828936	,	0
33,29	,	49632	,	-23058	,	-20763	,	-10.281605	,	0
33,29	,	49664	,	-23059	,	-20762	,	-11.746851	,	0
33,29	,	49680	,	-23068	,	-20773	,	-12.961266	,	0
33,30	,	49712	,	-23079	,	-20778	,	-13.886649	,	0
33,30	,	49728	,	-23085	,	-20776	,	-14.674431	,	0
33,30	,	49744	,	-23091	,	-20789	,	-15.490686	,	0
33,30	,	49776	,	-23091	,	-20782	,	-16.357939	,	0
33,30	,	49792	,	-23097	,	-20796	,	-17.14929	,	0
33,30	,	49808	,	-23106	,	-20788	,	-17.736622	,	0
33,30	,	49840	,	-23104	,	-20799	,	-18.08818	,	0
33,30	,	49856	,	-23097	,	-20792	,	-18.117825	,	0
33,30	,	49888	,	-23096	,	-20785	,	-17.584793	,	0
33,30	,	49904	,	-23081	,	-20794	,	-16.22079	,	0
33,30	,	49920	,	-23069	,	-20789	,	-13.796049	,	1
33,30	,	49952	,	-23064	,	-20780	,	-10.176451	,	3
33,30	,	49968	,	-23057	,	-20786	,	-5.494247	,	6
33,30	,	49984	,	-23052	,	-20788	,	-0.16147566	,	10
33,30	,	50016	,	-23035	,	-20780	,	5.3522267	,	15
33,30	,	50032	,	-23031	,	-20771	,	10.703805	,	20
33,30	,	50064	,	-22996	,	-20756	,	15.759561	,	25
33,30	,	50080	,	-22976	,	-20749	,	20.70467	,	30
33,30	,	50096	,	-22947	,	-20729	,	25.939476	,	34
33,30	,	50128	,	-22916	,	-20708	,	31.802036	,	38
33,30	,	50144	,	-22888	,	-20702	,	38.467766	,	41
33,30	,	50160	,	-22847	,	-20686	,	45.964874	,	44
33,30	,	50192	,	-22826	,	-20683	,	54.167477	,	47
33,30	,	50208	,	-22786	,	-20662	,	62.759483	,	50
33,30	,	50224	,	-22768	,	-20661	,	71.2678	,	53
33,30	,	50256	,	-22736	,	-20645	,	79.14344	,	56
33,30	,	50272	,	-22717	,	-20656	,	85.84405	,	58
33,30	,	50304	,	-22723	,	-20682	,	90.78526	,	60
33,30	,	50320	,	-22727	,	-20685	,	93.15009	,	59
33,30	,	50336	,	-22734	,	-20705	,	92.05715	,	56
33,30	,	50368	,	-22763	,	-20738	,	86.917206	,	50
33,30	,	50384	,	-22801	,	-20780	,	77.409515	,	43
33,30	,	50400	,	-22846	,	-20818	,	63.362823	,	35
33,30	,	50432	,	-22878	,	-20859	,	44.95093	,	27
33,30	,	50448	,	-22918	,	-20881	,	22.97731	,	19
33,30	,	50480	,	-22951	,	-20929	,	-1.1636562	,	12
33,30	,	50496	,	-22957	,	-20922	,	-25.653465	,	6
33,30	,	50512	,	-22983	,	-20953	,	-48.394936	,	2
33,30	,	50544	,	-22986	,	-20946	,	-67.43673	,	0
33,30	,	50560	,	-22998	,	-20943	,	-81.382835	,	0
33,30	,	50576	,	-22981	,	-20954	,	-89.423386	,	0
33,30	,	50608	,	-22976	,	-20947	,	-91.22166	,	0
33,30	,	50624	,	-22984	,	-20956	,	-87.042496	,	0
33,30	,	50640	,	-22986	,	-20953	,	-77.992065	,	4
33,30	,	50672	,	-22995	,	-20963	,	-65.8242	,	13
33,30	,	50688	,	-23007	,	-20970	,	-52.484886	,	25
33,31	,	50720	,	-23011	,	-20980	,	-39.750988	,	38
33,31	,	50736	,	-23009	,	-20948	,	-28.867414	,	50
33,31	,	50752	,	-23015	,	-20975	,	-20.368902	,	60
33,31	,	50784	,	-23011	,	-20970	,	-14.246126	,	68
33,31	,	50800	,	-23006	,	-20977	,	-10.141479	,	74
33,31	,	50816	,	-22981	,	-20977	,	-7.3692017	,	78
33,31	,	50848	,	-22966	,	-20969	,	-4.958109	,	76
33,31	,	50864	,	-22973	,	-20967	,	-2.075129	,	69
33,31	,	50896	,	-22952	,	-20963	,	1.5338774	,	59
33,31	,	50912	,	-22943	,	-20954	,	5.7487516	,	49
33,31	,	50928	,	-22920	,	-20946	,	10.458281	,	41
33,31	,	50960	,	-22919	,	-20964	,	15.547384	,	35
33,31	,	50976	,	-22902	,	-20936	,	20.743486	,	32
33,31	,	50992	,	-22886	,	-20938	,	25.7028	,	31
33,31	,	51024	,	-22884	,	-20940	,	30.16065	,	31
33,31	,	51040	,	-22883	,	-20943	,	33.80436	,	33
33,31	,	51056	,	-22890	,	-20949	,	36.161743	,	34
33,31	,	51088	,	-22892	,	-20956	,	36.748188	,	34
33,31	,	51104	,	-22893	,	-20953	,	35.309093	,	31
33,31	,	51136	,	-22888	,	-20959	,	31.996817	,	27
33,31	,	51152	,	-22894	,	-20967	,	27.317118	,	23
33,31	,	51168	,	-22899	,	-20973	,	21.859385	,	18
33,31	,	51199	,	-22902	,	-21002	,	16.099524	,	13
33,31	,	51216	,	-22910	,	-20982	,	10.385521	,	9
33,31	,	51232	,	-22926	,	-21012	,	4.8980064	,	5
33,31	,	51263	,	-22936	,	-21026	,	-0.38731813	,	2
33,31	,	51280	,	-22949	,	-21026	,	-5.570423	,	0
33,31	,	51312	,	-22959	,	-21042	,	-10.677287	,	0
33,31	,	51328	,	-22974	,	-21057	,	-15.644855	,	0
33,31	,	51344	,	-22986	,	-21064	,	-20.380226	,	0
33,31	,	51376	,	-23003	,	-21065	,	-24.811594	,	0
33,31	,	51392	,	-23000	,	-21078	,	-28.824718	,	0
33,31	,	51408	,	-22999	,	-21086	,	-32.093273	,	0
33,31	,	51440	,	-23022	,	-21108	,	-34.222507	,	0
33,31	,	51456	,	-23031	,	-21093	,	-35.184746	,	0
33,31	,	51472	,	-23047	,	-21119	,	-35.35036	,	0
33,31	,	51504	,	-23058	,	-21125	,	-35.164055	,	0
33,31	,	51520	,	-23069	,	-21133	,	-34.956978	,	0
33,31	,	51551	,	-23075	,	-21136	,	-34.876717	,	0
33,31	,	51567	,	-23079	,	-21139	,	-34.853188	,	0
33,31	,	51583	,	-23094	,	-21138	,	-34.70624	,	0
33,31	,	51615	,	-23098	,	-21148	,	-34.336044	,	0
33,31	,	51632	,	-23100	,	-21144	,	-33.70684	,	0
33,31	,	51648	,	-23107	,	-21153	,	-32.734467	,	0
33,31	,	51680	,	-23099	,	-21173	,	-31.296501	,	0
33,31	,	51695	,	-23094	,	-21142	,	-29.211554	,	1
33,32	,	51727	,	-23098	,	-21165	,	-26.309391	,	3
33,32	,	51743	,	-23077	,	-21159	,	-22.552135	,	5
33,32	,	51759	,	-23067	,	-21164	,	-17.90871	,	8
33,32	,	51792	,	-23060	,	-21160	,	-12.3481045	,	12
33,32	,	51807	,	-23061	,	-21155	,	-6.103175	,	17
33,32	,	51823	,	-23054	,	-21152	,	0.28510857	,	23
33,32	,	51856	,	-23045	,	-21148	,	6.2425222	,	29
33,32	,	51871	,	-23032	,	-21147	,	11.432417	,	34
33,32	,	51903	,	-23023	,	-21151	,	15.79563	,	38
33,32	,	51919	,	-23025	,	-21157	,	19.354122	,	40
33,32	,	51935	,	-23017	,	-21141	,	22.028164	,	41
33,32	,	51967	,	-23015	,	-21150	,	23.709385	,	40
33,32	,	51983	,	-23010	,	-21142	,	24.394953	,	37
33,32	,	51999	,	-23020	,	-21140	,	24.122105	,	32
33,32	,	52031	,	-23007	,	-21137	,	22.920057	,	26
33,32	,	52047	,	-23013	,	-21137	,	20.934208	,	20
33,32	,	52064	,	-22998	,	-21128	,	18.473148	,	15
33,32	,	52095	,	-23000	,	-21129	,	15.932251	,	10
33,32	,	52111	,	-22998	,	-21120	,	13.650108	,	6
33,32	,	52143	,	-22991	,	-21119	,	11.797378	,	3
33,32	,	52159	,	-23008	,	-21130	,	10.360302	,	1
33,32	,	52175	,	-23005	,	-21119	,	9.102547	,	0
33,32	,	52207	,	-23010	,	-21122	,	7.714417	,	0
33,32	,	52223	,	-23001	,	-21111	,	6.0934267	,	0
33,32	,	52239	,	-23004	,	-21111	,	4.3857403	,	0
33,32	,	52271	,	-23006	,	-21101	,	2.8021204	,	0
33,32	,	52287	,	-23005	,	-21102	,	1.4603887	,	0
33,32	,	52319	,	-23006	,	-21101	,	0.39911842	,	0
33,32	,	52335	,	-23001	,	-21096	,	-0.35463703	,	0
33,32	,	52351	,	-22998	,	-21089	,	-0.7481802	,	0
33,32	,	52383	,	-23013	,	-21083	,	-0.7977887	,	0
33,32	,	52399	,	-23020	,	-21095	,	-0.7665771	,	0
33,32	,	52415	,	-23022	,	-21085	,	-1.0508118	,	0
33,32	,	52447	,	-23022	,	-21088	,	-1.8498198	,	0
33,32	,	52463	,	-23038	,	-21086	,	-3.134421	,	0
33,32	,	52479	,	-23035	,	-21093	,	-4.840032	,	0
33,32	,	52511	,	-23045	,	-21102	,	-6.862529	,	0
33,32	,	52527	,	-23046	,	-21108	,	-9.0099945	,	0
33,32	,	52559	,	-23053	,	-21100	,	-11.078629	,	0
33,32	,	52575	,	-23055	,	-21093	,	-12.894389	,	0
33,32	,	52591	,	-23030	,	-21088	,	-14.184442	,	0
33,32	,	52623	,	-23035	,	-21095	,	-14.481028	,	0
33,32	,	52639	,	-23013	,	-21090	,	-13.360249	,	0
33,32	,	52655	,	-23008	,	-21078	,	-10.644291	,	1
33,32	,	52687	,	-22993	,	-21083	,	-6.392742	,	3
33,32	,	52703	,	-23001	,	-21085	,	-0.9858804	,	7
33,33	,	52735	,	-22991	,	-21077	,	4.8559613	,	12
33,33	,	52751	,	-22992	,	-21079	,	10.328278	,	17
33,33	,	52767	,	-22991	,	-21073	,	14.797858	,	22
33,33	,	52799	,	-23000	,	-21081	,	17.812017	,	26
33,33	,	52815	,	-22992	,	-21080	,	19.111095	,	29
33,33	,	52831	,	-22998	,	-21083	,	18.742283	,	30
33,33	,	52863	,	-22990	,	-21078	,	17.04215	,	29
33,33	,	52879	,	-22992	,	-21080	,	14.501522	,	27
33,33	,	52895	,	-22991	,	-21069	,	11.612355	,	23
33,33	,	52927	,	-22994	,	-21077	,	8.744427	,	18
33,33	,	52943	,	-22987	,	-21078	,	6.1522555	,	13
33,33	,	52975	,	-22995	,	-21070	,	4.008344	,	8
33,33	,	52991	,	-22994	,	-21071	,	2.3464684	,	4
33,33	,	53007	,	-23005	,	-21080	,	1.0346344	,	1
33,33	,	53039	,	-23011	,	-21082	,	-0.18369865	,	0
33,33	,	53055	,	-23021	,	-21083	,	-1.604321	,	0
33,33	,	53071	,	-23014	,	-21079	,	-3.380115	,	0
33,33	,	53103	,	-23025	,	-21087	,	-5.3990936	,	0
33,33	,	53119	,	-23027	,	-21088	,	-7.43597	,	0
33,33	,	53151	,	-23026	,	-21084	,	-9.304014	,	0
33,33	,	53167	,	-23040	,	-21088	,	-10.866319	,	0
33,33	,	53183	,	-23042	,	-21088	,	-12.111497	,	0
33,33	,	53215	,	-23039	,	-21091	,	-13.086545	,	0
33,33	,	53231	,	-23050	,	-21089	,	-13.758999	,	0
33,33	,	53247	,	-23065	,	-21091	,	-14.18573	,	0
33,33	,	53279	,	-23069	,	-21096	,	-14.626034	,	0
33,33	,	53295	,	-23088	,	-21112	,	-15.363961	,	0
33,33	,	53311	,	-23091	,	-21112	,	-16.579657	,	0
33,33	,	53343	,	-23110	,	-21125	,	-18.330296	,	0
33,33	,	53359	,	-23120	,	-21136	,	-20.58493	,	0
33,33	,	53391	,	-23152	,	-21138	,	-23.34847	,	0
33,33	,	53407	,	-23150	,	-21124	,	-26.659796	,	0
33,33	,	53423	,	-23141	,	-21121	,	-30.230774	,	0
33,33	,	53455	,	-23127	,	-21128	,	-33.186386	,	0
33,33	,	53471	,	-23122	,	-21122	,	-34.442535	,	0
33,33	,	53487	,	-23128	,	-21113	,	-33.35395	,	0
33,33	,	53519	,	-23123	,	-21120	,	-30.005339	,	1
33,33	,	53535	,	-23132	,	-21114	,	-25.032967	,	4
33,33	,	53567	,	-23118	,	-21121	,	-19.249454	,	8
33,33	,	53583	,	-23129	,	-21110	,	-13.35869	,	13
33,33	,	53599	,	-23131	,	-21117	,	-7.9528847	,	18
33,33	,	53631	,	-23123	,	-21104	,	-3.5124006	,	23
33,33	,	53647	,	-23142	,	-21100	,	-0.29617977	,	27
33,33	,	53663	,	-23147	,	-21102	,	1.5203102	,	30
33,33	,	53695	,	-23148	,	-21100	,	1.8145028	,	31
33,34	,	53711	,	-23166	,	-21108	,	0.6766391	,	30
33,34	,	53743	,	-23157	,	-21103	,	-1.6159258	,	27
33,34	,	53759	,	-23160	,	-21105	,	-4.5760117	,	23
33,34	,	53775	,	-23164	,	-21100	,	-7.5716004	,	18
33,34	,	53806	,	-23162	,	-21095	,	-10.095188	,	13
33,34	,	53823	,	-23156	,	-21086	,	-11.807469	,	8
33,34	,	53838	,	-23129	,	-21079	,	-12.339077	,	4
33,34	,	53870	,	-23111	,	-21082	,	-11.170494	,	1
33,34	,	53886	,	-23121	,	-21087	,	-7.97591	,	1
33,34	,	53902	,	-23112	,	-21097	,	-3.116828	,	4
33,34	,	53935	,	-23127	,	-21102	,	2.4569716	,	8
33,34	,	53951	,	-23136	,	-21122	,	7.587309	,	13
33,34	,	53982	,	-23139	,	-21113	,	11.221268	,	18
33,34	,	53999	,	-23122	,	-21126	,	12.863824	,	21
33,34	,	54015	,	-23137	,	-21120	,	12.726492	,	22
33,34	,	54047	,	-23147	,	-21126	,	11.224477	,	22
33,34	,	54063	,	-23163	,	-21135	,	8.536115	,	22
33,34	,	54078	,	-23167	,	-21130	,	4.7267575	,	21
33,34	,	54110	,	-23181	,	-21141	,	0.0016665459	,	18
33,34	,	54127	,	-23180	,	-21148	,	-5.246165	,	14
33,34	,	54159	,	-23189	,	-21158	,	-10.491381	,	9
33,34	,	54175	,	-23195	,	-21147	,	-15.222611	,	4
33,34	,	54191	,	-23196	,	-21149	,	-19.079313	,	1
33,34	,	54222	,	-23191	,	-21156	,	-21.784283	,	0
33,34	,	54238	,	-23198	,	-21143	,	-23.107655	,	0
33,34	,	54254	,	-23186	,	-21146	,	-22.97296	,	0
33,34	,	54286	,	-23184	,	-21145	,	-21.430748	,	0
33,34	,	54302	,	-23160	,	-21150	,	-18.516037	,	1
33,34	,	54319	,	-23159	,	-21135	,	-14.226506	,	3
33,34	,	54350	,	-23163	,	-21137	,	-8.78621	,	7
33,34	,	54366	,	-23129	,	-21126	,	-2.6980743	,	12
33,34	,	54398	,	-23116	,	-21129	,	3.7209897	,	18
33,34	,	54414	,	-23112	,	-21114	,	10.375914	,	24
33,34	,	54430	,	-23099	,	-21117	,	16.975586	,	30
33,34	,	54463	,	-23089	,	-21122	,	23.066553	,	36
33,34	,	54478	,	-23087	,	-21113	,	28.243671	,	42
33,34	,	54494	,	-23080	,	-21111	,	32.151756	,	46
33,34	,	54526	,	-23073	,	-21109	,	34.55685	,	47
33,34	,	54542	,	-23080	,	-21117	,	35.399334	,	45
33,34	,	54574	,	-23076	,	-21100	,	34.686356	,	40
33,34	,	54590	,	-23078	,	-21111	,	32.49965	,	34
33,34	,	54606	,	-23071	,	-21106	,	29.111448	,	28
33,34	,	54638	,	-23069	,	-21102	,	24.989706	,	22
33,34	,	54655	,	-23063	,	-21102	,	20.685173	,	16
33,34	,	54670	,	-23075	,	-21098	,	16.628178	,	10
33,34	,	54702	,	-23072	,	-21101	,	12.972505	,	5
33,35	,	54718	,	-23084	,	-21099	,	9.646769	,	2
33,35	,	54734	,	-23075	,	-21104	,	6.5461617	,	0
33,35	,	54766	,	-23091	,	-21107	,	3.6459575	,	0
33,35	,	54782	,	-23086	,	-21121	,	0.9466729	,	0
33,35	,	54814	,	-23088	,	-21098	,	-1.5132833	,	0
33,35	,	54830	,	-23095	,	-21100	,	-3.628173	,	0
33,35	,	54846	,	-23113	,	-21107	,	-5.435294	,	0
33,35	,	54878	,	-23120	,	-21106	,	-7.224902	,	0
33,35	,	54894	,	-23125	,	-21116	,	-9.282675	,	0
33,35	,	54910	,	-23137	,	-21112	,	-11.664175	,	0
33,35	,	54942	,	-23138	,	-21116	,	-14.241591	,	0
33,35	,	54958	,	-23151	,	-21121	,	-16.81242	,	0
33,35	,	54990	,	-23154	,	-21112	,	-19.185326	,	0
33,35	,	55006	,	-23158	,	-21123	,	-21.196804	,	0
33,35	,	55022	,	-23162	,	-21130	,	-22.66858	,	0
33,35	,	55054	,	-23172	,	-21112	,	-23.486992	,	0
33,35	,	55070	,	-23174	,	-21122	,	-23.689949	,	0
33,35	,	55086	,	-23194	,	-21126	,	-23.460796	,	0
33,35	,	55118	,	-23196	,	-21135	,	-23.100567	,	0
33,35	,	55134	,	-23196	,	-21135	,	-22.830046	,	0
33,35	,	55166	,	-23181	,	-21129	,	-22.513039	,	0
33,35	,	55182	,	-23169	,	-21120	,	-21.63839	,	0
33,35	,	55198	,	-23159	,	-21120	,	-19.599548	,	0
33,35	,	55230	,	-23149	,	-21116	,	-16.046228	,	2
33,35	,	55246	,	-23136	,	-21106	,	-11.007228	,	5
33,35	,	55262	,	-23131	,	-21116	,	-4.807436	,	10
33,35	,	55294	,	-23130	,	-21085	,	1.975235	,	16
33,35	,	55310	,	-23096	,	-21076	,	8.727572	,	22
33,35	,	55326	,	-23077	,	-21073	,	15.230684	,	28
33,35	,	55358	,	-23059	,	-21069	,	21.632557	,	34
33,35	,	55374	,	-23051	,	-21055	,	27.973564	,	40
33,35	,	55406	,	-23045	,	-21038	,	33.94242	,	46
33,35	,	55422	,	-23040	,	-21042	,	38.9808	,	49
33,35	,	55438	,	-23050	,	-21029	,	42.459347	,	51
33,35	,	55470	,	-23034	,	-21036	,	43.879627	,	49
33,35	,	55486	,	-23027	,	-21025	,	43.191452	,	44
33,35	,	55502	,	-23012	,	-21032	,	40.89142	,	38
33,35	,	55534	,	-23012	,	-20999	,	37.704437	,	32
33,35	,	55550	,	-23011	,	-21010	,	34.19352	,	26
33,35	,	55582	,	-23017	,	-21009	,	30.580414	,	20
33,35	,	55598	,	-23024	,	-21007	,	26.799974	,	14
33,35	,	55614	,	-23007	,	-21006	,	22.776608	,	9
33,35	,	55646	,	-23004	,	-21005	,	18.742672	,	4
33,35	,	55662	,	-23008	,	-20996	,	15.11418	,	1
33,35	,	55678	,	-23011	,	-20988	,	12.079673	,	0
33,36	,	55710	,	-23006	,	-20988	,	9.56902	,	0
33,36	,	55726	,	-23007	,	-20990	,	7.4975853	,	0
33,36	,	55742	,	-23013	,	-20998	,	5.8058977	,	0
33,36	,	55774	,	-23017	,	-20977	,	4.3571634	,	0
33,36	,	55790	,	-23013	,	-20987	,	2.9985948	,	0
33,36	,	55822	,	-23028	,	-20988	,	1.6409175	,	0
33,36	,	55838	,	-23039	,	-20983	,	0.12185621	,	0
33,36	,	55854	,	-23038	,	-20997	,	-1.7856771	,	0
33,36	,	55886	,	-23043	,	-20992	,	-4.1080384	,	0
33,36	,	55902	,	-23043	,	-20990	,	-6.613569	,	0
33,36	,	55918	,	-23067	,	-20993	,	-9.075563	,	0
33,36	,	55950	,	-23057	,	-20996	,	-11.439748	,	0
33,36	,	55966	,	-23063	,	-20995	,	-13.613191	,	0
33,36	,	55998	,	-23074	,	-21008	,	-15.395451	,	0
33,36	,	56014	,	-23074	,	-20982	,	-16.708824	,	0
33,36	,	56030	,	-23088	,	-20999	,	-17.61391	,	0
33,36	,	56062	,	-23089	,	-21005	,	-18.225971	,	0
33,36	,	56078	,	-23105	,	-21004	,	-18.700129	,	0
33,36	,	56094	,	-23113	,	-21010	,	-19.221052	,	0
33,36	,	56126	,	-23108	,	-21017	,	-19.894003	,	0
33,36	,	56142	,	-23104	,	-21020	,	-20.524708	,	0
33,36	,	56158	,	-23087	,	-21016	,	-20.604837	,	0
33,36	,	56190	,	-23087	,	-21014	,	-19.572708	,	0
33,36	,	56206	,	-23071	,	-21001	,	-17.099136	,	1
33,36	,	56238	,	-23069	,	-21028	,	-13.178309	,	3
33,36	,	56254	,	-23047	,	-20988	,	-8.02619	,	6
33,36	,	56270	,	-23035	,	-20988	,	-1.9179716	,	11
33,36	,	56301	,	-23026	,	-20988	,	4.8416696	,	17
33,36	,	56318	,	-23016	,	-20991	,	11.812601	,	23
33,36	,	56333	,	-23018	,	-20982	,	18.404339	,	29
33,36	,	56365	,	-23012	,	-20992	,	23.967506	,	35
33,36	,	56381	,	-23011	,	-20989	,	27.966743	,	40
33,36	,	56414	,	-23014	,	-20988	,	30.10419	,	42
33,36	,	56429	,	-23015	,	-20984	,	30.289528	,	42
33,36	,	56446	,	-23017	,	-20989	,	28.62469	,	39
33,36	,	56478	,	-23024	,	-21004	,	25.386776	,	34
33,36	,	56494	,	-23036	,	-20981	,	20.901863	,	28
33,36	,	56510	,	-23038	,	-21001	,	15.47469	,	22
33,36	,	56542	,	-23048	,	-20999	,	9.461496	,	16
33,36	,	56558	,	-23057	,	-21006	,	3.2579088	,	10
33,36	,	56589	,	-23072	,	-21009	,	-2.8334541	,	5
33,36	,	56606	,	-23079	,	-21027	,	-8.636127	,	2
33,36	,	56622	,	-23089	,	-21023	,	-14.003992	,	0
33,36	,	56653	,	-23121	,	-21034	,	-18.877493	,	0
33,36	,	56669	,	-23140	,	-21040	,	-23.485434	,	0
33,36	,	56686	,	-23131	,	-21049	,	-28.073809	,	0
33,37	,	56718	,	-23150	,	-21042	,	-32.430786	,	0
33,37	,	56734	,	-23158	,	-21026	,	-36.1045	,	0
33,37	,	56750	,	-23169	,	-21030	,	-38.827866	,	0
33,37	,	56782	,	-23170	,	-21032	,	-40.486366	,	0
33,37	,	56798	,	-23177	,	-21038	,	-40.988235	,	0
33,37	,	56829	,	-23192	,	-21033	,	-40.356163	,	0
33,37	,	56845	,	-23200	,	-21028	,	-38.857327	,	0
33,37	,	56861	,	-23210	,	-21019	,	-36.901505	,	1
33,37	,	56893	,	-23216	,	-21024	,	-34.84216	,	2
33,37	,	56909	,	-23211	,	-21020	,	-32.83632	,	4
33,37	,	56925	,	-23220	,	-21009	,	-30.8098	,	6
33,37	,	56957	,	-23215	,	-21010	,	-28.6127	,	8
33,37	,	56973	,	-23218	,	-20993	,	-26.13605	,	10
33,37	,	57005	,	-23223	,	-21007	,	-23.354408	,	12
33,37	,	57022	,	-23244	,	-21015	,	-20.48822	,	14
33,37	,	57037	,	-23245	,	-21018	,	-18.017273	,	16
33,37	,	57069	,	-23272	,	-21029	,	-16.442326	,	17
33,37	,	57085	,	-23264	,	-21032	,	-16.067772	,	17
33,37	,	57101	,	-23259	,	-21034	,	-16.742882	,	15
33,37	,	57134	,	-23265	,	-21038	,	-17.835064	,	13
33,37	,	57150	,	-23251	,	-21038	,	-18.629917	,	11
33,37	,	57165	,	-23248	,	-21043	,	-18.56316	,	9
33,37	,	57197	,	-23251	,	-21040	,	-17.309338	,	7
33,37	,	57213	,	-23237	,	-21031	,	-14.876493	,	6
33,37	,	57245	,	-23202	,	-21037	,	-11.291003	,	6
33,37	,	57261	,	-23199	,	-21022	,	-6.356777	,	7
33,37	,	57277	,	-23189	,	-21032	,	-0.07362795	,	10
33,37	,	57309	,	-23172	,	-21026	,	7.096997	,	16
33,37	,	57325	,	-23176	,	-21025	,	14.472294	,	23
33,37	,	57341	,	-23182	,	-21018	,	21.209963	,	30
33,37	,	57373	,	-23171	,	-21023	,	26.412624	,	36
33,37	,	57389	,	-23186	,	-21026	,	29.48034	,	41
33,37	,	57421	,	-23177	,	-21031	,	30.2047	,	43
33,37	,	57437	,	-23184	,	-21040	,	28.720755	,	41
33,37	,	57453	,	-23183	,	-21014	,	25.459673	,	38
33,37	,	57485	,	-23189	,	-21032	,	20.977037	,	34
33,37	,	57501	,	-23197	,	-21026	,	15.784788	,	28
33,37	,	57517	,	-23207	,	-21035	,	10.252248	,	21
33,37	,	57549	,	-23209	,	-21037	,	4.637928	,	14
33,37	,	57565	,	-23211	,	-21041	,	-0.76632977	,	8
33,37	,	57581	,	-23216	,	-21043	,	-5.6041474	,	3
33,37	,	57613	,	-23221	,	-21050	,	-9.588669	,	0
33,37	,	57629	,	-23231	,	-21049	,	-12.63091	,	0
33,37	,	57661	,	-23232	,	-21050	,	-14.824293	,	0
33,37	,	57677	,	-23251	,	-21045	,	-16.368484	,	0
33,37	,	57693	,	-23240	,	-21037	,	-17.476791	,	0
33,38	,	57725	,	-23239	,	-21034	,	-18.15654	,	0
33,38	,	57741	,	-23251	,	-21030	,	-18.239351	,	0
33,38	,	57757	,	-23244	,	-21035	,	-17.6973	,	0
33,38	,	57789	,	-23251	,	-21027	,	-16.641006	,	0
33,38	,	57805	,	-23257	,	-21025	,	-15.222179	,	1
33,38	,	57837	,	-23251	,	-21014	,	-13.644706	,	2
33,38	,	57853	,	-23255	,	-21005	,	-12.0452	,	3
33,38	,	57869	,	-23256	,	-21013	,	-10.47619	,	4
33,38	,	57901	,	-23253	,	-21007	,	-8.9778	,	5
33,38	,	57917	,	-23277	,	-21024	,	-7.656835	,	6
33,38	,	57933	,	-23269	,	-21007	,	-6.7764354	,	7
33,38	,	57965	,	-23281	,	-21021	,	-6.5617957	,	7
33,38	,	57981	,	-23276	,	-21022	,	-6.983161	,	7
33,38	,	57997	,	-23277	,	-21016	,	-7.790576	,	6
33,38	,	58029	,	-23277	,	-21001	,	-8.628739	,	5
33,38	,	58045	,	-23266	,	-20998	,	-9.145371	,	4
33,38	,	58077	,	-23250	,	-20995	,	-8.955908	,	3
33,38	,	58093	,	-23244	,	-20993	,	-7.647595	,	2
33,38	,	58109	,	-23250	,	-20990	,	-5.0878754	,	2
33,38	,	58141	,	-23241	,	-20978	,	-1.6225443	,	3
33,38	,	58157	,	-23236	,	-20983	,	2.2057886	,	6
33,38	,	58173	,	-23224	,	-20954	,	6.0034294	,	9
33,38	,	58205	,	-23233	,	-20965	,	9.508931	,	12
33,38	,	58221	,	-23223	,	-20964	,	12.438493	,	15
33,38	,	58253	,	-23212	,	-20954	,	14.604472	,	17
33,38	,	58269	,	-23212	,	-20952	,	16.073685	,	19
33,38	,	58285	,	-23206	,	-20940	,	16.999847	,	20
33,38	,	58317	,	-23208	,	-20944	,	17.44611	,	19
33,38	,	58333	,	-23203	,	-20945	,	17.406563	,	17
33,38	,	58349	,	-23205	,	-20942	,	16.876787	,	14
33,38	,	58381	,	-23194	,	-20935	,	15.929882	,	11
33,38	,	58397	,	-23202	,	-20942	,	14.715632	,	8
33,38	,	58429	,	-23206	,	-20943	,	13.298099	,	5
33,38	,	58445	,	-23210	,	-20939	,	11.583478	,	3
33,38	,	58461	,	-23209	,	-20942	,	9.498432	,	1
33,38	,	58493	,	-23217	,	-20938	,	7.1018	,	0
33,38	,	58509	,	-23213	,	-20943	,	4.530356	,	0
33,38	,	58525	,	-23213	,	-20940	,	1.9917674	,	0
33,38	,	58557	,	-23210	,	-20943	,	-0.24526858	,	0
33,38	,	58573	,	-23209	,	-20941	,	-1.9429531	,	0
33,38	,	58589	,	-23215	,	-20940	,	-2.994204	,	0
33,38	,	58621	,	-23231	,	-20937	,	-3.5545151	,	0
33,38	,	58637	,	-23217	,	-20953	,	-3.9681792	,	0
33,38	,	58668	,	-23234	,	-20941	,	-4.455535	,	0
33,38	,	58685	,	-23250	,	-20943	,	-5.169868	,	0
33,38	,	58701	,	-23254	,	-20949	,	-6.3906155	,	0
33,39	,	58733	,	-23261	,	-20948	,	-8.287894	,	0
33,39	,	58749	,	-23251	,	-20948	,	-10.661363	,	0
33,39	,	58764	,	-23234	,	-20949	,	-12.892501	,	0
33,39	,	58797	,	-23221	,	-20944	,	-14.088819	,	0
33,39	,	58813	,	-23217	,	-20940	,	-13.515278	,	0
33,39	,	58845	,	-23205	,	-20935	,	-10.953082	,	0
33,39	,	58861	,	-23190	,	-20927	,	-6.621489	,	2
33,39	,	58877	,	-23166	,	-20930	,	-0.8631234	,	6
33,39	,	58909	,	-23161	,	-20929	,	5.9715405	,	11
33,39	,	58925	,	-23115	,	-20939	,	13.537809	,	17
33,39	,	58940	,	-23108	,	-20939	,	21.621906	,	24
33,39	,	58973	,	-23100	,	-20938	,	29.922812	,	32
33,39	,	58988	,	-23095	,	-20937	,	37.72186	,	40
33,39	,	59004	,	-23086	,	-20940	,	44.123264	,	47
33,39	,	59036	,	-23086	,	-20942	,	48.448536	,	53
33,39	,	59052	,	-23078	,	-20949	,	50.35579	,	55
33,39	,	59084	,	-23075	,	-20962	,	49.862076	,	52
33,39	,	59100	,	-23052	,	-20962	,	47.39359	,	47
33,39	,	59116	,	-23055	,	-20955	,	43.70398	,	41
33,39	,	59148	,	-23055	,	-20968	,	39.48223	,	34
33,39	,	59165	,	-23075	,	-21008	,	34.96862	,	26
33,39	,	59181	,	-23092	,	-21010	,	29.92208	,	18
33,39	,	59213	,	-23115	,	-21015	,	23.858913	,	11
33,39	,	59228	,	-23139	,	-21031	,	16.35011	,	5
33,39	,	59260	,	-23140	,	-21035	,	7.330694	,	1
33,39	,	59276	,	-23154	,	-21038	,	-2.6679068	,	0
33,39	,	59292	,	-23171	,	-21034	,	-12.750432	,	0
33,39	,	59324	,	-23181	,	-21030	,	-22.127369	,	0
33,39	,	59341	,	-23187	,	-21033	,	-30.214014	,	0
33,39	,	59356	,	-23209	,	-21011	,	-36.609867	,	0
33,39	,	59388	,	-23214	,	-21026	,	-41.202908	,	0
33,39	,	59404	,	-23234	,	-21019	,	-44.13401	,	0
33,39	,	59436	,	-23236	,	-21026	,	-45.652443	,	0
33,39	,	59453	,	-23250	,	-21026	,	-46.0049	,	0
33,39	,	59469	,	-23247	,	-21027	,	-45.36043	,	0
33,39	,	59500	,	-23249	,	-21028	,	-43.76344	,	0
33,39	,	59516	,	-23254	,	-21026	,	-41.19545	,	1
33,39	,	59533	,	-23260	,	-21026	,	-37.76737	,	3
33,39	,	59564	,	-23258	,	-21024	,	-33.758785	,	6
33,39	,	59580	,	-23260	,	-21026	,	-29.457365	,	10
33,39	,	59596	,	-23276	,	-21011	,	-25.152538	,	14
33,39	,	59628	,	-23264	,	-21007	,	-21.176548	,	18
33,39	,	59644	,	-23243	,	-20998	,	-17.580616	,	21
33,39	,	59676	,	-23218	,	-20978	,	-13.856091	,	24
33,39	,	59692	,	-23199	,	-20977	,	-9.227872	,	27
33,40	,	59708	,	-23187	,	-20959	,	-3.194398	,	30
33,40	,	59740	,	-23179	,	-20949	,	4.149712	,	34
33,40	,	59756	,	-23149	,	-20932	,	12.274393	,	38
33,40	,	59772	,	-23121	,	-20918	,	20.72062	,	42
33,40	,	59804	,	-23098	,	-20910	,	29.299627	,	46
33,40	,	59820	,	-23085	,	-20897	,	37.811783	,	50
33,40	,	59852	,	-23068	,	-20876	,	45.81909	,	55
33,40	,	59868	,	-23044	,	-20873	,	52.803337	,	60
33,40	,	59884	,	-23040	,	-20863	,	58.38279	,	63
33,40	,	59916	,	-23021	,	-20853	,	62.286404	,	64
33,40	,	59932	,	-23013	,	-20841	,	64.3597	,	61
33,40	,	59948	,	-23012	,	-20845	,	64.584984	,	56
33,40	,	59980	,	-23004	,	-20842	,	62.98771	,	48
33,40	,	59996	,	-23007	,	-20843	,	59.653618	,	40
33,40	,	60012	,	-23021	,	-20853	,	54.699226	,	32
33,40	,	60044	,	-23012	,	-20844	,	48.244858	,	24
33,40	,	60060	,	-23033	,	-20867	,	40.546616	,	16
33,40	,	60092	,	-23023	,	-20841	,	32.012215	,	10
33,40	,	60108	,	-23040	,	-20861	,	23.149975	,	5
33,40	,	60124	,	-23059	,	-20855	,	14.387581	,	2
33,40	,	60156	,	-23054	,	-20856	,	5.940999	,	0
33,40	,	60172	,	-23059	,	-20858	,	-1.8918724	,	0
33,40	,	60188	,	-23082	,	-20870	,	-8.723568	,	0
33,40	,	60220	,	-23075	,	-20862	,	-14.3972435	,	0
33,40	,	60236	,	-23095	,	-20866	,	-18.918827	,	0
33,40	,	60268	,	-23097	,	-20863	,	-22.34628	,	0
33,40	,	60284	,	-23090	,	-20871	,	-24.724964	,	0
33,40	,	60300	,	-23105	,	-20882	,	-25.989723	,	0
33,40	,	60332	,	-23114	,	-20863	,	-26.20531	,	0
33,40	,	60348	,	-23126	,	-20876	,	-25.739922	,	0
33,40	,	60364	,	-23143	,	-20895	,	-25.102476	,	0
33,40	,	60396	,	-23150	,	-20887	,	-24.762827	,	0
33,40	,	60412	,	-23161	,	-20885	,	-24.986248	,	0
33,40	,	60428	,	-23170	,	-20888	,	-25.772915	,	0
33,40	,	60460	,	-23179	,	-20895	,	-26.95802	,	0
33,40	,	60476	,	-23182	,	-20896	,	-28.29015	,	0
33,40	,	60508	,	-23197	,	-20893	,	-29.498354	,	0
33,40	,	60524	,	-23202	,	-20896	,	-30.408163	,	0
33,40	,	60540	,	-23220	,	-20921	,	-31.000067	,	0
33,40	,	60572	,	-23203	,	-20901	,	-31.270432	,	0
33,40	,	60588	,	-23193	,	-20900	,	-30.926224	,	0
33,40	,	60604	,	-23169	,	-20900	,	-29.31964	,	0
33,40	,	60636	,	-23171	,	-20884	,	-25.848934	,	1
33,40	,	60652	,	-23150	,	-20889	,	-20.379822	,	4
33,40	,	60684	,	-23149	,	-20890	,	-13.264358	,	9
33,40	,	60700	,	-23143	,	-20891	,	-5.1871653	,	16
33,41	,	60716	,	-23140	,	-20874	,	2.9655066	,	24
33,41	,	60748	,	-23123	,	-20869	,	10.398125	,	32
33,41	,	60764	,	-23117	,	-20868	,	16.680655	,	39
33,41	,	60780	,	-23105	,	-20877	,	21.70892	,	45
33,41	,	60812	,	-23097	,	-20846	,	25.531376	,	50
33,41	,	60828	,	-23091	,	-20860	,	28.24255	,	52
33,41	,	60859	,	-23092	,	-20853	,	29.88844	,	51
33,41	,	60876	,	-23095	,	-20854	,	30.40041	,	47
33,41	,	60892	,	-23086	,	-20849	,	29.702496	,	40
33,41	,	60924	,	-23077	,	-20839	,	27.951057	,	32
33,41	,	60940	,	-23078	,	-20851	,	25.546719	,	24
33,41	,	60956	,	-23087	,	-20856	,	22.814411	,	17
33,41	,	60988	,	-23077	,	-20844	,	19.86473	,	11
33,41	,	61004	,	-23077	,	-20844	,	16.824123	,	6
33,41	,	61020	,	-23076	,	-20857	,	13.916636	,	3
33,41	,	61052	,	-23074	,	-20828	,	11.314984	,	1
33,41	,	61068	,	-23076	,	-20839	,	9.095902	,	0
33,41	,	61100	,	-23074	,	-20838	,	7.2630124	,	0
33,41	,	61115	,	-23078	,	-20828	,	5.760768	,	0
33,41	,	61132	,	-23080	,	-20828	,	4.4889593	,	0
33,41	,	61164	,	-23073	,	-20827	,	3.3600633	,	0
33,41	,	61180	,	-23083	,	-20827	,	2.354538	,	0
33,41	,	61195	,	-23093	,	-20825	,	1.3883102	,	0
33,41	,	61227	,	-23093	,	-20833	,	0.24704373	,	0
33,41	,	61243	,	-23094	,	-20826	,	-1.1903248	,	0
33,41	,	61276	,	-23104	,	-20838	,	-2.8587115	,	0
33,41	,	61291	,	-23103	,	-20812	,	-4.6509094	,	0
33,41	,	61307	,	-23105	,	-20821	,	-6.4404993	,	0
33,41	,	61339	,	-23111	,	-20827	,	-8.062944	,	0
33,41	,	61355	,	-23118	,	-20824	,	-9.428659	,	0
33,41	,	61371	,	-23113	,	-20832	,	-10.523056	,	0
33,41	,	61403	,	-23124	,	-20831	,	-11.308907	,	0
33,41	,	61420	,	-23129	,	-20823	,	-11.808916	,	0
33,41	,	61435	,	-23136	,	-20829	,	-12.170826	,	0
33,41	,	61467	,	-23139	,	-20818	,	-12.541956	,	0
33,41	,	61483	,	-23120	,	-20820	,	-12.865129	,	0
33,41	,	61515	,	-23105	,	-20823	,	-12.704433	,	0
33,41	,	61531	,	-23092	,	-20794	,	-11.405329	,	0
33,41	,	61547	,	-23062	,	-20793	,	-8.428104	,	1
33,41	,	61579	,	-23044	,	-20782	,	-3.4488435	,	3
33,41	,	61595	,	-23037	,	-20772	,	3.4820647	,	7
33,41	,	61611	,	-23021	,	-20771	,	11.76016	,	13
33,41	,	61643	,	-23009	,	-20773	,	20.464045	,	21
33,41	,	61659	,	-23000	,	-20765	,	28.706654	,	29
33,41	,	61691	,	-22996	,	-20765	,	35.732677	,	37
33,42	,	61707	,	-22986	,	-20755	,	40.959442	,	44
33,42	,	61723	,	-22993	,	-20750	,	44.024483	,	49
33,42	,	61755	,	-22974	,	-20764	,	44.82164	,	51
33,42	,	61771	,	-22990	,	-20754	,	43.530968	,	49
33,42	,	61787	,	-22981	,	-20745	,	40.47106	,	45
33,42	,	61819	,	-22981	,	-20743	,	36.021614	,	39
33,42	,	61835	,	-22977	,	-20736	,	30.712412	,	31
33,42	,	61867	,	-22985	,	-20743	,	25.105232	,	23
33,42	,	61883	,	-22989	,	-20741	,	19.577126	,	15
33,42	,	61899	,	-22989	,	-20744	,	14.314679	,	8
33,42	,	61931	,	-23000	,	-20746	,	9.418478	,	3
33,42	,	61947	,	-22996	,	-20755	,	4.946183	,	0
33,42	,	61963	,	-23008	,	-20755	,	0.94655704	,	0
33,42	,	61995	,	-23009	,	-20755	,	-2.5481544	,	0
33,42	,	62011	,	-23012	,	-20757	,	-5.5284367	,	0
33,42	,	62027	,	-23026	,	-20768	,	-8.008084	,	0
33,42	,	62059	,	-23028	,	-20773	,	-10.094143	,	0
33,42	,	62075	,	-23036	,	-20774	,	-11.928597	,	0
33,42	,	62107	,	-23029	,	-20764	,	-13.524869	,	0
33,42	,	62123	,	-23045	,	-20768	,	-14.771704	,	0
33,42	,	62139	,	-23064	,	-20779	,	-15.709391	,	0
33,42	,	62171	,	-23065	,	-20788	,	-16.643074	,	0
33,42	,	62187	,	-23071	,	-20784	,	-17.795692	,	0
33,42	,	62203	,	-23076	,	-20792	,	-19.098202	,	0
33,42	,	62235	,	-23085	,	-20796	,	-20.365261	,	0
33,42	,	62252	,	-23095	,	-20795	,	-21.477911	,	0
33,42	,	62283	,	-23105	,	-20798	,	-22.437492	,	0
33,42	,	62299	,	-23095	,	-20796	,	-23.230446	,	0
33,42	,	62315	,	-23082	,	-20796	,	-23.56392	,	0
33,42	,	62347	,	-23082	,	-20783	,	-22.913391	,	0
33,42	,	62363	,	-23082	,	-20784	,	-20.958267	,	0
33,42	,	62379	,	-23070	,	-20783	,	-17.771103	,	1
33,42	,	62411	,	-23069	,	-20777	,	-13.609995	,	4
33,42	,	62427	,	-23054	,	-20786	,	-8.767038	,	8
33,42	,	62443	,	-23052	,	-20788	,	-3.5379248	,	12
33,42	,	62475	,	-23052	,	-20776	,	1.7274809	,	17
33,42	,	62491	,	-23047	,	-20781	,	6.5781116	,	22
33,42	,	62523	,	-23036	,	-20789	,	10.645552	,	26
33,42	,	62539	,	-23035	,	-20771	,	13.810238	,	30
33,42	,	62555	,	-23034	,	-20773	,	16.072798	,	33
33,42	,	62587	,	-23034	,	-20786	,	17.40061	,	34
33,42	,	62603	,	-23033	,	-20773	,	17.762684	,	32
33,42	,	62619	,	-23034	,	-20777	,	17.19967	,	28
33,42	,	62651	,	-23034	,	-20774	,	15.828006	,	24
33,42	,	62667	,	-23033	,	-20769	,	13.833259	,	19
33,42	,	62699	,	-23033	,	-20782	,	11.45691	,	14
33,43	,	62715	,	-23042	,	-20770	,	8.913611	,	10
33,43	,	62731	,	-23044	,	-20776	,	6.301914	,	6
33,43	,	62763	,	-23046	,	-20765	,	3.6603408	,	3
33,43	,	62779	,	-23051	,	-20768	,	1.0646954	,	1
33,43	,	62795	,	-23056	,	-20767	,	-1.3973653	,	0
33,43	,	62827	,	-23050	,	-20763	,	-3.629305	,	0
33,43	,	62843	,	-23056	,	-20763	,	-5.47607	,	0
33,43	,	62859	,	-23063	,	-20779	,	-6.840679	,	0
33,43	,	62891	,	-23063	,	-20770	,	-7.793347	,	0
33,43	,	62907	,	-23085	,	-20775	,	-8.539284	,	0
33,43	,	62939	,	-23085	,	-20782	,	-9.393098	,	0
33,43	,	62955	,	-23089	,	-20761	,	-10.578735	,	0
33,43	,	62971	,	-23095	,	-20768	,	-12.039721	,	0
33,43	,	63003	,	-23105	,	-20785	,	-13.606173	,	0
33,43	,	63019	,	-23104	,	-20782	,	-15.148304	,	0
33,43	,	63035	,	-23119	,	-20787	,	-16.561018	,	0
33,43	,	63067	,	-23125	,	-20794	,	-17.817234	,	0
33,43	,	63083	,	-23125	,	-20794	,	-18.931936	,	0
33,43	,	63115	,	-23126	,	-20791	,	-19.795382	,	0
33,43	,	63131	,	-23130	,	-20799	,	-20.201748	,	0
33,43	,	63147	,	-23115	,	-20782	,	-19.94917	,	0
33,43	,	63179	,	-23110	,	-20793	,	-18.78995	,	0
33,43	,	63195	,	-23084	,	-20784	,	-16.404823	,	1
33,43	,	63211	,	-23079	,	-20791	,	-12.512122	,	3
33,43	,	63243	,	-23072	,	-20785	,	-7.1277275	,	6
33,43	,	63259	,	-23067	,	-20771	,	-0.7222862	,	11
33,43	,	63291	,	-23060	,	-20775	,	5.9751973	,	17
33,43	,	63307	,	-23053	,	-20773	,	12.268499	,	23
33,43	,	63323	,	-23049	,	-20774	,	17.636465	,	29
33,43	,	63355	,	-23045	,	-20771	,	21.7453	,	34
33,43	,	63371	,	-23053	,	-20770	,	24.370749	,	38
33,43	,	63387	,	-23045	,	-20776	,	25.365736	,	39
33,43	,	63419	,	-23053	,	-20781	,	24.75488	,	37
33,43	,	63435	,	-23059	,	-20764	,	22.709099	,	34
33,43	,	63451	,	-23053	,	-20761	,	19.468843	,	29
33,43	,	63483	,	-23063	,	-20767	,	15.403392	,	23
33,43	,	63499	,	-23062	,	-20760	,	10.945867	,	17
33,43	,	63530	,	-23053	,	-20769	,	6.534935	,	11
33,43	,	63546	,	-23069	,	-20758	,	2.596345	,	6
33,43	,	63563	,	-23065	,	-20762	,	-0.653275	,	2
33,43	,	63595	,	-23067	,	-20758	,	-3.198644	,	0
33,43	,	63611	,	-23080	,	-20769	,	-5.097088	,	0
33,43	,	63627	,	-23077	,	-20760	,	-6.514687	,	0
33,43	,	63658	,	-23089	,	-20766	,	-7.6576967	,	0
33,43	,	63674	,	-23086	,	-20762	,	-8.666954	,	0
33,44	,	63706	,	-23090	,	-20780	,	-9.574862	,	0
33,44	,	63722	,	-23108	,	-20775	,	-10.385957	,	0
33,44	,	63738	,	-23106	,	-20781	,	-11.226587	,	0
33,44	,	63770	,	-23119	,	-20779	,	-12.238157	,	0
33,44	,	63786	,	-23115	,	-20784	,	-13.417743	,	0
33,44	,	63803	,	-23120	,	-20783	,	-14.607572	,	0
33,44	,	63835	,	-23125	,	-20790	,	-15.586901	,	0
33,44	,	63851	,	-23135	,	-20778	,	-16.252874	,	0
33,44	,	63866	,	-23125	,	-20786	,	-16.607086	,	0
33,44	,	63898	,	-23127	,	-20798	,	-16.55	,	0
33,44	,	63914	,	-23113	,	-20781	,	-15.844086	,	0
33,44	,	63946	,	-23104	,	-20783	,	-14.216058	,	0
33,44	,	63963	,	-23091	,	-20778	,	-11.441563	,	1
33,44	,	63979	,	-23083	,	-20774	,	-7.4553614	,	3
33,44	,	64010	,	-23066	,	-20766	,	-2.3960285	,	6
33,44	,	64026	,	-23072	,	-20765	,	3.3905096	,	11
33,44	,	64042	,	-23054	,	-20769	,	9.353624	,	16
33,44	,	64074	,	-23053	,	-20760	,	14.924638	,	21
33,44	,	64090	,	-23039	,	-20763	,	19.710196	,	26
33,44	,	64122	,	-23027	,	-20760	,	23.54348	,	30
33,44	,	64138	,	-23035	,	-20768	,	26.390503	,	33
33,44	,	64154	,	-23029	,	-20757	,	28.133583	,	34
33,44	,	64186	,	-23028	,	-20752	,	28.616705	,	33
33,44	,	64202	,	-23028	,	-20759	,	27.841286	,	30
33,44	,	64218	,	-23033	,	-20758	,	25.925854	,	25
33,44	,	64250	,	-23026	,	-20764	,	23.05643	,	20
33,44	,	64266	,	-23036	,	-20767	,	19.514774	,	15
33,44	,	64282	,	-23034	,	-20760	,	15.597854	,	10
33,44	,	64314	,	-23037	,	-20771	,	11.566008	,	6
33,44	,	64330	,	-23027	,	-20766	,	7.724571	,	3
33,44	,	64362	,	-23047	,	-20779	,	4.356199	,	1
33,44	,	64378	,	-23045	,	-20781	,	1.4979072	,	0
33,44	,	64394	,	-23047	,	-20759	,	-0.97796965	,	0
33,44	,	64426	,	-23067	,	-20786	,	-3.1931453	,	0
33,44	,	64442	,	-23076	,	-20775	,	-5.3865204	,	0
33,44	,	64458	,	-23074	,	-20776	,	-7.809451	,	0
33,44	,	64490	,	-23086	,	-20779	,	-10.43751	,	0
33,44	,	64506	,	-23080	,	-20786	,	-13.021926	,	0
33,44	,	64538	,	-23080	,	-20776	,	-15.207659	,	0
33,44	,	64554	,	-23089	,	-20778	,	-16.655626	,	0
33,44	,	64570	,	-23094	,	-20778	,	-17.279758	,	0
33,44	,	64602	,	-23070	,	-20780	,	-17.12059	,	0
33,44	,	64618	,	-23073	,	-20783	,	-16.025398	,	0
33,44	,	64634	,	-23056	,	-20758	,	-13.774952	,	1
33,44	,	64666	,	-23012	,	-20766	,	-10.133881	,	3
33,44	,	64682	,	-22994	,	-20759	,	-4.656615	,	6
33,44	,	64698	,	-22952	,	-20745	,	3.0570898	,	11
33,45	,	64730	,	-22909	,	-20724	,	13.1105385	,	18
33,45	,	64746	,	-22857	,	-20705	,	25.454657	,	28
33,45	,	64778	,	-22821	,	-20697	,	39.86701	,	40
33,45	,	64794	,	-22787	,	-20685	,	55.69536	,	54
33,45	,	64810	,	-22749	,	-20664	,	71.835625	,	69
33,45	,	64842	,	-22726	,	-20655	,	87.019714	,	84
33,45	,	64858	,	-22700	,	-20652	,	100.04381	,	97
33,45	,	64874	,	-22684	,	-20644	,	109.89487	,	107
33,45	,	64906	,	-22651	,	-20652	,	115.96682	,	111
33,45	,	64922	,	-22656	,	-20656	,	118.1292	,	110
33,45	,	64954	,	-22663	,	-20675	,	116.36997	,	102
33,45	,	64970	,	-22667	,	-20690	,	110.57489	,	90
33,45	,	64986	,	-22665	,	-20698	,	100.88355	,	76
33,45	,	65018	,	-22667	,	-20709	,	88.00641	,	61
33,45	,	65034	,	-22663	,	-20716	,	73.11507	,	45
33,45	,	65050	,	-22675	,	-20739	,	57.514812	,	30
33,45	,	65082	,	-22675	,	-20725	,	42.322777	,	17
33,45	,	65098	,	-22673	,	-20751	,	28.39915	,	8
33,45	,	65130	,	-22678	,	-20734	,	16.413286	,	2
33,45	,	65146	,	-22659	,	-20744	,	6.8571224	,	0
33,45	,	65162	,	-22675	,	-20752	,	0.019237518	,	0
33,45	,	65194	,	-22672	,	-20763	,	-4.195221	,	0
33,45	,	65210	,	-22672	,	-20758	,	-6.2617645	,	0
33,45	,	65226	,	-22673	,	-20766	,	-6.740901	,	0
33,45	,	65258	,	-22679	,	-20758	,	-6.17726	,	0
33,45	,	65274	,	-22691	,	-20768	,	-5.169018	,	0
33,45	,	65290	,	-22686	,	-20763	,	-4.286031	,	1
33,45	,	65322	,	-22704	,	-20769	,	-3.9069452	,	1
33,45	,	65338	,	-22691	,	-20781	,	-4.1704845	,	1
33,45	,	65370	,	-22701	,	-20759	,	-4.9585958	,	1
33,45	,	65386	,	-22728	,	-20779	,	-6.1357193	,	1
33,45	,	65402	,	-22730	,	-20779	,	-7.856243	,	1
33,45	,	65434	,	-22738	,	-20777	,	-10.277366	,	1
33,45	,	65449	,	-22742	,	-20782	,	-13.216952	,	1
33,45	,	65465	,	-22744	,	-20783	,	-16.260178	,	1
33,45	,	65498	,	-22751	,	-20792	,	-18.959362	,	0
33,45	,	65513	,	-22759	,	-20789	,	-21.01178	,	0
33,45	,	65546	,	-22768	,	-20799	,	-22.361818	,	0
33,45	,	65561	,	-22773	,	-20804	,	-23.125404	,	0
33,45	,	65577	,	-22774	,	-20824	,	-23.419086	,	0
33,45	,	65610	,	-22797	,	-20797	,	-23.357367	,	0
33,45	,	65626	,	-22817	,	-20821	,	-23.279755	,	0
33,45	,	65642	,	-22814	,	-20835	,	-23.645855	,	0
33,45	,	65674	,	-22803	,	-20826	,	-24.47213	,	0
33,45	,	65690	,	-22800	,	-20826	,	-25.156364	,	0
33,46	,	65706	,	-22785	,	-20826	,	-24.909836	,	0
33,46	,	65737	,	-22766	,	-20833	,	-23.086279	,	0
33,46	,	65753	,	-22750	,	-20824	,	-19.245123	,	1
33,46	,	65786	,	-22743	,	-20824	,	-13.312684	,	4
33,46	,	65802	,	-22735	,	-20828	,	-5.7418375	,	9
33,46	,	65818	,	-22727	,	-20841	,	2.6296988	,	16
33,46	,	65850	,	-22718	,	-20818	,	10.899419	,	24
33,46	,	65866	,	-22700	,	-20837	,	18.372875	,	32
33,46	,	65882	,	-22704	,	-20825	,	24.636251	,	39
33,46	,	65913	,	-22703	,	-20833	,	29.36121	,	45
33,46	,	65930	,	-22705	,	-20845	,	32.196167	,	49
33,46	,	65961	,	-22724	,	-20846	,	32.83632	,	50
33,46	,	65977	,	-22719	,	-20849	,	31.109802	,	47
33,46	,	65993	,	-22727	,	-20854	,	27.184616	,	42
33,46	,	66026	,	-22745	,	-20859	,	21.540598	,	35
33,46	,	66041	,	-22740	,	-20857	,	14.717662	,	27
33,46	,	66057	,	-22732	,	-20882	,	7.4357643	,	19
33,46	,	66089	,	-22751	,	-20856	,	0.5857744	,	12
33,46	,	66105	,	-22745	,	-20874	,	-5.212744	,	6
33,46	,	66137	,	-22758	,	-20882	,	-9.734081	,	2
33,46	,	66154	,	-22765	,	-20880	,	-13.012573	,	0
33,46	,	66169	,	-22762	,	-20888	,	-15.234478	,	0
33,46	,	66201	,	-22780	,	-20897	,	-16.603386	,	0
33,46	,	66217	,	-22787	,	-20903	,	-17.402128	,	0
33,46	,	66233	,	-22792	,	-20928	,	-17.982948	,	0
33,46	,	66265	,	-22804	,	-20916	,	-18.581095	,	0
33,46	,	66281	,	-22813	,	-20914	,	-19.323784	,	0
33,46	,	66298	,	-22832	,	-20940	,	-20.340528	,	0
33,46	,	66329	,	-22865	,	-20926	,	-21.890858	,	0
33,46	,	66345	,	-22889	,	-20946	,	-24.432442	,	0
33,46	,	66377	,	-22900	,	-20949	,	-28.309605	,	0
33,46	,	66393	,	-22919	,	-20952	,	-33.36789	,	0
33,46	,	66409	,	-22936	,	-20962	,	-39.053806	,	0
33,46	,	66441	,	-22944	,	-20961	,	-44.70209	,	0
33,46	,	66457	,	-22945	,	-20968	,	-49.583244	,	0
33,46	,	66473	,	-22972	,	-20981	,	-53.051495	,	0
33,46	,	66505	,	-22993	,	-20989	,	-54.950943	,	0
33,46	,	66521	,	-23000	,	-20993	,	-55.623306	,	0
33,46	,	66553	,	-23006	,	-21007	,	-55.400574	,	0
33,46	,	66569	,	-23010	,	-20998	,	-54.331474	,	0
33,46	,	66585	,	-23016	,	-21014	,	-52.335976	,	1
33,46	,	66617	,	-23002	,	-20999	,	-49.313263	,	2
33,46	,	66633	,	-22993	,	-21002	,	-45.06269	,	5
33,46	,	66649	,	-22980	,	-20999	,	-39.34348	,	9
33,46	,	66681	,	-22980	,	-21006	,	-32.142944	,	14
33,46	,	66697	,	-22980	,	-21001	,	-23.876305	,	21
33,47	,	66713	,	-22976	,	-20998	,	-15.301054	,	29
33,47	,	66745	,	-22973	,	-20996	,	-7.206003	,	37
33,47	,	66761	,	-22968	,	-20993	,	-0.17212963	,	45
33,47	,	66793	,	-22966	,	-21001	,	5.481031	,	51
33,47	,	66809	,	-22979	,	-20986	,	9.580124	,	55
33,47	,	66825	,	-22989	,	-21005	,	11.905846	,	56
33,47	,	66857	,	-22989	,	-21006	,	12.26268	,	54
33,47	,	66873	,	-22993	,	-21020	,	10.7663	,	49
33,47	,	66889	,	-23005	,	-21018	,	7.8324866	,	42
33,47	,	66921	,	-23002	,	-21029	,	3.9506612	,	34
33,47	,	66937	,	-23019	,	-21040	,	-0.4036379	,	26
33,47	,	66969	,	-23038	,	-21056	,	-4.929414	,	18
33,47	,	66985	,	-23059	,	-21072	,	-9.659429	,	11
33,47	,	67001	,	-23095	,	-21092	,	-14.879883	,	6
33,47	,	67033	,	-23115	,	-21107	,	-20.948448	,	2
33,47	,	67049	,	-23135	,	-21120	,	-27.997484	,	0
33,47	,	67065	,	-23190	,	-21163	,	-35.90373	,	0
33,47	,	67097	,	-23204	,	-21169	,	-44.56865	,	0
33,47	,	67113	,	-23232	,	-21191	,	-53.747124	,	0
33,47	,	67129	,	-23252	,	-21197	,	-62.807743	,	0
33,47	,	67161	,	-23270	,	-21200	,	-70.96414	,	0
33,47	,	67177	,	-23292	,	-21214	,	-77.53426	,	0
33,47	,	67209	,	-23322	,	-21222	,	-82.14439	,	0
33,47	,	67225	,	-23333	,	-21237	,	-84.801605	,	0
33,47	,	67241	,	-23351	,	-21251	,	-85.65518	,	0
33,47	,	67273	,	-23360	,	-21270	,	-84.81488	,	0
33,47	,	67289	,	-23382	,	-21264	,	-82.44018	,	0
33,47	,	67305	,	-23416	,	-21285	,	-78.96341	,	2
33,47	,	67337	,	-23435	,	-21300	,	-75.15083	,	5
33,47	,	67353	,	-23454	,	-21303	,	-71.74788	,	8
33,47	,	67385	,	-23452	,	-21311	,	-69.02544	,	11
33,47	,	67401	,	-23466	,	-21311	,	-66.7002	,	13
33,47	,	67417	,	-23493	,	-21322	,	-64.375374	,	15
33,47	,	67449	,	-23487	,	-21321	,	-61.913708	,	17
33,47	,	67465	,	-23508	,	-21327	,	-59.26462	,	19
33,47	,	67481	,	-23515	,	-21324	,	-56.38176	,	21
33,47	,	67513	,	-23529	,	-21325	,	-53.346706	,	21
33,47	,	67529	,	-23522	,	-21326	,	-50.230515	,	21
33,47	,	67545	,	-23507	,	-21320	,	-46.817192	,	21
33,47	,	67577	,	-23519	,	-21308	,	-42.669746	,	21
33,47	,	67592	,	-23502	,	-21305	,	-37.54323	,	23
33,47	,	67625	,	-23518	,	-21311	,	-31.560562	,	26
33,47	,	67641	,	-23515	,	-21306	,	-25.161137	,	29
33,47	,	67657	,	-23511	,	-21302	,	-18.920593	,	33
33,47	,	67689	,	-23500	,	-21299	,	-13.198116	,	37
33,48	,	67705	,	-23493	,	-21292	,	-8.023514	,	40
33,48	,	67721	,	-23474	,	-21286	,	-3.217249	,	42
33,48	,	67753	,	-23463	,	-21277	,	1.5034904	,	43
33,48	,	67769	,	-23465	,	-21275	,	6.302368	,	44
33,48	,	67800	,	-23475	,	-21276	,	10.921289	,	44
33,48	,	67817	,	-23484	,	-21272	,	14.671797	,	43
33,48	,	67833	,	-23487	,	-21269	,	16.816053	,	41
33,48	,	67864	,	-23484	,	-21261	,	17.006393	,	37
33,48	,	67881	,	-23501	,	-21265	,	15.35727	,	31
33,48	,	67896	,	-23506	,	-21267	,	12.159122	,	26
33,48	,	67928	,	-23506	,	-21272	,	7.7821255	,	21
33,48	,	67945	,	-23514	,	-21279	,	2.7681856	,	17
33,48	,	67961	,	-23510	,	-21282	,	-2.261314	,	13
33,48	,	67993	,	-23521	,	-21271	,	-6.7691536	,	9
33,48	,	68009	,	-23521	,	-21280	,	-10.421659	,	5
33,48	,	68041	,	-23533	,	-21271	,	-13.135107	,	2
33,48	,	68056	,	-23542	,	-21287	,	-15.051197	,	0
33,48	,	68073	,	-23559	,	-21293	,	-16.502756	,	0
33,48	,	68105	,	-23559	,	-21290	,	-17.855297	,	0
33,48	,	68121	,	-23561	,	-21291	,	-19.236835	,	0
33,48	,	68136	,	-23575	,	-21293	,	-20.521498	,	0
33,48	,	68168	,	-23591	,	-21294	,	-21.652279	,	0
33,48	,	68185	,	-23595	,	-21293	,	-22.763245	,	0
33,48	,	68217	,	-23604	,	-21292	,	-23.94553	,	0
33,48	,	68233	,	-23601	,	-21305	,	-25.083836	,	0
33,48	,	68249	,	-23614	,	-21293	,	-25.941132	,	0
33,48	,	68280	,	-23611	,	-21305	,	-26.328781	,	0
33,48	,	68296	,	-23627	,	-21300	,	-26.190243	,	0
33,48	,	68313	,	-23629	,	-21301	,	-25.623024	,	0
33,48	,	68345	,	-23623	,	-21282	,	-24.746994	,	0
33,48	,	68361	,	-23619	,	-21272	,	-23.473818	,	0
33,48	,	68392	,	-23595	,	-21269	,	-21.47118	,	1
33,48	,	68408	,	-23584	,	-21261	,	-18.285208	,	3
33,48	,	68425	,	-23575	,	-21250	,	-13.613154	,	6
33,48	,	68456	,	-23557	,	-21237	,	-7.528672	,	10
33,48	,	68473	,	-23543	,	-21224	,	-0.36108208	,	16
33,48	,	68488	,	-23531	,	-21221	,	7.458549	,	23
33,48	,	68520	,	-23511	,	-21214	,	15.443008	,	30
33,48	,	68536	,	-23500	,	-21215	,	23.140617	,	37
33,48	,	68552	,	-23509	,	-21217	,	30.050638	,	44
33,48	,	68585	,	-23476	,	-21203	,	35.609318	,	49
33,48	,	68601	,	-23470	,	-21198	,	39.584526	,	52
33,48	,	68632	,	-23470	,	-21205	,	42.096046	,	52
33,48	,	68649	,	-23479	,	-21196	,	43.12069	,	50
33,48	,	68664	,	-23465	,	-21191	,	42.461994	,	45
33,48	,	68697	,	-23467	,	-21189	,	40.160233	,	38
33,49	,	68713	,	-23460	,	-21177	,	36.588707	,	31
33,49	,	68728	,	-23492	,	-21194	,	32.095272	,	24
33,49	,	68761	,	-23486	,	-21194	,	26.726997	,	17
33,49	,	68776	,	-23486	,	-21192	,	20.553171	,	11
33,49	,	68808	,	-23508	,	-21198	,	13.926907	,	6
33,49	,	68825	,	-23484	,	-21195	,	7.2958937	,	3
33,49	,	68840	,	-23499	,	-21193	,	1.2032213	,	1
33,49	,	68872	,	-23507	,	-21195	,	-3.8677683	,	0
33,49	,	68888	,	-23507	,	-21199	,	-7.8001356	,	0
33,49	,	68904	,	-23513	,	-21200	,	-10.681267	,	0
33,49	,	68936	,	-23500	,	-21202	,	-12.5458355	,	0
33,49	,	68952	,	-23518	,	-21196	,	-13.38941	,	0
33,49	,	68968	,	-23527	,	-21199	,	-13.419241	,	0
33,49	,	69000	,	-23520	,	-21204	,	-13.053289	,	0
33,49	,	69016	,	-23520	,	-21203	,	-12.52061	,	0
33,49	,	69048	,	-23517	,	-21200	,	-11.764256	,	0
33,49	,	69064	,	-23548	,	-21201	,	-10.827208	,	0
33,49	,	69080	,	-23539	,	-21198	,	-10.083061	,	0
33,49	,	69112	,	-23536	,	-21203	,	-9.823889	,	0
33,49	,	69128	,	-23562	,	-21205	,	-10.015423	,	0
33,49	,	69144	,	-23540	,	-21207	,	-10.575319	,	0
33,49	,	69176	,	-23552	,	-21212	,	-11.315561	,	0
33,49	,	69192	,	-23564	,	-21203	,	-11.969375	,	0
33,49	,	69224	,	-23558	,	-21219	,	-12.472661	,	0
33,49	,	69240	,	-23565	,	-21198	,	-12.823002	,	0
33,49	,	69256	,	-23545	,	-21193	,	-12.861412	,	0
33,49	,	69288	,	-23536	,	-21201	,	-12.22919	,	0
33,49	,	69304	,	-23516	,	-21188	,	-10.454826	,	0
33,49	,	69320	,	-23510	,	-21193	,	-7.208754	,	1
33,49	,	69352	,	-23508	,	-21183	,	-2.5631886	,	4
33,49	,	69368	,	-23493	,	-21183	,	2.9915295	,	8
33,49	,	69400	,	-23495	,	-21177	,	8.8122635	,	13
33,49	,	69416	,	-23491	,	-21189	,	14.256911	,	18
33,49	,	69432	,	-23474	,	-21164	,	18.800549	,	23
33,49	,	69464	,	-23476	,	-21167	,	22.224457	,	27
33,49	,	69480	,	-23461	,	-21163	,	24.545778	,	30
33,49	,	69496	,	-23479	,	-21161	,	25.787216	,	32
33,49	,	69528	,	-23464	,	-21155	,	25.88292	,	32
33,49	,	69544	,	-23456	,	-21167	,	24.905178	,	29
33,49	,	69560	,	-23445	,	-21151	,	23.275032	,	25
33,49	,	69592	,	-23451	,	-21153	,	21.493164	,	20
33,49	,	69608	,	-23445	,	-21143	,	19.798697	,	15
33,49	,	69640	,	-23436	,	-21144	,	18.242952	,	10
33,49	,	69656	,	-23441	,	-21154	,	16.873787	,	6
33,49	,	69672	,	-23440	,	-21123	,	15.660516	,	3
33,50	,	69704	,	-23439	,	-21131	,	14.45438	,	1
33,50	,	69720	,	-23447	,	-21132	,	13.096163	,	0
33,50	,	69736	,	-23440	,	-21132	,	11.476122	,	0
33,50	,	69768	,	-23433	,	-21120	,	9.656506	,	0
33,50	,	69784	,	-23441	,	-21127	,	7.8662744	,	0
33,50	,	69816	,	-23431	,	-21126	,	6.2902856	,	0
33,50	,	69832	,	-23441	,	-21132	,	5.002789	,	0
33,50	,	69848	,	-23438	,	-21129	,	3.9732938	,	0
33,50	,	69880	,	-23444	,	-21129	,	3.0754502	,	0
33,50	,	69896	,	-23442	,	-21138	,	2.193483	,	0
33,50	,	69912	,	-23442	,	-21119	,	1.303929	,	0
33,50	,	69944	,	-23449	,	-21121	,	0.4353701	,	0
33,50	,	69960	,	-23457	,	-21122	,	-0.46498632	,	0
33,50	,	69976	,	-23456	,	-21116	,	-1.5295198	,	0
33,50	,	70008	,	-23462	,	-21115	,	-2.8076866	,	0
33,50	,	70024	,	-23449	,	-21115	,	-4.1637797	,	0
33,50	,	70055	,	-23442	,	-21103	,	-5.2442737	,	0
33,50	,	70072	,	-23425	,	-21099	,	-5.539117	,	0
33,50	,	70088	,	-23405	,	-21089	,	-4.524222	,	0
33,50	,	70120	,	-23390	,	-21083	,	-1.8089409	,	1
33,50	,	70136	,	-23370	,	-21090	,	2.7144775	,	3
33,50	,	70152	,	-23350	,	-21061	,	8.856776	,	7
33,50	,	70184	,	-23338	,	-21057	,	16.199594	,	13
33,50	,	70200	,	-23332	,	-21058	,	24.061157	,	20
33,50	,	70232	,	-23314	,	-21056	,	31.58737	,	27
33,50	,	70248	,	-23303	,	-21034	,	38.071392	,	34
33,50	,	70264	,	-23297	,	-21044	,	43.089718	,	40
33,50	,	70296	,	-23290	,	-21042	,	46.38404	,	45
33,50	,	70312	,	-23294	,	-21037	,	47.779984	,	47
33,50	,	70327	,	-23285	,	-21046	,	47.213127	,	46
33,50	,	70360	,	-23270	,	-21038	,	44.90474	,	42
33,50	,	70376	,	-23270	,	-21045	,	41.42118	,	36
33,50	,	70392	,	-23269	,	-21021	,	37.347923	,	29
33,50	,	70424	,	-23267	,	-21033	,	33.034492	,	22
33,50	,	70440	,	-23258	,	-21039	,	28.718157	,	15
33,50	,	70471	,	-23270	,	-21034	,	24.602268	,	9
33,50	,	70487	,	-23268	,	-21029	,	20.716446	,	4
33,50	,	70503	,	-23268	,	-21031	,	16.971167	,	1
33,50	,	70536	,	-23263	,	-21030	,	13.3934	,	0
33,50	,	70552	,	-23272	,	-21031	,	10.120343	,	0
33,50	,	70567	,	-23269	,	-21026	,	7.228613	,	0
33,50	,	70600	,	-23276	,	-21027	,	4.699858	,	0
33,50	,	70616	,	-23283	,	-21041	,	2.4412718	,	0
33,50	,	70648	,	-23277	,	-21027	,	0.34213352	,	0
33,50	,	70664	,	-23273	,	-21034	,	-1.5412717	,	0
33,50	,	70680	,	-23273	,	-21025	,	-2.9784908	,	0
33,51	,	70711	,	-23280	,	-21031	,	-3.825291	,	0
33,51	,	70727	,	-23274	,	-21026	,	-4.1404424	,	0
33,51	,	70744	,	-23289	,	-21023	,	-4.107296	,	0
33,51	,	70776	,	-23274	,	-21011	,	-3.932537	,	0
33,51	,	70792	,	-23275	,	-21013	,	-3.6735163	,	0
33,51	,	70823	,	-23270	,	-21027	,	-3.2156172	,	0
33,51	,	70840	,	-23275	,	-21015	,	-2.4865026	,	0
33,51	,	70856	,	-23278	,	-21033	,	-1.5862769	,	0
33,51	,	70887	,	-23276	,	-21002	,	-0.72196186	,	0
33,51	,	70903	,	-23282	,	-21005	,	-0.074478865	,	0
33,51	,	70919	,	-23274	,	-21017	,	0.27181548	,	0
33,51	,	70952	,	-23263	,	-21005	,	0.4238319	,	0
33,51	,	70968	,	-23248	,	-21002	,	0.756569	,	0
33,51	,	70984	,	-23244	,	-20991	,	1.7295287	,	0
33,51	,	71015	,	-23233	,	-20989	,	3.5871549	,	0
33,51	,	71031	,	-23198	,	-20986	,	6.4154143	,	1
33,51	,	71063	,	-23196	,	-20974	,	10.348183	,	3
33,51	,	71080	,	-23188	,	-20969	,	15.299875	,	6
33,51	,	71096	,	-23179	,	-20969	,	20.726038	,	10
33,51	,	71127	,	-23174	,	-20954	,	25.903006	,	15
33,51	,	71143	,	-23148	,	-20949	,	30.30717	,	20
33,51	,	71159	,	-23139	,	-20941	,	33.817524	,	24
33,51	,	71191	,	-23140	,	-20942	,	36.49977	,	27
33,51	,	71207	,	-23142	,	-20928	,	38.19868	,	29
33,51	,	71239	,	-23140	,	-20928	,	38.5726	,	29
33,51	,	71255	,	-23135	,	-20929	,	37.432983	,	27
33,51	,	71271	,	-23142	,	-20932	,	34.863876	,	24
33,51	,	71303	,	-23143	,	-20927	,	31.078564	,	20
33,51	,	71319	,	-23127	,	-20926	,	26.430826	,	15
33,51	,	71335	,	-23129	,	-20940	,	21.527365	,	10
33,51	,	71367	,	-23131	,	-20919	,	16.965511	,	6
33,51	,	71383	,	-23150	,	-20929	,	12.936489	,	3
33,51	,	71399	,	-23144	,	-20928	,	9.258134	,	1
33,51	,	71431	,	-23147	,	-20923	,	5.7737265	,	0
33,51	,	71447	,	-23146	,	-20926	,	2.5592337	,	0
33,51	,	71479	,	-23157	,	-20927	,	-0.25715733	,	0
33,51	,	71495	,	-23149	,	-20934	,	-2.6322315	,	0
33,51	,	71511	,	-23163	,	-20920	,	-4.554424	,	0
33,51	,	71543	,	-23148	,	-20936	,	-6.002784	,	0
33,51	,	71559	,	-23167	,	-20937	,	-6.9599476	,	0
33,51	,	71575	,	-23176	,	-20937	,	-7.570626	,	0
33,51	,	71607	,	-23176	,	-20920	,	-8.169816	,	0
33,51	,	71623	,	-23187	,	-20930	,	-8.999399	,	0
33,51	,	71655	,	-23190	,	-20944	,	-10.109207	,	0
33,51	,	71671	,	-23203	,	-20933	,	-11.482405	,	0
33,51	,	71687	,	-23206	,	-20943	,	-13.087765	,	0
33,52	,	71719	,	-23211	,	-20947	,	-14.831524	,	0
33,52	,	71735	,	-23229	,	-20947	,	-16.58877	,	0
33,52	,	71751	,	-23225	,	-20947	,	-18.3027	,	0
33,52	,	71783	,	-23239	,	-20941	,	-19.90869	,	0
33,52	,	71799	,	-23239	,	-20954	,	-21.282597	,	0
33,52	,	71815	,	-23247	,	-20956	,	-22.307903	,	0
33,52	,	71847	,	-23251	,	-20955	,	-22.906399	,	0
33,52	,	71863	,	-23266	,	-20958	,	-23.105225	,	0
33,52	,	71895	,	-23258	,	-20956	,	-23.014458	,	0
33,52	,	71911	,	-23267	,	-20961	,	-22.655579	,	0
33,52	,	71927	,	-23258	,	-20957	,	-21.924097	,	0
33,52	,	71959	,	-23251	,	-20957	,	-20.636421	,	0
33,52	,	71975	,	-23228	,	-20942	,	-18.478634	,	1
33,52	,	71991	,	-23223	,	-20935	,	-15.075015	,	3
33,52	,	72023	,	-23209	,	-20929	,	-10.264554	,	6
33,52	,	72039	,	-23186	,	-20921	,	-4.1781588	,	10
33,52	,	72071	,	-23180	,	-20912	,	2.913957	,	16
33,52	,	72087	,	-23161	,	-20915	,	10.601822	,	23
33,52	,	72103	,	-23136	,	-20892	,	18.41875	,	30
33,52	,	72135	,	-23127	,	-20886	,	26.025599	,	37
33,52	,	72151	,	-23114	,	-20889	,	33.093536	,	44
33,52	,	72167	,	-23114	,	-20884	,	39.1445	,	50
33,52	,	72199	,	-23096	,	-20873	,	43.683945	,	54
33,52	,	72215	,	-23091	,	-20859	,	46.46064	,	55
33,52	,	72247	,	-23090	,	-20866	,	47.472977	,	53
33,52	,	72263	,	-23082	,	-20855	,	46.804558	,	48
33,52	,	72279	,	-23073	,	-20850	,	44.674816	,	41
33,52	,	72311	,	-23070	,	-20837	,	41.492165	,	34
33,52	,	72327	,	-23056	,	-20832	,	37.74454	,	27
33,52	,	72343	,	-23054	,	-20817	,	33.918762	,	20
33,52	,	72375	,	-23049	,	-20824	,	30.382975	,	13
33,52	,	72391	,	-23059	,	-20819	,	27.22459	,	7
33,52	,	72407	,	-23053	,	-20796	,	24.269552	,	3
33,52	,	72439	,	-23050	,	-20809	,	21.345097	,	1
33,52	,	72455	,	-23039	,	-20804	,	18.509033	,	0
33,52	,	72487	,	-23039	,	-20807	,	15.994678	,	0
33,52	,	72503	,	-23047	,	-20803	,	13.934168	,	0
33,52	,	72519	,	-23051	,	-20796	,	12.166799	,	0
33,52	,	72551	,	-23049	,	-20785	,	10.407548	,	0
33,52	,	72567	,	-23058	,	-20802	,	8.48753	,	0
33,52	,	72582	,	-23054	,	-20796	,	6.3629837	,	0
33,52	,	72615	,	-23046	,	-20792	,	4.1552067	,	0
33,52	,	72631	,	-23049	,	-20797	,	2.167196	,	0
33,52	,	72663	,	-23066	,	-20798	,	0.5716882	,	0
33,52	,	72679	,	-23066	,	-20786	,	-0.812724	,	0
33,52	,	72695	,	-23058	,	-20787	,	-2.1992254	,	0
33,53	,	72726	,	-23065	,	-20799	,	-3.5161867	,	0
33,53	,	72742	,	-23074	,	-20802	,	-4.63065	,	0
33,53	,	72759	,	-23083	,	-20813	,	-5.631592	,	0
33,53	,	72791	,	-23088	,	-20793	,	-6.7435007	,	0
33,53	,	72807	,	-23083	,	-20802	,	-8.061556	,	0
33,53	,	72822	,	-23098	,	-20823	,	-9.472195	,	0
33,53	,	72855	,	-23097	,	-20823	,	-10.846951	,	0
33,53	,	72871	,	-23099	,	-20827	,	-12.103287	,	0
33,53	,	72902	,	-23083	,	-20816	,	-13.01865	,	0
33,53	,	72918	,	-23075	,	-20819	,	-13.157577	,	0
33,53	,	72934	,	-23049	,	-20806	,	-11.9923725	,	0
33,53	,	72967	,	-23036	,	-20799	,	-9.0683	,	1
33,53	,	72983	,	-23024	,	-20794	,	-4.2284713	,	3
33,53	,	72999	,	-23008	,	-20788	,	2.2391524	,	7
33,53	,	73031	,	-23009	,	-20778	,	9.679319	,	13
33,53	,	73047	,	-23004	,	-20785	,	17.184093	,	20
33,53	,	73078	,	-22976	,	-20769	,	23.903566	,	27
33,53	,	73094	,	-22976	,	-20769	,	29.429895	,	33
33,53	,	73110	,	-22973	,	-20766	,	33.624397	,	38
33,53	,	73142	,	-22955	,	-20758	,	36.360725	,	42
33,53	,	73159	,	-22956	,	-20754	,	37.66619	,	43
33,53	,	73175	,	-22950	,	-20753	,	37.704315	,	42
33,53	,	73207	,	-22935	,	-20758	,	36.67911	,	38
33,53	,	73222	,	-22943	,	-20765	,	34.86808	,	32
33,53	,	73238	,	-22938	,	-20766	,	32.478104	,	25
33,53	,	73270	,	-22935	,	-20749	,	29.606012	,	18
33,53	,	73286	,	-22944	,	-20748	,	26.349169	,	12
33,53	,	73318	,	-22945	,	-20743	,	22.750858	,	7
33,53	,	73334	,	-22956	,	-20754	,	18.786123	,	3
33,53	,	73351	,	-22957	,	-20754	,	14.4498625	,	1
33,53	,	73383	,	-22946	,	-20754	,	9.905116	,	0
33,53	,	73398	,	-22957	,	-20755	,	5.5474043	,	0
33,53	,	73414	,	-22973	,	-20750	,	1.6648383	,	0
33,53	,	73446	,	-22964	,	-20752	,	-1.7688422	,	0
33,53	,	73462	,	-22973	,	-20758	,	-4.7884436	,	0
33,53	,	73494	,	-22973	,	-20774	,	-7.3037376	,	0
33,53	,	73510	,	-22977	,	-20757	,	-9.243465	,	0
33,53	,	73527	,	-22987	,	-20765	,	-10.628567	,	0
33,53	,	73558	,	-22986	,	-20774	,	-11.582555	,	0
33,53	,	73574	,	-22991	,	-20770	,	-12.228605	,	0
33,53	,	73590	,	-23001	,	-20775	,	-12.646242	,	0
33,53	,	73622	,	-23012	,	-20789	,	-12.998096	,	0
33,53	,	73638	,	-23015	,	-20784	,	-13.511211	,	0
33,53	,	73655	,	-23026	,	-20780	,	-14.310453	,	0
33,53	,	73686	,	-23032	,	-20787	,	-15.396368	,	0
33,53	,	73702	,	-23033	,	-20788	,	-16.680687	,	0
33,54	,	73734	,	-23029	,	-20785	,	-17.918217	,	0
33,54	,	73750	,	-23026	,	-20779	,	-18.707438	,	0
33,54	,	73766	,	-23023	,	-20786	,	-18.653414	,	0
33,54	,	73798	,	-22994	,	-20778	,	-17.418907	,	0
33,54	,	73814	,	-22977	,	-20765	,	-14.59512	,	1
33,54	,	73830	,	-22975	,	-20763	,	-9.898306	,	3
33,54	,	73863	,	-22959	,	-20762	,	-3.5578823	,	7
33,54	,	73878	,	-22954	,	-20754	,	3.7673979	,	13
33,54	,	73910	,	-22942	,	-20756	,	11.313009	,	20
33,54	,	73926	,	-22930	,	-20748	,	18.409086	,	27
33,54	,	73942	,	-22919	,	-20750	,	24.600788	,	34
33,54	,	73974	,	-22906	,	-20752	,	29.655396	,	40
33,54	,	73990	,	-22913	,	-20738	,	33.428555	,	45
33,54	,	74006	,	-22909	,	-20739	,	35.701805	,	47
33,54	,	74038	,	-22911	,	-20741	,	36.24674	,	47
33,54	,	74054	,	-22911	,	-20741	,	35.01763	,	43
33,54	,	74086	,	-22908	,	-20734	,	32.211647	,	37
33,54	,	74102	,	-22905	,	-20733	,	28.249708	,	30
33,54	,	74118	,	-22914	,	-20742	,	23.639687	,	23
33,54	,	74150	,	-22911	,	-20743	,	18.782785	,	16
33,54	,	74166	,	-22917	,	-20740	,	13.957538	,	10
33,54	,	74182	,	-22913	,	-20739	,	9.405133	,	5
33,54	,	74214	,	-22918	,	-20755	,	5.352749	,	2
33,54	,	74230	,	-22932	,	-20735	,	1.8985586	,	0
33,54	,	74246	,	-22945	,	-20716	,	-1.1454978	,	0
33,54	,	74278	,	-22941	,	-20761	,	-4.0876203	,	0
33,54	,	74294	,	-22942	,	-20758	,	-6.9695067	,	0
33,54	,	74326	,	-22949	,	-20753	,	-9.555127	,	0
33,54	,	74342	,	-22957	,	-20757	,	-11.664982	,	0
33,54	,	74358	,	-22954	,	-20756	,	-13.277369	,	0
33,54	,	74390	,	-22965	,	-20763	,	-14.396599	,	0
33,54	,	74406	,	-22966	,	-20769	,	-15.056728	,	0
33,54	,	74422	,	-22975	,	-20767	,	-15.36935	,	0
33,54	,	74454	,	-22978	,	-20784	,	-15.475765	,	0
33,54	,	74470	,	-22987	,	-20764	,	-15.508656	,	0
33,54	,	74502	,	-23007	,	-20778	,	-15.661956	,	0
33,54	,	74518	,	-23013	,	-20778	,	-16.232264	,	0
33,54	,	74534	,	-23021	,	-20787	,	-17.409561	,	0
33,54	,	74566	,	-23031	,	-20785	,	-19.119698	,	0
33,54	,	74582	,	-23031	,	-20789	,	-21.114044	,	0
33,54	,	74598	,	-23046	,	-20794	,	-23.082668	,	0
33,54	,	74630	,	-23039	,	-20803	,	-24.728756	,	0
33,54	,	74646	,	-23052	,	-20786	,	-25.79448	,	0
33,54	,	74662	,	-23047	,	-20796	,	-26.10388	,	0
33,54	,	74694	,	-23037	,	-20801	,	-25.521788	,	0
33,55	,	74710	,	-23018	,	-20767	,	-23.781273	,	0
33,55	,	74742	,	-22994	,	-20786	,	-20.459215	,	1
33,55	,	74758	,	-22987	,	-20779	,	-15.220305	,	4
33,55	,	74774	,	-22977	,	-20780	,	-8.179712	,	9
33,55	,	74806	,	-22974	,	-20768	,	-0.0022773743	,	16
33,55	,	74822	,	-22973	,	-20774	,	8.3273535	,	24
33,55	,	74838	,	-22955	,	-20756	,	15.861518	,	32
33,55	,	74870	,	-22954	,	-20761	,	22.012968	,	39
33,55	,	74886	,	-22961	,	-20760	,	26.478508	,	45
33,55	,	74918	,	-22949	,	-20753	,	29.036457	,	49
33,55	,	74934	,	-22949	,	-20790	,	29.690853	,	50
33,55	,	74950	,	-22958	,	-20751	,	28.67984	,	47
33,55	,	74982	,	-22959	,	-20763	,	26.239273	,	42
33,55	,	74998	,	-22957	,	-20768	,	22.634342	,	35
33,55	,	75014	,	-22954	,	-20768	,	18.302345	,	27
33,55	,	75045	,	-22961	,	-20764	,	13.752997	,	19
33,55	,	75062	,	-22955	,	-20763	,	9.40394	,	12
33,55	,	75078	,	-22970	,	-20768	,	5.5175295	,	6
33,55	,	75110	,	-22963	,	-20780	,	2.1809406	,	2
33,55	,	75125	,	-22969	,	-20773	,	-0.5991888	,	0
33,55	,	75157	,	-22984	,	-20781	,	-2.8772795	,	0
33,55	,	75174	,	-22980	,	-20792	,	-4.844116	,	0
33,55	,	75190	,	-22980	,	-20768	,	-6.622891	,	0
33,55	,	75222	,	-23003	,	-20790	,	-8.210092	,	0
33,55	,	75237	,	-23006	,	-20788	,	-9.749379	,	0
33,55	,	75254	,	-23009	,	-20792	,	-11.439072	,	0
33,55	,	75286	,	-23021	,	-20791	,	-13.28163	,	0
33,55	,	75302	,	-23031	,	-20801	,	-15.209141	,	0
33,55	,	75334	,	-23037	,	-20794	,	-17.201153	,	0
33,55	,	75350	,	-23050	,	-20801	,	-19.218363	,	0
33,55	,	75366	,	-23051	,	-20802	,	-21.175274	,	0
33,55	,	75398	,	-23056	,	-20803	,	-22.906248	,	0
33,55	,	75414	,	-23068	,	-20828	,	-24.218458	,	0
33,55	,	75429	,	-23069	,	-20791	,	-25.032398	,	0
33,55	,	75461	,	-23083	,	-20810	,	-25.384193	,	0
33,55	,	75477	,	-23087	,	-20827	,	-25.384571	,	0
33,55	,	75493	,	-23103	,	-20825	,	-25.215496	,	0
33,55	,	75525	,	-23096	,	-20812	,	-25.02744	,	0
33,55	,	75542	,	-23101	,	-20829	,	-24.767838	,	0
33,55	,	75574	,	-23119	,	-20825	,	-24.302135	,	0
33,55	,	75590	,	-23102	,	-20837	,	-23.615953	,	0
33,55	,	75606	,	-23108	,	-20829	,	-22.620766	,	0
33,55	,	75637	,	-23101	,	-20829	,	-21.092312	,	0
33,55	,	75653	,	-23083	,	-20836	,	-18.816145	,	1
33,55	,	75669	,	-23076	,	-20821	,	-15.555676	,	3
33,55	,	75701	,	-23075	,	-20819	,	-11.210481	,	6
33,56	,	75717	,	-23054	,	-20818	,	-5.978612	,	10
33,56	,	75749	,	-23053	,	-20818	,	-0.18290997	,	15
33,56	,	75766	,	-23046	,	-20813	,	5.7939997	,	20
33,56	,	75781	,	-23046	,	-20807	,	11.441957	,	25
33,56	,	75814	,	-23037	,	-20806	,	16.247408	,	30
33,56	,	75829	,	-23027	,	-20800	,	19.915365	,	34
33,56	,	75846	,	-23020	,	-20796	,	22.449282	,	36
33,56	,	75877	,	-23023	,	-20800	,	23.972942	,	36
33,56	,	75893	,	-23030	,	-20816	,	24.477566	,	34
33,56	,	75925	,	-23035	,	-20782	,	23.794394	,	30
33,56	,	75941	,	-23026	,	-20798	,	21.850792	,	25
33,56	,	75957	,	-23025	,	-20796	,	18.913338	,	20
33,56	,	75989	,	-23030	,	-20797	,	15.463983	,	15
33,56	,	76005	,	-23027	,	-20804	,	11.918746	,	10
33,56	,	76021	,	-23033	,	-20799	,	8.547947	,	6
33,56	,	76053	,	-23052	,	-20809	,	5.4072323	,	3
33,56	,	76069	,	-23043	,	-20809	,	2.343748	,	1
33,56	,	76085	,	-23043	,	-20803	,	-0.6593919	,	0
33,56	,	76117	,	-23044	,	-20809	,	-3.3358498	,	0
33,56	,	76133	,	-23047	,	-20822	,	-5.4174623	,	0
33,56	,	76165	,	-23048	,	-20802	,	-6.811438	,	0
33,56	,	76181	,	-23064	,	-20811	,	-7.6267633	,	0
33,56	,	76197	,	-23069	,	-20814	,	-8.187968	,	0
33,56	,	76229	,	-23070	,	-20815	,	-8.838196	,	0
33,56	,	76245	,	-23066	,	-20819	,	-9.649889	,	0
33,56	,	76261	,	-23083	,	-20818	,	-10.483134	,	0
33,56	,	76293	,	-23088	,	-20814	,	-11.308161	,	0
33,56	,	76309	,	-23106	,	-20828	,	-12.295759	,	0
33,56	,	76341	,	-23102	,	-20827	,	-13.616486	,	0
33,56	,	76357	,	-23094	,	-20823	,	-15.148893	,	0
33,56	,	76373	,	-23112	,	-20842	,	-16.492836	,	0
33,56	,	76405	,	-23114	,	-20809	,	-17.40031	,	0
33,56	,	76421	,	-23139	,	-20832	,	-17.999744	,	0
33,56	,	76437	,	-23141	,	-20825	,	-18.636913	,	0
33,56	,	76470	,	-23141	,	-20833	,	-19.537632	,	0
33,56	,	76485	,	-23150	,	-20839	,	-20.593227	,	0
33,56	,	76501	,	-23154	,	-20832	,	-21.555689	,	0
33,56	,	76533	,	-23130	,	-20838	,	-22.111483	,	0
33,56	,	76549	,	-23133	,	-20823	,	-21.75154	,	0
33,56	,	76581	,	-23127	,	-20832	,	-20.053654	,	0
33,56	,	76597	,	-23107	,	-20819	,	-16.92873	,	1
33,56	,	76613	,	-23105	,	-20830	,	-12.453946	,	4
33,56	,	76645	,	-23094	,	-20810	,	-6.863928	,	8
33,56	,	76661	,	-23086	,	-20819	,	-0.6098361	,	13
33,56	,	76677	,	-23078	,	-20817	,	5.7824273	,	19
33,57	,	76709	,	-23077	,	-20813	,	11.793978	,	25
33,57	,	76725	,	-23071	,	-20815	,	16.936188	,	31
33,57	,	76757	,	-23074	,	-20804	,	20.812483	,	36
33,57	,	76773	,	-23063	,	-20809	,	23.198868	,	39
33,57	,	76789	,	-23068	,	-20808	,	24.101143	,	40
33,57	,	76821	,	-23071	,	-20813	,	23.645077	,	37
33,57	,	76837	,	-23063	,	-20806	,	21.99487	,	33
33,57	,	76853	,	-23068	,	-20822	,	19.442709	,	28
33,57	,	76885	,	-23059	,	-20810	,	16.389843	,	22
33,57	,	76901	,	-23069	,	-20812	,	13.220707	,	16
33,57	,	76917	,	-23072	,	-20817	,	10.165812	,	10
33,57	,	76949	,	-23068	,	-20806	,	7.290806	,	5
33,57	,	76965	,	-23075	,	-20817	,	4.6454678	,	2
33,57	,	76997	,	-23074	,	-20811	,	2.2884445	,	0
33,57	,	77013	,	-23086	,	-20812	,	0.20831323	,	0
33,57	,	77029	,	-23075	,	-20809	,	-1.6471257	,	0
33,57	,	77061	,	-23079	,	-20806	,	-3.2294002	,	0
33,57	,	77077	,	-23082	,	-20813	,	-4.410008	,	0
33,57	,	77093	,	-23089	,	-20824	,	-5.1845894	,	0
33,57	,	77125	,	-23090	,	-20807	,	-5.6997337	,	0
33,57	,	77141	,	-23101	,	-20818	,	-6.142164	,	0
33,57	,	77173	,	-23092	,	-20832	,	-6.638214	,	0
33,57	,	77189	,	-23097	,	-20823	,	-7.147133	,	0
33,57	,	77205	,	-23108	,	-20820	,	-7.576279	,	0
33,57	,	77237	,	-23114	,	-20830	,	-8.0086355	,	0
33,57	,	77253	,	-23113	,	-20825	,	-8.604256	,	0
33,57	,	77269	,	-23126	,	-20822	,	-9.4104395	,	0
33,57	,	77301	,	-23133	,	-20828	,	-10.438059	,	0
33,57	,	77317	,	-23140	,	-20832	,	-11.732252	,	0
33,57	,	77333	,	-23139	,	-20843	,	-13.25034	,	0
33,57	,	77365	,	-23155	,	-20838	,	-14.836607	,	0
33,57	,	77381	,	-23133	,	-20836	,	-16.268364	,	0
33,57	,	77413	,	-23116	,	-20837	,	-17.056465	,	0
33,57	,	77429	,	-23104	,	-20842	,	-16.44318	,	0
33,57	,	77445	,	-23095	,	-20831	,	-13.886097	,	0
33,57	,	77477	,	-23092	,	-20827	,	-9.416246	,	2
33,57	,	77493	,	-23094	,	-20821	,	-3.629497	,	6
33,57	,	77509	,	-23075	,	-20815	,	2.6193042	,	11
33,57	,	77540	,	-23059	,	-20814	,	8.714016	,	17
33,57	,	77557	,	-23055	,	-20810	,	14.409668	,	23
33,57	,	77589	,	-23034	,	-20815	,	19.590912	,	28
33,57	,	77605	,	-23038	,	-20802	,	24.13734	,	33
33,57	,	77621	,	-23018	,	-20799	,	27.896297	,	37
33,57	,	77653	,	-23027	,	-20807	,	30.699753	,	40
33,57	,	77668	,	-23017	,	-20790	,	32.376965	,	40
33,57	,	77685	,	-23021	,	-20793	,	32.78229	,	37
33,58	,	77716	,	-23018	,	-20792	,	31.87952	,	32
33,58	,	77733	,	-23010	,	-20787	,	29.807629	,	26
33,58	,	77765	,	-23015	,	-20787	,	26.877502	,	20
33,58	,	77781	,	-23005	,	-20782	,	23.458126	,	15
33,58	,	77796	,	-23008	,	-20790	,	19.906895	,	10
33,58	,	77829	,	-23007	,	-20778	,	16.511387	,	6
33,58	,	77845	,	-23004	,	-20785	,	13.431341	,	3
33,58	,	77861	,	-22998	,	-20781	,	10.792059	,	1
33,58	,	77893	,	-23011	,	-20779	,	8.667786	,	0
33,58	,	77909	,	-23019	,	-20785	,	6.890409	,	0
33,58	,	77924	,	-23020	,	-20794	,	5.1099315	,	0
33,58	,	77956	,	-23017	,	-20791	,	3.1302662	,	0
33,58	,	77972	,	-23026	,	-20784	,	1.0179069	,	0
33,58	,	78005	,	-23028	,	-20796	,	-1.1012263	,	0
33,58	,	78021	,	-23035	,	-20791	,	-3.1626172	,	0
33,58	,	78037	,	-23030	,	-20792	,	-5.0919247	,	0
33,58	,	78069	,	-23044	,	-20789	,	-6.7861223	,	0
33,58	,	78085	,	-23048	,	-20783	,	-8.24655	,	0
33,58	,	78101	,	-23064	,	-20794	,	-9.6416645	,	0
33,58	,	78132	,	-23064	,	-20795	,	-11.17611	,	0
33,58	,	78148	,	-23068	,	-20799	,	-12.890803	,	0
33,58	,	78180	,	-23068	,	-20802	,	-14.593067	,	0
33,58	,	78197	,	-23081	,	-20805	,	-16.034924	,	0
33,58	,	78213	,	-23088	,	-20812	,	-17.14478	,	0
33,58	,	78244	,	-23094	,	-20799	,	-18.020958	,	0
33,58	,	78261	,	-23101	,	-20805	,	-18.76632	,	0
33,58	,	78277	,	-23103	,	-20782	,	-19.405085	,	0
33,58	,	78308	,	-23092	,	-20810	,	-19.804731	,	0
33,58	,	78324	,	-23084	,	-20790	,	-19.5972	,	0
33,58	,	78340	,	-23058	,	-20788	,	-18.24503	,	0
33,58	,	78372	,	-23045	,	-20784	,	-15.205373	,	1
33,58	,	78388	,	-23033	,	-20783	,	-10.209508	,	4
33,58	,	78420	,	-23009	,	-20773	,	-3.4248428	,	8
33,58	,	78436	,	-23000	,	-20778	,	4.690165	,	14
33,58	,	78452	,	-22996	,	-20767	,	13.43922	,	22
33,58	,	78484	,	-22978	,	-20766	,	21.935831	,	30
33,58	,	78500	,	-22964	,	-20760	,	29.44917	,	38
33,58	,	78516	,	-22963	,	-20762	,	35.55656	,	45
33,58	,	78548	,	-22957	,	-20753	,	39.948044	,	51
33,58	,	78564	,	-22948	,	-20749	,	42.4111	,	54
33,58	,	78596	,	-22949	,	-20744	,	42.956406	,	53
33,58	,	78612	,	-22941	,	-20739	,	41.780327	,	49
33,58	,	78628	,	-22946	,	-20746	,	39.172	,	43
33,58	,	78660	,	-22939	,	-20737	,	35.45704	,	35
33,58	,	78676	,	-22932	,	-20733	,	31.038109	,	27
33,58	,	78692	,	-22927	,	-20743	,	26.44105	,	19
33,59	,	78724	,	-22930	,	-20739	,	22.1426	,	12
33,59	,	78740	,	-22935	,	-20739	,	18.341948	,	6
33,59	,	78756	,	-22935	,	-20736	,	14.967797	,	2
33,59	,	78788	,	-22947	,	-20732	,	11.832521	,	0
33,59	,	78804	,	-22948	,	-20737	,	8.728752	,	0
33,59	,	78836	,	-22957	,	-20737	,	5.5093436	,	0
33,59	,	78852	,	-22968	,	-20745	,	2.1097622	,	0
33,59	,	78868	,	-22962	,	-20749	,	-1.4429607	,	0
33,59	,	78900	,	-22966	,	-20745	,	-4.9213667	,	0
33,59	,	78916	,	-22960	,	-20736	,	-7.9284487	,	0
33,59	,	78932	,	-22962	,	-20741	,	-10.081752	,	0
33,59	,	78964	,	-22971	,	-20743	,	-11.207796	,	0
33,59	,	78980	,	-22988	,	-20753	,	-11.529865	,	0
33,59	,	79012	,	-22983	,	-20749	,	-11.546959	,	0
33,59	,	79028	,	-22992	,	-20747	,	-11.628569	,	0
33,59	,	79044	,	-22989	,	-20754	,	-11.856898	,	0
33,59	,	79076	,	-23001	,	-20749	,	-12.178029	,	0
33,59	,	79092	,	-23002	,	-20752	,	-12.552083	,	0
33,59	,	79108	,	-23019	,	-20753	,	-13.017836	,	0
33,59	,	79140	,	-23017	,	-20755	,	-13.668823	,	0
33,59	,	79156	,	-23029	,	-20756	,	-14.543231	,	0
33,59	,	79172	,	-23043	,	-20755	,	-15.638556	,	0
33,59	,	79204	,	-23041	,	-20756	,	-16.97159	,	0
33,59	,	79220	,	-23042	,	-20767	,	-18.409111	,	0
33,59	,	79252	,	-23037	,	-20766	,	-19.576876	,	0
33,59	,	79268	,	-23035	,	-20746	,	-20.031658	,	0
33,59	,	79284	,	-23017	,	-20743	,	-19.385593	,	0
33,59	,	79316	,	-22992	,	-20735	,	-17.240467	,	0
33,59	,	79332	,	-22975	,	-20728	,	-13.184346	,	2
33,59	,	79348	,	-22943	,	-20728	,	-6.9782124	,	6
33,59	,	79380	,	-22950	,	-20708	,	1.2001	,	12
33,59	,	79396	,	-22937	,	-20711	,	10.553748	,	20
33,59	,	79428	,	-22927	,	-20710	,	19.895037	,	29
33,59	,	79444	,	-22908	,	-20692	,	28.233421	,	38
33,59	,	79460	,	-22897	,	-20688	,	35.054703	,	46
33,59	,	79492	,	-22889	,	-20699	,	40.184444	,	52
33,59	,	79508	,	-22890	,	-20681	,	43.531544	,	57
33,59	,	79524	,	-22880	,	-20693	,	45.004284	,	58
33,59	,	79556	,	-22871	,	-20679	,	44.679314	,	55
33,59	,	79572	,	-22870	,	-20690	,	42.87572	,	49
33,59	,	79604	,	-22873	,	-20683	,	39.944214	,	41
33,59	,	79620	,	-22866	,	-20696	,	36.144577	,	32
33,59	,	79636	,	-22869	,	-20692	,	31.750988	,	23
33,59	,	79668	,	-22870	,	-20677	,	27.051033	,	15
33,59	,	79684	,	-22874	,	-20681	,	22.255901	,	9
33,59	,	79699	,	-22877	,	-20689	,	17.510956	,	4
34,0	,	79732	,	-22881	,	-20704	,	12.926636	,	1
34,0	,	79748	,	-22884	,	-20684	,	8.590117	,	0
