Data recorded on Fri Jun 23 15:45:05 CAT 2017
Time: 15:45:11
Time		Millis		IR PPG		Red PPG		Filtered		SSF
45,15	,	54563	,	-34377	,	-31090	,	11.569387	,	15
45,15	,	54579	,	-34373	,	-31101	,	11.052207	,	12
45,15	,	54611	,	-34370	,	-31112	,	10.357485	,	9
45,15	,	54627	,	-34363	,	-31107	,	9.492723	,	6
45,15	,	54643	,	-34374	,	-31106	,	8.577038	,	3
45,15	,	54675	,	-34368	,	-31100	,	7.629383	,	1
45,15	,	54691	,	-34367	,	-31103	,	6.6148076	,	0
45,15	,	54723	,	-34366	,	-31108	,	5.5861564	,	0
45,15	,	54739	,	-34374	,	-31107	,	4.600202	,	0
45,15	,	54755	,	-34367	,	-31115	,	3.6373034	,	0
45,15	,	54787	,	-34376	,	-31140	,	2.6774976	,	0
45,15	,	54803	,	-34383	,	-31090	,	1.6706526	,	0
45,15	,	54819	,	-34378	,	-31116	,	0.51662767	,	0
45,15	,	54851	,	-34373	,	-31120	,	-0.73739815	,	0
45,15	,	54867	,	-34379	,	-31109	,	-1.8705577	,	0
45,15	,	54883	,	-34382	,	-31119	,	-2.7388387	,	0
45,15	,	54915	,	-34369	,	-31104	,	-3.3032367	,	0
45,15	,	54931	,	-34380	,	-31112	,	-3.4935985	,	0
45,15	,	54962	,	-34390	,	-31112	,	-3.3709388	,	0
45,15	,	54979	,	-34376	,	-31120	,	-3.1811988	,	0
45,15	,	54995	,	-34381	,	-31112	,	-3.0260506	,	0
45,15	,	55027	,	-34380	,	-31137	,	-2.8195689	,	0
45,15	,	55043	,	-34376	,	-31094	,	-2.4998121	,	0
45,15	,	55059	,	-34383	,	-31106	,	-2.070736	,	0
45,15	,	55091	,	-34402	,	-31107	,	-1.7089974	,	0
45,15	,	55107	,	-34391	,	-31116	,	-1.7556363	,	0
45,15	,	55138	,	-34393	,	-31115	,	-2.3334	,	0
45,15	,	55155	,	-34396	,	-31116	,	-3.230207	,	0
45,15	,	55170	,	-34398	,	-31113	,	-4.1973686	,	0
45,15	,	55202	,	-34406	,	-31117	,	-5.1168947	,	0
45,15	,	55218	,	-34396	,	-31119	,	-5.9353714	,	0
45,15	,	55234	,	-34396	,	-31113	,	-6.5195923	,	0
45,15	,	55267	,	-34417	,	-31137	,	-6.78039	,	0
45,15	,	55283	,	-34414	,	-31097	,	-6.919077	,	0
45,15	,	55299	,	-34410	,	-31118	,	-7.1703625	,	0
45,15	,	55330	,	-34418	,	-31113	,	-7.500821	,	0
45,15	,	55346	,	-34411	,	-31105	,	-7.762476	,	0
45,15	,	55378	,	-34424	,	-31115	,	-7.869586	,	0
45,15	,	55394	,	-34406	,	-31101	,	-7.7814765	,	0
45,15	,	55411	,	-34387	,	-31105	,	-7.273627	,	0
45,15	,	55443	,	-34375	,	-31109	,	-5.8356285	,	0
45,15	,	55459	,	-34360	,	-31100	,	-3.0208147	,	1
45,15	,	55475	,	-34366	,	-31108	,	1.1679235	,	3
45,15	,	55506	,	-34368	,	-31134	,	6.1507792	,	7
45,15	,	55523	,	-34345	,	-31094	,	11.100578	,	11
45,15	,	55554	,	-34338	,	-31090	,	15.52822	,	15
45,16	,	55570	,	-34359	,	-31089	,	19.2056	,	19
45,16	,	55586	,	-34343	,	-31089	,	21.755556	,	22
45,16	,	55619	,	-34333	,	-31086	,	22.936226	,	24
45,16	,	55635	,	-34335	,	-31087	,	22.949425	,	25
45,16	,	55650	,	-34334	,	-31093	,	22.114237	,	24
45,16	,	55683	,	-34317	,	-31085	,	20.698608	,	22
45,16	,	55699	,	-34325	,	-31085	,	19.033306	,	18
45,16	,	55714	,	-34311	,	-31083	,	17.410404	,	14
45,16	,	55746	,	-34313	,	-31106	,	16.006607	,	10
45,16	,	55762	,	-34313	,	-31078	,	14.884529	,	6
45,16	,	55794	,	-34311	,	-31068	,	13.946565	,	3
45,16	,	55811	,	-34293	,	-31077	,	13.116372	,	1
45,16	,	55826	,	-34292	,	-31077	,	12.536825	,	0
45,16	,	55858	,	-34306	,	-31077	,	12.303489	,	0
45,16	,	55874	,	-34304	,	-31076	,	12.145994	,	0
45,16	,	55890	,	-34300	,	-31078	,	11.677348	,	0
45,16	,	55922	,	-34306	,	-31077	,	10.746502	,	0
45,16	,	55938	,	-34289	,	-31078	,	9.459177	,	0
45,16	,	55970	,	-34301	,	-31078	,	8.07774	,	0
45,16	,	55986	,	-34300	,	-31104	,	6.784811	,	0
45,16	,	56002	,	-34298	,	-31064	,	5.570993	,	0
45,16	,	56034	,	-34287	,	-31074	,	4.4683533	,	0
45,16	,	56050	,	-34302	,	-31076	,	3.603776	,	0
45,16	,	56066	,	-34286	,	-31068	,	3.0129368	,	0
45,16	,	56098	,	-34302	,	-31068	,	2.637767	,	0
45,16	,	56114	,	-34301	,	-31074	,	2.3401656	,	0
45,16	,	56130	,	-34297	,	-31066	,	1.9390908	,	0
45,16	,	56162	,	-34311	,	-31084	,	1.3349477	,	0
45,16	,	56178	,	-34314	,	-31076	,	0.4311459	,	0
45,16	,	56210	,	-34309	,	-31076	,	-0.83840466	,	0
45,16	,	56226	,	-34313	,	-31081	,	-2.3243027	,	0
45,16	,	56242	,	-34321	,	-31061	,	-3.7993336	,	0
45,16	,	56274	,	-34319	,	-31083	,	-5.1596994	,	0
45,16	,	56290	,	-34330	,	-31078	,	-6.383361	,	0
45,16	,	56306	,	-34328	,	-31071	,	-7.4810314	,	0
45,16	,	56338	,	-34353	,	-31076	,	-8.558421	,	0
45,16	,	56354	,	-34332	,	-31077	,	-9.750946	,	0
45,16	,	56386	,	-34334	,	-31083	,	-10.908059	,	0
45,16	,	56402	,	-34327	,	-31076	,	-11.578969	,	0
45,16	,	56418	,	-34344	,	-31077	,	-11.480791	,	0
45,16	,	56450	,	-34324	,	-31078	,	-10.679871	,	0
45,16	,	56466	,	-34339	,	-31092	,	-9.340845	,	0
45,16	,	56482	,	-34340	,	-31073	,	-7.684463	,	1
45,16	,	56514	,	-34346	,	-31084	,	-6.0718336	,	2
45,16	,	56530	,	-34332	,	-31068	,	-4.773159	,	3
45,16	,	56546	,	-34322	,	-31072	,	-3.6929498	,	4
45,17	,	56578	,	-34300	,	-31057	,	-2.3777688	,	5
45,17	,	56594	,	-34293	,	-31057	,	-0.27339077	,	6
45,17	,	56626	,	-34283	,	-31061	,	2.915248	,	8
45,17	,	56642	,	-34281	,	-31066	,	7.0339727	,	11
45,17	,	56658	,	-34275	,	-31048	,	11.581471	,	15
45,17	,	56690	,	-34281	,	-31058	,	15.900908	,	18
45,17	,	56706	,	-34259	,	-31057	,	19.419046	,	21
45,17	,	56722	,	-34269	,	-31045	,	21.872742	,	23
45,17	,	56754	,	-34261	,	-31047	,	23.213238	,	24
45,17	,	56770	,	-34268	,	-31047	,	23.415066	,	24
45,17	,	56802	,	-34256	,	-31047	,	22.53011	,	23
45,17	,	56818	,	-34266	,	-31053	,	20.754637	,	21
45,17	,	56834	,	-34268	,	-31058	,	18.303196	,	18
45,17	,	56866	,	-34257	,	-31048	,	15.377526	,	14
45,17	,	56882	,	-34254	,	-31052	,	12.330236	,	10
45,17	,	56898	,	-34236	,	-31045	,	9.674365	,	6
45,17	,	56930	,	-34240	,	-31048	,	7.890255	,	3
45,17	,	56946	,	-34255	,	-31053	,	7.084358	,	1
45,17	,	56962	,	-34246	,	-31048	,	6.8661737	,	0
45,17	,	56994	,	-34257	,	-31039	,	6.7304163	,	0
45,17	,	57010	,	-34248	,	-31043	,	6.3637657	,	0
45,17	,	57042	,	-34235	,	-31033	,	5.752035	,	0
45,17	,	57058	,	-34236	,	-31037	,	5.1841903	,	0
45,17	,	57074	,	-34240	,	-31032	,	4.9094224	,	0
45,17	,	57106	,	-34241	,	-31029	,	4.8689575	,	0
45,17	,	57122	,	-34246	,	-31032	,	4.827388	,	0
45,17	,	57138	,	-34234	,	-31041	,	4.6192503	,	0
45,17	,	57170	,	-34243	,	-31040	,	4.261784	,	0
45,17	,	57185	,	-34253	,	-31040	,	3.7649555	,	0
45,17	,	57218	,	-34260	,	-31035	,	2.934624	,	0
45,17	,	57234	,	-34258	,	-31030	,	1.5664232	,	0
45,17	,	57250	,	-34270	,	-31035	,	-0.33473635	,	0
45,17	,	57282	,	-34256	,	-31036	,	-2.5691714	,	0
45,17	,	57298	,	-34264	,	-31037	,	-4.7745056	,	0
45,17	,	57314	,	-34256	,	-31032	,	-6.5451784	,	0
45,17	,	57345	,	-34263	,	-31040	,	-7.616107	,	0
45,17	,	57361	,	-34267	,	-31040	,	-7.9584494	,	0
45,17	,	57394	,	-34277	,	-31041	,	-7.810383	,	0
45,17	,	57410	,	-34271	,	-31052	,	-7.515546	,	0
45,17	,	57426	,	-34273	,	-31045	,	-7.2488136	,	0
45,17	,	57458	,	-34278	,	-31046	,	-7.0069513	,	0
45,17	,	57474	,	-34285	,	-31043	,	-6.821554	,	0
45,17	,	57490	,	-34295	,	-31048	,	-6.852288	,	0
45,17	,	57522	,	-34292	,	-31047	,	-7.2623096	,	0
45,17	,	57538	,	-34294	,	-31058	,	-8.020397	,	0
45,17	,	57554	,	-34303	,	-31047	,	-8.935001	,	0
45,18	,	57585	,	-34296	,	-31055	,	-9.824159	,	0
45,18	,	57602	,	-34303	,	-31050	,	-10.511654	,	0
45,18	,	57634	,	-34286	,	-31045	,	-10.776981	,	0
45,18	,	57650	,	-34267	,	-31045	,	-10.262568	,	0
45,18	,	57665	,	-34269	,	-31030	,	-8.537321	,	0
45,18	,	57698	,	-34252	,	-31034	,	-5.448512	,	1
45,18	,	57714	,	-34236	,	-31032	,	-1.1487069	,	4
45,18	,	57730	,	-34243	,	-31028	,	4.051134	,	8
45,18	,	57762	,	-34236	,	-31022	,	9.565007	,	13
45,18	,	57777	,	-34238	,	-31032	,	14.6187725	,	18
45,18	,	57809	,	-34244	,	-31018	,	18.51587	,	23
45,18	,	57825	,	-34234	,	-31034	,	20.795334	,	26
45,18	,	57842	,	-34232	,	-31036	,	21.402983	,	28
45,18	,	57874	,	-34232	,	-31018	,	20.648403	,	28
45,18	,	57890	,	-34242	,	-31039	,	18.879126	,	27
45,18	,	57921	,	-34224	,	-31014	,	16.379883	,	24
45,18	,	57937	,	-34214	,	-31015	,	13.625027	,	20
45,18	,	57953	,	-34227	,	-31016	,	11.19614	,	15
45,18	,	57985	,	-34222	,	-31011	,	9.323639	,	10
45,18	,	58001	,	-34211	,	-31001	,	7.948618	,	5
45,18	,	58017	,	-34214	,	-31009	,	7.0766983	,	2
45,18	,	58050	,	-34216	,	-31012	,	6.681585	,	0
45,18	,	58066	,	-34226	,	-31012	,	6.508458	,	0
45,18	,	58097	,	-34205	,	-31009	,	6.2715635	,	0
45,18	,	58113	,	-34210	,	-31002	,	5.961975	,	0
45,18	,	58129	,	-34192	,	-31015	,	5.8055763	,	0
45,18	,	58161	,	-34224	,	-31014	,	5.909787	,	0
45,18	,	58177	,	-34215	,	-31016	,	5.9928904	,	0
45,18	,	58193	,	-34216	,	-31001	,	5.662003	,	0
45,18	,	58225	,	-34212	,	-31012	,	4.857313	,	0
45,18	,	58241	,	-34221	,	-31004	,	3.7479684	,	0
45,18	,	58258	,	-34212	,	-31013	,	2.4867356	,	0
45,18	,	58289	,	-34226	,	-31014	,	1.1867521	,	0
45,18	,	58305	,	-34224	,	-31010	,	-0.114218	,	0
45,18	,	58337	,	-34228	,	-31019	,	-1.429675	,	0
45,18	,	58353	,	-34241	,	-31012	,	-2.7856429	,	0
45,18	,	58369	,	-34220	,	-31017	,	-4.1725817	,	0
45,18	,	58401	,	-34222	,	-31011	,	-5.346839	,	0
45,18	,	58417	,	-34229	,	-31019	,	-5.9693155	,	0
45,18	,	58433	,	-34231	,	-31020	,	-5.999089	,	0
45,18	,	58465	,	-34229	,	-31015	,	-5.6370683	,	0
45,18	,	58481	,	-34240	,	-31016	,	-5.1051974	,	0
45,18	,	58513	,	-34248	,	-31019	,	-4.6823316	,	0
45,18	,	58529	,	-34249	,	-31012	,	-4.671585	,	0
45,18	,	58545	,	-34252	,	-31013	,	-5.1890507	,	0
45,19	,	58577	,	-34261	,	-31028	,	-6.1507463	,	0
45,19	,	58593	,	-34260	,	-31008	,	-7.4242487	,	0
45,19	,	58609	,	-34270	,	-31019	,	-8.866962	,	0
45,19	,	58641	,	-34268	,	-31026	,	-10.321997	,	0
45,19	,	58657	,	-34271	,	-31020	,	-11.615267	,	0
45,19	,	58673	,	-34274	,	-31026	,	-12.573956	,	0
45,19	,	58705	,	-34282	,	-31024	,	-13.131393	,	0
45,19	,	58721	,	-34281	,	-31032	,	-13.350182	,	0
45,19	,	58753	,	-34285	,	-31030	,	-13.302845	,	0
45,19	,	58769	,	-34261	,	-31020	,	-12.900801	,	0
45,19	,	58785	,	-34246	,	-31020	,	-11.747463	,	0
45,19	,	58817	,	-34232	,	-31026	,	-9.2975235	,	1
45,19	,	58833	,	-34232	,	-31010	,	-5.3167577	,	3
45,19	,	58849	,	-34224	,	-31024	,	-0.12700272	,	6
45,19	,	58881	,	-34216	,	-31004	,	5.610854	,	11
45,19	,	58897	,	-34220	,	-31010	,	11.198312	,	16
45,19	,	58929	,	-34203	,	-31014	,	16.047241	,	21
45,19	,	58945	,	-34205	,	-31004	,	19.816442	,	25
45,19	,	58961	,	-34195	,	-31003	,	22.41157	,	28
45,19	,	58993	,	-34198	,	-30994	,	23.849094	,	30
45,19	,	59009	,	-34203	,	-31001	,	24.142303	,	30
45,19	,	59025	,	-34198	,	-31009	,	23.278282	,	28
45,19	,	59057	,	-34209	,	-31011	,	21.320051	,	25
45,19	,	59073	,	-34202	,	-30992	,	18.444712	,	20
45,19	,	59089	,	-34190	,	-31004	,	15.015028	,	15
45,19	,	59121	,	-34191	,	-31004	,	11.616402	,	10
45,19	,	59137	,	-34189	,	-31000	,	8.765928	,	6
45,19	,	59169	,	-34188	,	-30989	,	6.6775055	,	3
45,19	,	59185	,	-34179	,	-30998	,	5.369538	,	1
45,19	,	59201	,	-34185	,	-30993	,	4.7832108	,	0
45,19	,	59233	,	-34192	,	-30983	,	4.6971226	,	0
45,19	,	59249	,	-34189	,	-30996	,	4.730419	,	0
45,19	,	59265	,	-34190	,	-30983	,	4.5862684	,	0
45,19	,	59297	,	-34182	,	-30997	,	4.210817	,	0
45,19	,	59313	,	-34183	,	-30982	,	3.7396913	,	0
45,19	,	59345	,	-34187	,	-30985	,	3.3142498	,	0
45,19	,	59361	,	-34196	,	-30987	,	2.8942251	,	0
45,19	,	59377	,	-34190	,	-30999	,	2.318645	,	0
45,19	,	59409	,	-34207	,	-30990	,	1.4707296	,	0
45,19	,	59425	,	-34192	,	-30997	,	0.31548584	,	0
45,19	,	59441	,	-34207	,	-30995	,	-1.0643934	,	0
45,19	,	59473	,	-34220	,	-31002	,	-2.6048682	,	0
45,19	,	59489	,	-34203	,	-31000	,	-4.3300714	,	0
45,19	,	59505	,	-34200	,	-30999	,	-6.0098586	,	0
45,19	,	59537	,	-34211	,	-31016	,	-7.2098045	,	0
45,19	,	59553	,	-34212	,	-30996	,	-7.7760367	,	0
45,20	,	59585	,	-34229	,	-30997	,	-7.9297743	,	0
45,20	,	59600	,	-34233	,	-30997	,	-8.077004	,	0
45,20	,	59617	,	-34236	,	-30998	,	-8.5653305	,	0
45,20	,	59649	,	-34232	,	-31002	,	-9.434812	,	0
45,20	,	59665	,	-34246	,	-31002	,	-10.478883	,	0
45,20	,	59681	,	-34243	,	-31009	,	-11.514975	,	0
45,20	,	59713	,	-34246	,	-31004	,	-12.419356	,	0
45,20	,	59729	,	-34239	,	-31014	,	-13.004351	,	0
45,20	,	59760	,	-34246	,	-31006	,	-13.064794	,	0
45,20	,	59777	,	-34253	,	-31029	,	-12.577934	,	0
45,20	,	59793	,	-34243	,	-31008	,	-11.711443	,	0
45,20	,	59824	,	-34249	,	-31002	,	-10.588378	,	0
45,20	,	59841	,	-34258	,	-31000	,	-9.303276	,	1
45,20	,	59857	,	-34256	,	-31014	,	-8.073141	,	2
45,20	,	59889	,	-34263	,	-31017	,	-7.1130366	,	3
45,20	,	59905	,	-34266	,	-31014	,	-6.535603	,	3
45,20	,	59920	,	-34244	,	-31007	,	-6.2692747	,	3
45,20	,	59953	,	-34244	,	-31004	,	-5.925096	,	3
45,20	,	59969	,	-34247	,	-31004	,	-5.090827	,	3
45,20	,	60001	,	-34223	,	-31012	,	-3.6203325	,	3
45,20	,	60017	,	-34229	,	-31024	,	-1.4638038	,	4
45,20	,	60033	,	-34231	,	-31013	,	1.2676127	,	5
45,20	,	60065	,	-34234	,	-31019	,	4.114878	,	6
45,20	,	60081	,	-34222	,	-31011	,	6.567054	,	7
45,20	,	60096	,	-34217	,	-31022	,	8.438978	,	9
45,20	,	60128	,	-34219	,	-31008	,	9.810469	,	10
45,20	,	60145	,	-34228	,	-31011	,	10.690267	,	11
45,20	,	60177	,	-34228	,	-31007	,	10.904136	,	11
45,20	,	60193	,	-34228	,	-31015	,	10.3153515	,	11
45,20	,	60209	,	-34225	,	-30999	,	9.0123005	,	10
45,20	,	60240	,	-34224	,	-31009	,	7.267099	,	8
45,20	,	60256	,	-34218	,	-31024	,	5.424872	,	6
45,20	,	60272	,	-34211	,	-31005	,	3.8541322	,	4
45,20	,	60305	,	-34216	,	-31001	,	2.8428197	,	2
45,20	,	60321	,	-34213	,	-30997	,	2.439798	,	1
45,20	,	60353	,	-34217	,	-31005	,	2.4735513	,	0
45,20	,	60368	,	-34228	,	-31009	,	2.6448689	,	0
45,20	,	60384	,	-34209	,	-31006	,	2.6687312	,	0
45,20	,	60416	,	-34232	,	-30996	,	2.4458282	,	0
45,20	,	60432	,	-34231	,	-31004	,	1.9013906	,	0
45,20	,	60448	,	-34223	,	-31009	,	0.9466331	,	0
45,20	,	60480	,	-34234	,	-31004	,	-0.29860198	,	0
45,20	,	60497	,	-34238	,	-31020	,	-1.6688294	,	0
45,20	,	60513	,	-34238	,	-31007	,	-3.1163602	,	0
45,20	,	60544	,	-34244	,	-31013	,	-4.5790253	,	0
45,21	,	60560	,	-34255	,	-31021	,	-6.012602	,	0
45,21	,	60592	,	-34248	,	-31012	,	-7.437146	,	0
45,21	,	60608	,	-34243	,	-31011	,	-8.728445	,	0
45,21	,	60624	,	-34237	,	-31013	,	-9.54117	,	0
45,21	,	60656	,	-34242	,	-31023	,	-9.563762	,	0
45,21	,	60672	,	-34262	,	-31019	,	-8.859038	,	0
45,21	,	60688	,	-34265	,	-31011	,	-7.9428616	,	0
45,21	,	60720	,	-34262	,	-31020	,	-7.3632274	,	0
45,21	,	60736	,	-34254	,	-31038	,	-7.2288423	,	0
45,21	,	60768	,	-34255	,	-31007	,	-7.248486	,	0
45,21	,	60784	,	-34279	,	-31018	,	-7.2005787	,	0
45,21	,	60800	,	-34283	,	-31021	,	-7.276146	,	0
45,21	,	60832	,	-34274	,	-31008	,	-7.7583256	,	0
45,21	,	60848	,	-34286	,	-31014	,	-8.589117	,	0
45,21	,	60864	,	-34271	,	-31025	,	-9.474668	,	0
45,21	,	60896	,	-34279	,	-31027	,	-10.085848	,	0
45,21	,	60912	,	-34286	,	-31022	,	-10.223742	,	0
45,21	,	60928	,	-34277	,	-31030	,	-9.921944	,	0
45,21	,	60960	,	-34276	,	-31026	,	-9.234689	,	0
45,21	,	60976	,	-34278	,	-31045	,	-8.144951	,	0
45,21	,	61008	,	-34263	,	-31006	,	-6.652994	,	1
45,21	,	61024	,	-34250	,	-31014	,	-4.6685143	,	2
45,21	,	61040	,	-34233	,	-31006	,	-1.946085	,	3
45,21	,	61072	,	-34243	,	-31009	,	1.6356955	,	5
45,21	,	61088	,	-34238	,	-31015	,	5.747717	,	8
45,21	,	61104	,	-34235	,	-31014	,	9.755551	,	12
45,21	,	61136	,	-34230	,	-31007	,	13.137371	,	16
45,21	,	61152	,	-34231	,	-31000	,	15.609102	,	19
45,21	,	61184	,	-34235	,	-31005	,	17.002687	,	21
45,21	,	61200	,	-34225	,	-31002	,	17.257149	,	21
45,21	,	61216	,	-34223	,	-31025	,	16.548832	,	20
45,21	,	61248	,	-34233	,	-30987	,	15.18873	,	19
45,21	,	61264	,	-34233	,	-31002	,	13.348914	,	17
45,21	,	61280	,	-34223	,	-31002	,	11.137922	,	14
45,21	,	61312	,	-34225	,	-31002	,	8.818886	,	10
45,21	,	61328	,	-34225	,	-30995	,	6.689325	,	6
45,21	,	61344	,	-34202	,	-31001	,	5.003147	,	3
45,21	,	61376	,	-34214	,	-30996	,	4.048535	,	1
45,21	,	61392	,	-34215	,	-30999	,	3.8885915	,	0
45,21	,	61424	,	-34208	,	-31006	,	4.235547	,	0
45,21	,	61440	,	-34209	,	-30992	,	4.7874107	,	0
45,21	,	61456	,	-34211	,	-31021	,	5.354165	,	0
45,21	,	61488	,	-34221	,	-30972	,	5.7081046	,	0
45,21	,	61504	,	-34230	,	-30995	,	5.533594	,	0
45,21	,	61520	,	-34224	,	-31004	,	4.5894804	,	0
45,21	,	61552	,	-34206	,	-30998	,	3.0377896	,	0
45,22	,	61568	,	-34221	,	-30996	,	1.4175484	,	0
45,22	,	61600	,	-34223	,	-30991	,	0.103105545	,	0
45,22	,	61616	,	-34228	,	-30988	,	-0.93508744	,	0
45,22	,	61632	,	-34212	,	-30987	,	-1.7831969	,	0
45,22	,	61664	,	-34219	,	-30999	,	-2.331399	,	0
45,22	,	61680	,	-34220	,	-30992	,	-2.4662747	,	0
45,22	,	61696	,	-34220	,	-31022	,	-2.2606664	,	0
45,22	,	61728	,	-34218	,	-30974	,	-1.8562547	,	0
45,22	,	61744	,	-34234	,	-30996	,	-1.4187804	,	0
45,22	,	61760	,	-34220	,	-30982	,	-1.1622422	,	0
45,22	,	61792	,	-34228	,	-30997	,	-1.1689992	,	0
45,22	,	61808	,	-34227	,	-30998	,	-1.3588178	,	0
45,22	,	61840	,	-34231	,	-30992	,	-1.6630236	,	0
45,22	,	61856	,	-34239	,	-30997	,	-2.098784	,	0
45,22	,	61872	,	-34244	,	-30994	,	-2.7672734	,	0
45,22	,	61904	,	-34251	,	-30986	,	-3.7822316	,	0
45,22	,	61920	,	-34247	,	-30999	,	-5.138721	,	0
45,22	,	61936	,	-34241	,	-31028	,	-6.606738	,	0
45,22	,	61968	,	-34262	,	-30981	,	-7.8842907	,	0
45,22	,	61984	,	-34243	,	-31004	,	-8.843231	,	0
45,22	,	62016	,	-34247	,	-31001	,	-9.372921	,	0
45,22	,	62032	,	-34268	,	-31011	,	-9.38957	,	0
45,22	,	62048	,	-34274	,	-31002	,	-9.188059	,	0
45,22	,	62080	,	-34260	,	-31004	,	-9.172148	,	0
45,22	,	62096	,	-34244	,	-30993	,	-9.226577	,	0
45,22	,	62112	,	-34238	,	-30988	,	-8.763027	,	0
45,22	,	62144	,	-34218	,	-30992	,	-7.2153435	,	0
45,22	,	62160	,	-34206	,	-30985	,	-4.2573676	,	1
45,22	,	62176	,	-34213	,	-31009	,	0.07290125	,	3
45,22	,	62208	,	-34207	,	-30967	,	5.208131	,	7
45,22	,	62224	,	-34190	,	-30978	,	10.3713455	,	12
45,22	,	62255	,	-34186	,	-30964	,	15.072942	,	17
45,22	,	62272	,	-34203	,	-30975	,	18.977863	,	21
45,22	,	62288	,	-34196	,	-30987	,	21.600872	,	24
45,22	,	62319	,	-34190	,	-30984	,	22.59816	,	26
45,22	,	62336	,	-34194	,	-30979	,	22.067482	,	26
45,22	,	62352	,	-34184	,	-30974	,	20.36972	,	25
45,22	,	62384	,	-34191	,	-30975	,	17.929394	,	23
45,22	,	62400	,	-34178	,	-30975	,	15.167252	,	19
45,22	,	62431	,	-34176	,	-30995	,	12.500687	,	14
45,22	,	62447	,	-34172	,	-30945	,	10.30427	,	9
45,22	,	62464	,	-34164	,	-30966	,	8.805156	,	5
45,22	,	62496	,	-34166	,	-30972	,	8.064534	,	2
45,22	,	62512	,	-34173	,	-30958	,	7.9212213	,	0
45,22	,	62528	,	-34168	,	-30967	,	8.007147	,	0
45,23	,	62559	,	-34156	,	-30962	,	8.053068	,	0
45,23	,	62575	,	-34163	,	-30961	,	8.052065	,	0
45,23	,	62592	,	-34145	,	-30973	,	8.095889	,	0
45,23	,	62624	,	-34153	,	-30964	,	8.274864	,	0
45,23	,	62639	,	-34155	,	-30956	,	8.566233	,	0
45,23	,	62671	,	-34156	,	-30985	,	8.742613	,	0
45,23	,	62687	,	-34167	,	-30949	,	8.510541	,	0
45,23	,	62703	,	-34170	,	-30966	,	7.6242085	,	0
45,23	,	62737	,	-34169	,	-30970	,	5.986683	,	0
45,23	,	62752	,	-34173	,	-30954	,	3.749761	,	0
45,23	,	62768	,	-34183	,	-30960	,	1.172544	,	0
45,23	,	62800	,	-34179	,	-30966	,	-1.5354757	,	0
45,23	,	62816	,	-34177	,	-30970	,	-4.1210165	,	0
45,23	,	62848	,	-34186	,	-30974	,	-6.280186	,	0
45,23	,	62863	,	-34175	,	-30968	,	-7.817056	,	0
45,23	,	62880	,	-34174	,	-30963	,	-8.59811	,	0
45,23	,	62911	,	-34179	,	-30987	,	-8.534342	,	0
45,23	,	62927	,	-34180	,	-30951	,	-7.7430277	,	0
45,23	,	62943	,	-34198	,	-30971	,	-6.5981636	,	0
45,23	,	62975	,	-34187	,	-30962	,	-5.5819063	,	1
45,23	,	62992	,	-34207	,	-30973	,	-5.040993	,	2
45,23	,	63008	,	-34211	,	-30969	,	-5.173298	,	2
45,23	,	63040	,	-34198	,	-30975	,	-6.0011444	,	2
45,23	,	63055	,	-34201	,	-30979	,	-7.169192	,	2
45,23	,	63087	,	-34207	,	-30977	,	-8.186144	,	2
45,23	,	63103	,	-34212	,	-30979	,	-8.843308	,	2
45,23	,	63119	,	-34215	,	-30982	,	-9.197315	,	2
45,23	,	63151	,	-34215	,	-30999	,	-9.354062	,	2
45,23	,	63167	,	-34217	,	-30971	,	-9.35943	,	1
45,23	,	63184	,	-34239	,	-30986	,	-9.315081	,	0
45,23	,	63215	,	-34217	,	-30978	,	-9.406865	,	0
45,23	,	63231	,	-34206	,	-30981	,	-9.502799	,	0
45,23	,	63263	,	-34190	,	-30979	,	-9.003081	,	0
45,23	,	63279	,	-34185	,	-30971	,	-7.3089504	,	0
45,23	,	63295	,	-34178	,	-30973	,	-4.242918	,	1
45,23	,	63327	,	-34153	,	-30974	,	0.020308018	,	4
45,23	,	63343	,	-34150	,	-30965	,	5.2304745	,	8
45,23	,	63359	,	-34164	,	-30965	,	10.920062	,	13
45,23	,	63391	,	-34141	,	-30998	,	16.282835	,	18
45,23	,	63407	,	-34155	,	-30954	,	20.59984	,	23
45,23	,	63423	,	-34149	,	-30966	,	23.438995	,	27
45,23	,	63455	,	-34159	,	-30960	,	24.537373	,	29
45,23	,	63471	,	-34152	,	-30962	,	23.857393	,	30
45,23	,	63503	,	-34153	,	-30969	,	21.661057	,	29
45,23	,	63520	,	-34162	,	-30966	,	18.384167	,	26
45,23	,	63535	,	-34139	,	-30952	,	14.527249	,	22
45,24	,	63567	,	-34147	,	-30970	,	10.713484	,	17
45,24	,	63583	,	-34139	,	-30964	,	7.519553	,	12
45,24	,	63599	,	-34145	,	-30957	,	5.2065935	,	7
45,24	,	63631	,	-34144	,	-30989	,	3.7255378	,	3
45,24	,	63647	,	-34142	,	-30938	,	2.869478	,	1
45,24	,	63679	,	-34138	,	-30962	,	2.456426	,	0
45,24	,	63695	,	-34153	,	-30959	,	2.3222218	,	0
45,24	,	63711	,	-34140	,	-30962	,	2.2357416	,	0
45,24	,	63743	,	-34147	,	-30960	,	2.0451365	,	0
45,24	,	63759	,	-34162	,	-30953	,	1.6614015	,	0
45,24	,	63775	,	-34152	,	-30969	,	0.9264395	,	0
45,24	,	63807	,	-34165	,	-30961	,	-0.21476674	,	0
45,24	,	63823	,	-34164	,	-30955	,	-1.6717106	,	0
45,24	,	63839	,	-34147	,	-30969	,	-3.2361479	,	0
45,24	,	63871	,	-34151	,	-30991	,	-4.4845386	,	0
45,24	,	63887	,	-34155	,	-30946	,	-5.051652	,	0
45,24	,	63919	,	-34158	,	-30967	,	-4.948166	,	0
45,24	,	63935	,	-34156	,	-30968	,	-4.4183555	,	0
45,24	,	63951	,	-34158	,	-30965	,	-3.6880708	,	0
45,24	,	63983	,	-34171	,	-30973	,	-2.9703543	,	0
45,24	,	63999	,	-34161	,	-30963	,	-2.503782	,	0
45,24	,	64015	,	-34165	,	-30963	,	-2.3727531	,	0
45,24	,	64047	,	-34180	,	-30974	,	-2.5383058	,	0
45,24	,	64063	,	-34176	,	-30963	,	-3.055159	,	0
45,24	,	64095	,	-34182	,	-30964	,	-3.9615932	,	0
45,24	,	64111	,	-34187	,	-30996	,	-5.1665883	,	0
45,24	,	64127	,	-34180	,	-30947	,	-6.5034285	,	0
45,24	,	64159	,	-34180	,	-30971	,	-7.6908827	,	0
45,24	,	64175	,	-34204	,	-30984	,	-8.527446	,	0
45,24	,	64191	,	-34203	,	-30977	,	-9.183094	,	0
45,24	,	64223	,	-34204	,	-30971	,	-9.935614	,	0
45,24	,	64239	,	-34197	,	-30977	,	-10.745539	,	0
45,24	,	64271	,	-34189	,	-30966	,	-11.261967	,	0
45,24	,	64287	,	-34175	,	-30969	,	-11.019633	,	0
45,24	,	64303	,	-34163	,	-30960	,	-9.588494	,	0
45,24	,	64335	,	-34163	,	-30962	,	-6.7688656	,	1
45,24	,	64351	,	-34145	,	-30980	,	-2.7188878	,	3
45,24	,	64367	,	-34148	,	-30947	,	2.1592746	,	7
45,24	,	64399	,	-34124	,	-30945	,	7.4049788	,	11
45,24	,	64415	,	-34125	,	-30939	,	12.627537	,	16
45,24	,	64431	,	-34123	,	-30951	,	17.453903	,	21
45,24	,	64463	,	-34105	,	-30949	,	21.498274	,	25
45,24	,	64479	,	-34116	,	-30939	,	24.513704	,	29
45,24	,	64511	,	-34114	,	-30946	,	26.30738	,	32
45,24	,	64527	,	-34117	,	-30938	,	26.655205	,	32
45,24	,	64543	,	-34121	,	-30942	,	25.46996	,	30
45,25	,	64575	,	-34120	,	-30936	,	22.8843	,	26
45,25	,	64590	,	-34108	,	-30960	,	19.29686	,	22
45,25	,	64607	,	-34112	,	-30920	,	15.339459	,	17
45,25	,	64639	,	-34101	,	-30932	,	11.63503	,	12
45,25	,	64655	,	-34108	,	-30936	,	8.599072	,	8
45,25	,	64687	,	-34085	,	-30926	,	6.464475	,	4
45,25	,	64703	,	-34099	,	-30930	,	5.3586893	,	1
45,25	,	64719	,	-34110	,	-30929	,	5.101928	,	0
45,25	,	64751	,	-34096	,	-30940	,	5.18206	,	0
45,25	,	64767	,	-34086	,	-30926	,	5.2949996	,	0
45,25	,	64783	,	-34088	,	-30924	,	5.530642	,	0
45,25	,	64815	,	-34084	,	-30941	,	5.9864187	,	0
45,25	,	64830	,	-34114	,	-30952	,	6.459469	,	0
45,25	,	64847	,	-34088	,	-30934	,	6.5247045	,	0
45,25	,	64879	,	-34113	,	-30943	,	5.934066	,	0
45,25	,	64895	,	-34109	,	-30944	,	4.6731195	,	0
45,25	,	64926	,	-34120	,	-30940	,	2.756812	,	0
45,25	,	64943	,	-34108	,	-30945	,	0.33505917	,	0
45,25	,	64958	,	-34117	,	-30954	,	-2.2196262	,	0
45,25	,	64990	,	-34128	,	-30939	,	-4.5694633	,	0
45,25	,	65006	,	-34113	,	-30949	,	-6.5741897	,	0
45,25	,	65023	,	-34108	,	-30949	,	-8.025529	,	0
45,25	,	65054	,	-34129	,	-30952	,	-8.680914	,	0
45,25	,	65070	,	-34116	,	-30961	,	-8.629877	,	0
45,25	,	65103	,	-34131	,	-30939	,	-8.172583	,	0
45,25	,	65119	,	-34135	,	-30936	,	-7.607684	,	0
45,25	,	65134	,	-34128	,	-30946	,	-7.181697	,	0
45,25	,	65166	,	-34141	,	-30942	,	-6.9687223	,	0
45,25	,	65182	,	-34133	,	-30947	,	-6.9298677	,	0
45,25	,	65198	,	-34136	,	-30946	,	-6.9738197	,	0
45,25	,	65230	,	-34130	,	-30955	,	-6.927025	,	0
45,25	,	65246	,	-34133	,	-30944	,	-6.6259394	,	0
45,25	,	65262	,	-34133	,	-30948	,	-6.013139	,	0
45,25	,	65294	,	-34151	,	-30962	,	-5.2273884	,	0
45,25	,	65310	,	-34160	,	-30960	,	-4.6665964	,	0
45,25	,	65342	,	-34156	,	-30953	,	-4.7453766	,	0
45,25	,	65358	,	-34160	,	-30949	,	-5.525947	,	0
45,25	,	65374	,	-34144	,	-30938	,	-6.6663203	,	0
45,25	,	65406	,	-34118	,	-30940	,	-7.477573	,	0
45,25	,	65422	,	-34104	,	-30928	,	-7.045763	,	0
45,25	,	65438	,	-34098	,	-30934	,	-4.7157	,	0
45,25	,	65471	,	-34089	,	-30940	,	-0.5007653	,	2
45,25	,	65486	,	-34081	,	-30939	,	5.0358524	,	6
45,25	,	65518	,	-34081	,	-30933	,	11.090853	,	11
45,25	,	65534	,	-34081	,	-30927	,	16.787947	,	17
45,25	,	65550	,	-34093	,	-30945	,	21.273478	,	22
45,26	,	65582	,	-34084	,	-30928	,	23.890446	,	26
45,26	,	65598	,	-34081	,	-30937	,	24.44435	,	28
45,26	,	65614	,	-34084	,	-30924	,	23.22272	,	28
45,26	,	65646	,	-34082	,	-30916	,	20.70308	,	28
45,26	,	65662	,	-34082	,	-30916	,	17.376701	,	26
45,26	,	65678	,	-34073	,	-30917	,	13.755025	,	22
45,26	,	65710	,	-34069	,	-30912	,	10.368596	,	17
45,26	,	65726	,	-34066	,	-30920	,	7.67126	,	11
45,26	,	65758	,	-34072	,	-30912	,	5.8585753	,	6
45,26	,	65774	,	-34056	,	-30917	,	4.8701925	,	2
45,26	,	65790	,	-34046	,	-30922	,	4.676669	,	0
45,26	,	65822	,	-34050	,	-30919	,	5.3278375	,	0
45,26	,	65838	,	-34058	,	-30927	,	6.6082764	,	0
45,26	,	65854	,	-34061	,	-30919	,	7.954852	,	1
45,26	,	65886	,	-34063	,	-30922	,	8.792461	,	2
45,26	,	65902	,	-34063	,	-30911	,	8.811271	,	2
45,26	,	65934	,	-34073	,	-30920	,	7.955417	,	2
45,26	,	65950	,	-34070	,	-30927	,	6.298477	,	2
45,26	,	65966	,	-34062	,	-30922	,	4.092127	,	2
45,26	,	65998	,	-34073	,	-30918	,	1.7602711	,	2
45,26	,	66014	,	-34080	,	-30921	,	-0.41584897	,	2
45,26	,	66030	,	-34072	,	-30925	,	-2.3778987	,	2
45,26	,	66062	,	-34071	,	-30918	,	-4.0057774	,	1
45,26	,	66078	,	-34089	,	-30917	,	-5.1708	,	0
45,26	,	66094	,	-34084	,	-30920	,	-5.98934	,	0
45,26	,	66126	,	-34083	,	-30922	,	-6.6329255	,	0
45,26	,	66142	,	-34086	,	-30925	,	-7.0894547	,	0
45,26	,	66174	,	-34089	,	-30934	,	-7.30262	,	0
45,26	,	66190	,	-34102	,	-30933	,	-7.363106	,	0
45,26	,	66206	,	-34105	,	-30939	,	-7.5148954	,	0
45,26	,	66238	,	-34102	,	-30935	,	-7.935624	,	0
45,26	,	66254	,	-34100	,	-30935	,	-8.520327	,	0
45,26	,	66270	,	-34110	,	-30933	,	-9.025282	,	0
45,26	,	66302	,	-34097	,	-30936	,	-9.287838	,	0
45,26	,	66318	,	-34126	,	-30934	,	-9.290227	,	0
45,26	,	66350	,	-34108	,	-30941	,	-9.18952	,	0
45,26	,	66366	,	-34122	,	-30946	,	-9.129278	,	0
45,26	,	66382	,	-34134	,	-30942	,	-9.17773	,	0
45,26	,	66414	,	-34147	,	-30940	,	-9.554496	,	0
45,26	,	66430	,	-34135	,	-30939	,	-10.455546	,	0
45,26	,	66446	,	-34126	,	-30937	,	-11.629338	,	0
45,26	,	66478	,	-34118	,	-30933	,	-12.421022	,	0
45,26	,	66494	,	-34108	,	-30946	,	-12.1852045	,	0
45,26	,	66510	,	-34104	,	-30921	,	-10.570361	,	0
45,26	,	66542	,	-34094	,	-30933	,	-7.5783386	,	1
45,27	,	66558	,	-34078	,	-30936	,	-3.437868	,	3
45,27	,	66590	,	-34078	,	-30931	,	1.5318465	,	7
45,27	,	66606	,	-34076	,	-30939	,	6.847843	,	11
45,27	,	66622	,	-34071	,	-30933	,	11.876841	,	16
45,27	,	66654	,	-34084	,	-30922	,	15.99609	,	21
45,27	,	66670	,	-34077	,	-30933	,	18.678362	,	25
45,27	,	66686	,	-34088	,	-30927	,	19.618874	,	27
45,27	,	66718	,	-34077	,	-30930	,	18.852716	,	27
45,27	,	66734	,	-34072	,	-30937	,	16.780983	,	26
45,27	,	66766	,	-34080	,	-30914	,	14.014397	,	24
45,27	,	66782	,	-34084	,	-30932	,	11.012402	,	20
45,27	,	66798	,	-34075	,	-30927	,	8.0183525	,	16
45,27	,	66830	,	-34077	,	-30928	,	5.2771525	,	11
45,27	,	66846	,	-34073	,	-30928	,	3.0383945	,	6
45,27	,	66862	,	-34081	,	-30930	,	1.4134953	,	2
45,27	,	66893	,	-34086	,	-30936	,	0.2958603	,	0
45,27	,	66910	,	-34079	,	-30928	,	-0.53686774	,	0
45,27	,	66942	,	-34073	,	-30922	,	-1.1562152	,	0
45,27	,	66958	,	-34085	,	-30939	,	-1.4919938	,	0
45,27	,	66974	,	-34093	,	-30948	,	-1.644874	,	0
45,27	,	67006	,	-34091	,	-30934	,	-1.8985486	,	0
45,27	,	67022	,	-34096	,	-30933	,	-2.4300678	,	0
45,27	,	67037	,	-34101	,	-30925	,	-3.2427788	,	0
45,27	,	67070	,	-34113	,	-30932	,	-4.3330956	,	0
45,27	,	67086	,	-34100	,	-30928	,	-5.6835814	,	0
45,27	,	67101	,	-34115	,	-30937	,	-7.1216702	,	0
45,27	,	67133	,	-34117	,	-30944	,	-8.458216	,	0
45,27	,	67150	,	-34120	,	-30934	,	-9.647748	,	0
45,27	,	67182	,	-34125	,	-30936	,	-10.679364	,	0
45,27	,	67198	,	-34117	,	-30949	,	-11.470014	,	0
45,27	,	67214	,	-34126	,	-30959	,	-11.875281	,	0
45,27	,	67245	,	-34122	,	-30944	,	-11.809885	,	0
45,27	,	67262	,	-34119	,	-30939	,	-11.277785	,	0
45,27	,	67278	,	-34133	,	-30946	,	-10.347756	,	0
45,27	,	67310	,	-34133	,	-30949	,	-9.249252	,	0
45,27	,	67326	,	-34137	,	-30949	,	-8.28093	,	1
45,27	,	67357	,	-34135	,	-30944	,	-7.5914884	,	1
45,27	,	67374	,	-34143	,	-30951	,	-7.178908	,	1
45,27	,	67390	,	-34148	,	-30948	,	-7.036728	,	1
45,27	,	67421	,	-34162	,	-30947	,	-7.257	,	1
45,27	,	67437	,	-34145	,	-30957	,	-7.8991494	,	1
45,27	,	67453	,	-34171	,	-30975	,	-8.83428	,	1
45,27	,	67485	,	-34154	,	-30941	,	-9.870298	,	1
45,27	,	67501	,	-34133	,	-30937	,	-10.6533	,	1
45,27	,	67517	,	-34108	,	-30931	,	-10.418691	,	0
45,27	,	67549	,	-34102	,	-30938	,	-8.351799	,	0
45,28	,	67565	,	-34095	,	-30930	,	-4.212333	,	2
45,28	,	67598	,	-34092	,	-30928	,	1.5151567	,	6
45,28	,	67614	,	-34088	,	-30920	,	7.9280486	,	11
45,28	,	67630	,	-34077	,	-30925	,	14.112545	,	17
45,28	,	67661	,	-34080	,	-30930	,	19.38436	,	23
45,28	,	67677	,	-34079	,	-30932	,	23.267778	,	28
45,28	,	67693	,	-34072	,	-30948	,	25.480843	,	31
45,28	,	67725	,	-34085	,	-30914	,	25.978811	,	33
45,28	,	67741	,	-34085	,	-30922	,	24.83057	,	33
45,28	,	67773	,	-34072	,	-30928	,	22.25666	,	31
45,28	,	67790	,	-34073	,	-30918	,	18.800175	,	27
45,28	,	67805	,	-34072	,	-30922	,	15.12023	,	22
45,28	,	67837	,	-34058	,	-30920	,	11.749294	,	16
45,28	,	67853	,	-34074	,	-30919	,	9.046437	,	10
45,28	,	67869	,	-34066	,	-30913	,	7.067029	,	5
45,28	,	67901	,	-34051	,	-30919	,	5.720754	,	2
45,28	,	67917	,	-34061	,	-30911	,	5.0393853	,	0
45,28	,	67933	,	-34065	,	-30937	,	4.9344783	,	0
45,28	,	67966	,	-34076	,	-30903	,	4.993122	,	0
45,28	,	67981	,	-34078	,	-30911	,	4.7085505	,	0
45,28	,	68013	,	-34080	,	-30907	,	3.773005	,	0
45,28	,	68029	,	-34071	,	-30915	,	2.2381196	,	0
45,28	,	68045	,	-34065	,	-30904	,	0.4996009	,	0
45,28	,	68077	,	-34073	,	-30915	,	-0.9640831	,	0
45,28	,	68093	,	-34067	,	-30905	,	-1.8983707	,	0
45,28	,	68109	,	-34084	,	-30907	,	-2.3492455	,	0
45,28	,	68141	,	-34078	,	-30912	,	-2.5702186	,	0
45,28	,	68157	,	-34096	,	-30908	,	-2.8659406	,	0
45,28	,	68189	,	-34094	,	-30938	,	-3.4881728	,	0
45,28	,	68205	,	-34097	,	-30894	,	-4.543432	,	0
45,28	,	68221	,	-34091	,	-30927	,	-5.8731694	,	0
45,28	,	68253	,	-34100	,	-30922	,	-7.160145	,	0
45,28	,	68269	,	-34093	,	-30918	,	-8.147496	,	0
45,28	,	68285	,	-34097	,	-30923	,	-8.678807	,	0
45,28	,	68317	,	-34104	,	-30925	,	-8.719416	,	0
45,28	,	68333	,	-34100	,	-30928	,	-8.387072	,	0
45,28	,	68349	,	-34102	,	-30920	,	-7.816954	,	0
45,28	,	68381	,	-34104	,	-30923	,	-7.0893774	,	0
45,28	,	68397	,	-34098	,	-30927	,	-6.2641754	,	0
45,28	,	68429	,	-34098	,	-30945	,	-5.346918	,	0
45,28	,	68445	,	-34102	,	-30916	,	-4.3345585	,	0
45,28	,	68461	,	-34119	,	-30931	,	-3.3864763	,	1
45,28	,	68493	,	-34112	,	-30934	,	-2.8206532	,	1
45,28	,	68509	,	-34127	,	-30928	,	-2.8726187	,	1
45,28	,	68525	,	-34120	,	-30937	,	-3.568071	,	1
45,29	,	68557	,	-34129	,	-30940	,	-4.7526603	,	1
45,29	,	68573	,	-34119	,	-30933	,	-6.1351476	,	1
45,29	,	68605	,	-34104	,	-30930	,	-7.2707505	,	1
45,29	,	68621	,	-34089	,	-30914	,	-7.537712	,	1
45,29	,	68637	,	-34072	,	-30910	,	-6.32335	,	1
45,29	,	68669	,	-34061	,	-30938	,	-3.2958238	,	1
45,29	,	68685	,	-34055	,	-30892	,	1.4254882	,	4
45,29	,	68701	,	-34050	,	-30912	,	7.257352	,	8
45,29	,	68733	,	-34050	,	-30900	,	13.337807	,	13
45,29	,	68749	,	-34042	,	-30913	,	18.806143	,	19
45,29	,	68765	,	-34039	,	-30908	,	23.051895	,	24
45,29	,	68797	,	-34045	,	-30908	,	25.742655	,	28
45,29	,	68813	,	-34033	,	-30909	,	26.748613	,	30
45,29	,	68845	,	-34029	,	-30901	,	26.236061	,	31
45,29	,	68861	,	-34040	,	-30893	,	24.57988	,	30
45,29	,	68877	,	-34031	,	-30895	,	22.082245	,	27
45,29	,	68909	,	-34027	,	-30916	,	19.035904	,	23
45,29	,	68925	,	-34037	,	-30874	,	15.805989	,	18
45,29	,	68941	,	-34022	,	-30895	,	12.686708	,	12
45,29	,	68973	,	-34026	,	-30904	,	9.928537	,	7
45,29	,	68989	,	-34016	,	-30899	,	7.769411	,	3
45,29	,	69021	,	-34021	,	-30903	,	6.323655	,	1
45,29	,	69037	,	-34025	,	-30896	,	5.499297	,	0
45,29	,	69053	,	-34036	,	-30891	,	4.972316	,	0
45,29	,	69085	,	-34027	,	-30903	,	4.3525105	,	0
45,29	,	69101	,	-34035	,	-30894	,	3.4446285	,	0
45,29	,	69117	,	-34044	,	-30896	,	2.2144446	,	0
45,29	,	69149	,	-34053	,	-30918	,	0.58415675	,	0
45,29	,	69165	,	-34026	,	-30875	,	-1.3907199	,	0
45,29	,	69181	,	-34047	,	-30912	,	-3.3097467	,	0
45,29	,	69213	,	-34040	,	-30908	,	-4.78884	,	0
45,29	,	69229	,	-34039	,	-30902	,	-5.708303	,	0
45,29	,	69261	,	-34034	,	-30903	,	-6.0118876	,	0
45,29	,	69277	,	-34061	,	-30909	,	-5.782799	,	0
45,29	,	69293	,	-34043	,	-30914	,	-5.378394	,	0
45,29	,	69325	,	-34055	,	-30918	,	-5.098983	,	0
45,29	,	69340	,	-34055	,	-30910	,	-5.007395	,	0
45,29	,	69356	,	-34059	,	-30919	,	-5.111487	,	0
45,29	,	69389	,	-34069	,	-30954	,	-5.4478207	,	0
45,29	,	69405	,	-34068	,	-30902	,	-6.0643883	,	0
45,29	,	69436	,	-34069	,	-30926	,	-6.924036	,	0
45,29	,	69452	,	-34086	,	-30928	,	-7.9192963	,	0
45,29	,	69468	,	-34086	,	-30929	,	-9.051585	,	0
45,29	,	69501	,	-34083	,	-30936	,	-10.320244	,	0
45,29	,	69517	,	-34070	,	-30935	,	-11.447183	,	0
45,29	,	69533	,	-34095	,	-30927	,	-12.051987	,	0
45,30	,	69565	,	-34083	,	-30939	,	-12.060112	,	0
45,30	,	69581	,	-34090	,	-30922	,	-11.6198635	,	0
45,30	,	69612	,	-34098	,	-30928	,	-10.889719	,	0
45,30	,	69629	,	-34104	,	-30960	,	-10.118679	,	0
45,30	,	69645	,	-34115	,	-30914	,	-9.622517	,	0
45,30	,	69676	,	-34086	,	-30934	,	-9.493629	,	0
45,30	,	69692	,	-34063	,	-30937	,	-9.232004	,	0
45,30	,	69708	,	-34066	,	-30936	,	-7.970647	,	0
45,30	,	69741	,	-34058	,	-30925	,	-5.2730265	,	1
45,30	,	69757	,	-34043	,	-30919	,	-1.3189397	,	3
45,30	,	69773	,	-34042	,	-30925	,	3.4872432	,	6
45,30	,	69805	,	-34045	,	-30929	,	8.595873	,	10
45,30	,	69820	,	-34043	,	-30927	,	13.277118	,	15
45,30	,	69852	,	-34041	,	-30922	,	16.873528	,	19
45,30	,	69868	,	-34051	,	-30956	,	18.98754	,	22
45,30	,	69884	,	-34055	,	-30902	,	19.409872	,	24
45,30	,	69917	,	-34052	,	-30923	,	18.136011	,	24
45,30	,	69933	,	-34074	,	-30923	,	15.383305	,	23
45,30	,	69965	,	-34060	,	-30928	,	11.467926	,	21
45,30	,	69981	,	-34055	,	-30926	,	6.9299383	,	18
45,30	,	69997	,	-34057	,	-30921	,	2.5586905	,	14
45,30	,	70029	,	-34042	,	-30928	,	-0.938704	,	9
45,30	,	70044	,	-34049	,	-30926	,	-3.1176715	,	5
45,30	,	70060	,	-34049	,	-30915	,	-3.9010975	,	2
45,30	,	70092	,	-34042	,	-30927	,	-3.5596757	,	0
45,30	,	70108	,	-34046	,	-30944	,	-2.4507446	,	0
45,30	,	70140	,	-34054	,	-30906	,	-0.96528983	,	1
45,30	,	70157	,	-34058	,	-30934	,	0.40829313	,	2
45,30	,	70172	,	-34059	,	-30928	,	1.2470516	,	3
45,30	,	70204	,	-34058	,	-30921	,	1.3934193	,	3
45,30	,	70220	,	-34066	,	-30925	,	0.9211148	,	3
45,30	,	70236	,	-34073	,	-30934	,	-0.07270694	,	3
45,30	,	70268	,	-34071	,	-30935	,	-1.5249057	,	3
45,30	,	70284	,	-34063	,	-30930	,	-3.2251294	,	3
45,30	,	70300	,	-34052	,	-30942	,	-4.7079673	,	3
45,30	,	70332	,	-34080	,	-30920	,	-5.5722938	,	2
45,30	,	70348	,	-34082	,	-30938	,	-5.9419727	,	1
45,30	,	70380	,	-34091	,	-30937	,	-6.307397	,	0
45,30	,	70396	,	-34082	,	-30942	,	-6.9618974	,	0
45,30	,	70412	,	-34080	,	-30946	,	-7.7749796	,	0
45,30	,	70444	,	-34070	,	-30930	,	-8.339857	,	0
45,30	,	70461	,	-34096	,	-30933	,	-8.365795	,	0
45,30	,	70476	,	-34087	,	-30949	,	-7.9837737	,	0
45,30	,	70508	,	-34090	,	-30937	,	-7.490662	,	0
45,30	,	70524	,	-34110	,	-30940	,	-7.099139	,	0
45,31	,	70556	,	-34102	,	-30949	,	-7.047374	,	0
45,31	,	70572	,	-34116	,	-30921	,	-7.492944	,	0
45,31	,	70588	,	-34112	,	-30938	,	-8.384293	,	0
45,31	,	70620	,	-34123	,	-30936	,	-9.563774	,	0
45,31	,	70636	,	-34124	,	-30942	,	-10.861021	,	0
45,31	,	70652	,	-34105	,	-30950	,	-12.015034	,	0
45,31	,	70684	,	-34123	,	-30949	,	-12.633844	,	0
45,31	,	70700	,	-34125	,	-30947	,	-12.549423	,	0
45,31	,	70716	,	-34115	,	-30942	,	-11.916712	,	0
45,31	,	70748	,	-34098	,	-30961	,	-10.750114	,	0
45,31	,	70764	,	-34078	,	-30936	,	-8.710214	,	1
45,31	,	70796	,	-34082	,	-30949	,	-5.448747	,	3
45,31	,	70812	,	-34072	,	-30918	,	-1.0506849	,	6
45,31	,	70828	,	-34066	,	-30938	,	3.9916396	,	10
45,31	,	70860	,	-34059	,	-30928	,	9.115662	,	15
45,31	,	70876	,	-34057	,	-30940	,	13.829396	,	20
45,31	,	70892	,	-34068	,	-30930	,	17.644161	,	24
45,31	,	70924	,	-34056	,	-30937	,	20.105438	,	27
45,31	,	70940	,	-34053	,	-30930	,	21.06475	,	29
45,31	,	70972	,	-34047	,	-30923	,	20.776863	,	28
45,31	,	70988	,	-34071	,	-30926	,	19.539068	,	26
45,31	,	71004	,	-34045	,	-30922	,	17.485699	,	23
45,31	,	71036	,	-34048	,	-30959	,	14.904453	,	19
45,31	,	71052	,	-34052	,	-30912	,	12.260373	,	14
45,31	,	71068	,	-34051	,	-30917	,	9.812536	,	9
45,31	,	71100	,	-34052	,	-30917	,	7.6061254	,	5
45,31	,	71116	,	-34050	,	-30920	,	5.664335	,	2
45,31	,	71148	,	-34051	,	-30921	,	4.019332	,	0
45,31	,	71164	,	-34047	,	-30928	,	2.70481	,	0
45,31	,	71180	,	-34050	,	-30931	,	1.7459462	,	0
45,31	,	71212	,	-34049	,	-30921	,	1.1220784	,	0
45,31	,	71228	,	-34058	,	-30927	,	0.7199713	,	0
45,31	,	71244	,	-34058	,	-30918	,	0.3427155	,	0
45,31	,	71276	,	-34056	,	-30950	,	-0.15864414	,	0
45,31	,	71292	,	-34052	,	-30907	,	-0.75064814	,	0
45,31	,	71308	,	-34065	,	-30923	,	-1.3266971	,	0
45,31	,	71340	,	-34059	,	-30926	,	-1.8841558	,	0
45,31	,	71356	,	-34064	,	-30924	,	-2.4516568	,	0
45,31	,	71388	,	-34073	,	-30933	,	-3.043734	,	0
45,31	,	71404	,	-34090	,	-30937	,	-3.826266	,	0
45,31	,	71420	,	-34087	,	-30942	,	-5.070077	,	0
45,31	,	71452	,	-34079	,	-30925	,	-6.7714067	,	0
45,31	,	71468	,	-34095	,	-30939	,	-8.572599	,	0
45,31	,	71484	,	-34084	,	-30927	,	-10.118724	,	0
45,31	,	71516	,	-34102	,	-30960	,	-11.240476	,	0
45,31	,	71532	,	-34091	,	-30905	,	-11.911414	,	0
45,32	,	71564	,	-34094	,	-30923	,	-12.122	,	0
45,32	,	71580	,	-34082	,	-30931	,	-11.757018	,	0
45,32	,	71596	,	-34105	,	-30932	,	-10.7707	,	0
45,32	,	71628	,	-34101	,	-30932	,	-9.429058	,	0
45,32	,	71644	,	-34110	,	-30933	,	-8.162176	,	1
45,32	,	71660	,	-34110	,	-30948	,	-7.2735333	,	2
45,32	,	71691	,	-34108	,	-30939	,	-6.846559	,	2
45,32	,	71707	,	-34099	,	-30932	,	-6.710255	,	2
45,32	,	71724	,	-34111	,	-30936	,	-6.566044	,	2
45,32	,	71756	,	-34108	,	-30963	,	-6.271106	,	2
45,32	,	71772	,	-34117	,	-30920	,	-5.887428	,	2
45,32	,	71804	,	-34134	,	-30937	,	-5.6328096	,	2
45,32	,	71819	,	-34126	,	-30939	,	-5.8094645	,	2
45,32	,	71836	,	-34122	,	-30936	,	-6.464991	,	1
45,32	,	71868	,	-34079	,	-30919	,	-7.056678	,	0
45,32	,	71884	,	-34081	,	-30918	,	-6.604392	,	0
45,32	,	71900	,	-34072	,	-30926	,	-4.4156485	,	0
45,32	,	71932	,	-34052	,	-30925	,	-0.4984386	,	2
45,32	,	71948	,	-34059	,	-30920	,	4.705871	,	5
45,32	,	71979	,	-34054	,	-30910	,	10.46079	,	10
45,32	,	71996	,	-34046	,	-30940	,	15.884711	,	15
45,32	,	72012	,	-34055	,	-30900	,	20.269417	,	20
45,32	,	72044	,	-34042	,	-30913	,	23.165993	,	24
45,32	,	72060	,	-34053	,	-30906	,	24.397905	,	26
45,32	,	72076	,	-34053	,	-30910	,	23.987343	,	27
45,32	,	72107	,	-34054	,	-30905	,	22.065973	,	27
45,32	,	72123	,	-34040	,	-30901	,	19.01201	,	25
45,32	,	72139	,	-34044	,	-30897	,	15.46542	,	22
45,32	,	72172	,	-34031	,	-30897	,	12.073741	,	17
45,32	,	72188	,	-34038	,	-30895	,	9.288886	,	12
45,32	,	72219	,	-34021	,	-30897	,	7.3430595	,	7
45,32	,	72236	,	-34039	,	-30921	,	6.267351	,	3
45,32	,	72252	,	-34031	,	-30873	,	5.841102	,	1
45,32	,	72283	,	-34020	,	-30897	,	5.765643	,	0
45,32	,	72300	,	-34024	,	-30898	,	5.9350624	,	0
45,32	,	72316	,	-34026	,	-30908	,	6.2826962	,	0
45,32	,	72348	,	-34021	,	-30902	,	6.6228013	,	0
45,32	,	72363	,	-34027	,	-30895	,	6.7848268	,	0
45,32	,	72395	,	-34031	,	-30906	,	6.6383367	,	0
45,32	,	72411	,	-34041	,	-30901	,	6.016409	,	0
45,32	,	72427	,	-34024	,	-30915	,	4.8409815	,	0
45,32	,	72459	,	-34031	,	-30911	,	3.3244038	,	0
45,32	,	72476	,	-34038	,	-30931	,	1.780025	,	0
45,32	,	72492	,	-34038	,	-30886	,	0.31418324	,	0
45,32	,	72523	,	-34040	,	-30914	,	-1.082174	,	0
45,32	,	72540	,	-34053	,	-30903	,	-2.430545	,	0
45,32	,	72555	,	-34048	,	-30907	,	-3.8076072	,	0
45,33	,	72587	,	-34057	,	-30913	,	-5.2396684	,	0
45,33	,	72603	,	-34067	,	-30906	,	-6.69912	,	0
45,33	,	72635	,	-34066	,	-30913	,	-8.202639	,	0
45,33	,	72651	,	-34062	,	-30908	,	-9.66906	,	0
45,33	,	72667	,	-34066	,	-30903	,	-10.840033	,	0
45,33	,	72699	,	-34057	,	-30905	,	-11.450214	,	0
45,33	,	72715	,	-34070	,	-30937	,	-11.377113	,	0
45,33	,	72731	,	-34073	,	-30889	,	-10.7465725	,	0
45,33	,	72763	,	-34081	,	-30917	,	-9.903835	,	0
45,33	,	72779	,	-34081	,	-30909	,	-9.190741	,	0
45,33	,	72811	,	-34080	,	-30919	,	-8.751907	,	0
45,33	,	72827	,	-34096	,	-30915	,	-8.584814	,	0
45,33	,	72843	,	-34086	,	-30925	,	-8.687861	,	0
45,33	,	72875	,	-34096	,	-30920	,	-9.003107	,	0
45,33	,	72892	,	-34097	,	-30923	,	-9.4059	,	0
45,33	,	72907	,	-34114	,	-30926	,	-9.882984	,	0
45,33	,	72939	,	-34093	,	-30927	,	-10.462733	,	0
45,33	,	72955	,	-34085	,	-30952	,	-10.874504	,	0
45,33	,	72971	,	-34079	,	-30912	,	-10.572778	,	0
45,33	,	73003	,	-34050	,	-30921	,	-9.059025	,	0
45,33	,	73019	,	-34055	,	-30918	,	-6.0281153	,	1
45,33	,	73051	,	-34050	,	-30927	,	-1.6017227	,	4
45,33	,	73067	,	-34054	,	-30923	,	3.558104	,	8
45,33	,	73083	,	-34057	,	-30921	,	8.545388	,	13
45,33	,	73115	,	-34054	,	-30908	,	12.548636	,	17
45,33	,	73131	,	-34053	,	-30907	,	15.093526	,	21
45,33	,	73147	,	-34048	,	-30909	,	16.12392	,	23
45,33	,	73179	,	-34044	,	-30915	,	15.904588	,	24
45,33	,	73195	,	-34046	,	-30939	,	14.840557	,	24
45,33	,	73227	,	-34055	,	-30890	,	13.23765	,	23
45,33	,	73243	,	-34050	,	-30909	,	11.220999	,	20
45,33	,	73259	,	-34032	,	-30907	,	9.000792	,	16
45,33	,	73291	,	-34035	,	-30913	,	7.0390086	,	11
45,33	,	73307	,	-34029	,	-30913	,	5.751876	,	7
45,33	,	73323	,	-34027	,	-30916	,	5.262151	,	3
45,33	,	73355	,	-34034	,	-30915	,	5.425338	,	1
45,33	,	73371	,	-34044	,	-30904	,	5.8352146	,	0
45,33	,	73387	,	-34040	,	-30915	,	5.9795184	,	0
45,33	,	73419	,	-34038	,	-30918	,	5.588928	,	0
45,33	,	73435	,	-34036	,	-30940	,	4.743652	,	0
45,33	,	73467	,	-34037	,	-30897	,	3.6765056	,	0
45,33	,	73483	,	-34061	,	-30906	,	2.4762497	,	0
45,33	,	73499	,	-34053	,	-30925	,	0.9781475	,	0
45,33	,	73531	,	-34046	,	-30913	,	-0.8651478	,	0
45,33	,	73547	,	-34053	,	-30926	,	-2.7443595	,	0
45,34	,	73563	,	-34076	,	-30929	,	-4.436971	,	0
45,34	,	73595	,	-34064	,	-30922	,	-6.0692844	,	0
45,34	,	73611	,	-34073	,	-30920	,	-7.7307835	,	0
45,34	,	73643	,	-34071	,	-30919	,	-9.276276	,	0
45,34	,	73659	,	-34068	,	-30924	,	-10.479945	,	0
45,34	,	73675	,	-34083	,	-30946	,	-11.181098	,	0
45,34	,	73707	,	-34092	,	-30920	,	-11.482691	,	0
45,34	,	73723	,	-34096	,	-30917	,	-11.717279	,	0
45,34	,	73739	,	-34099	,	-30919	,	-12.12516	,	0
45,34	,	73771	,	-34104	,	-30924	,	-12.724636	,	0
45,34	,	73787	,	-34104	,	-30927	,	-13.404774	,	0
45,34	,	73803	,	-34095	,	-30928	,	-13.944044	,	0
45,34	,	73835	,	-34087	,	-30923	,	-13.971696	,	0
45,34	,	73851	,	-34088	,	-30921	,	-13.123949	,	0
45,34	,	73883	,	-34101	,	-30937	,	-11.3728075	,	0
45,34	,	73899	,	-34114	,	-30926	,	-9.191996	,	1
45,34	,	73915	,	-34121	,	-30952	,	-7.3260565	,	3
45,34	,	73947	,	-34118	,	-30928	,	-6.319124	,	4
45,34	,	73963	,	-34105	,	-30922	,	-6.171087	,	5
45,34	,	73979	,	-34087	,	-30918	,	-6.3127446	,	5
45,34	,	74011	,	-34071	,	-30917	,	-5.871155	,	5
45,34	,	74027	,	-34072	,	-30926	,	-4.1541004	,	5
45,34	,	74059	,	-34075	,	-30916	,	-1.1084027	,	6
45,34	,	74075	,	-34076	,	-30911	,	2.6784832	,	9
45,34	,	74091	,	-34067	,	-30917	,	6.4440885	,	11
45,34	,	74123	,	-34069	,	-30902	,	9.64869	,	12
45,34	,	74139	,	-34065	,	-30914	,	12.0092535	,	14
45,34	,	74155	,	-34049	,	-30931	,	13.489628	,	15
45,34	,	74187	,	-34057	,	-30897	,	14.28894	,	16
45,34	,	74203	,	-34064	,	-30903	,	14.535393	,	16
45,34	,	74235	,	-34069	,	-30906	,	14.088784	,	16
45,34	,	74251	,	-34048	,	-30909	,	12.873018	,	15
45,34	,	74267	,	-34069	,	-30910	,	11.12196	,	12
45,34	,	74298	,	-34062	,	-30907	,	9.084431	,	9
45,34	,	74314	,	-34049	,	-30909	,	6.9452	,	6
45,34	,	74331	,	-34041	,	-30906	,	5.1042147	,	3
45,34	,	74363	,	-34052	,	-30904	,	3.9744825	,	1
45,34	,	74379	,	-34038	,	-30906	,	3.617378	,	0
45,34	,	74395	,	-34057	,	-30926	,	3.8066843	,	0
45,34	,	74427	,	-34037	,	-30888	,	4.2261076	,	0
45,34	,	74443	,	-34034	,	-30901	,	4.713422	,	0
45,34	,	74474	,	-34060	,	-30906	,	5.203105	,	0
45,34	,	74490	,	-34049	,	-30903	,	5.3988385	,	0
45,34	,	74506	,	-34047	,	-30903	,	5.0357876	,	0
45,34	,	74539	,	-34065	,	-30899	,	4.136219	,	0
45,34	,	74555	,	-34054	,	-30903	,	2.761525	,	0
45,35	,	74571	,	-34056	,	-30905	,	1.0592115	,	0
45,35	,	74603	,	-34052	,	-30914	,	-0.63061905	,	0
45,35	,	74618	,	-34048	,	-30900	,	-1.9621327	,	0
45,35	,	74650	,	-34063	,	-30917	,	-2.7736466	,	0
45,35	,	74666	,	-34051	,	-30894	,	-3.1470113	,	0
45,35	,	74682	,	-34076	,	-30911	,	-3.3100238	,	0
45,35	,	74715	,	-34080	,	-30906	,	-3.6207724	,	0
45,35	,	74731	,	-34080	,	-30907	,	-4.4366193	,	0
45,35	,	74747	,	-34070	,	-30906	,	-5.736596	,	0
45,35	,	74779	,	-34074	,	-30903	,	-7.102544	,	0
45,35	,	74795	,	-34093	,	-30899	,	-8.189445	,	0
45,35	,	74811	,	-34086	,	-30907	,	-9.020208	,	0
45,35	,	74843	,	-34069	,	-30909	,	-9.614851	,	0
45,35	,	74858	,	-34084	,	-30912	,	-9.717897	,	0
45,35	,	74891	,	-34083	,	-30920	,	-9.198479	,	0
45,35	,	74907	,	-34085	,	-30897	,	-8.241015	,	0
45,35	,	74923	,	-34087	,	-30912	,	-7.095491	,	0
45,35	,	74954	,	-34090	,	-30904	,	-5.9705925	,	1
45,35	,	74970	,	-34092	,	-30914	,	-5.0364766	,	2
45,35	,	74987	,	-34095	,	-30912	,	-4.397846	,	2
45,35	,	75019	,	-34117	,	-30913	,	-4.189855	,	2
45,35	,	75035	,	-34122	,	-30916	,	-4.6919975	,	2
45,35	,	75066	,	-34116	,	-30915	,	-6.0688124	,	2
45,35	,	75082	,	-34102	,	-30916	,	-7.9635186	,	2
45,35	,	75098	,	-34082	,	-30915	,	-9.513913	,	2
45,35	,	75131	,	-34076	,	-30913	,	-9.770756	,	2
45,35	,	75147	,	-34067	,	-30900	,	-8.183354	,	1
45,35	,	75163	,	-34058	,	-30905	,	-4.780975	,	1
45,35	,	75194	,	-34047	,	-30902	,	0.018826962	,	4
45,35	,	75211	,	-34044	,	-30900	,	5.624302	,	8
45,35	,	75227	,	-34047	,	-30910	,	11.314043	,	13
45,35	,	75259	,	-34044	,	-30896	,	16.299618	,	18
45,35	,	75274	,	-34037	,	-30896	,	19.977547	,	22
45,35	,	75307	,	-34030	,	-30897	,	22.156096	,	25
45,35	,	75323	,	-34037	,	-30895	,	22.951479	,	27
45,35	,	75338	,	-34025	,	-30897	,	22.556538	,	27
45,35	,	75370	,	-34031	,	-30900	,	21.214586	,	26
45,35	,	75386	,	-34029	,	-30884	,	19.198814	,	23
45,35	,	75402	,	-34031	,	-30887	,	16.720976	,	19
45,35	,	75434	,	-34024	,	-30880	,	13.98606	,	14
45,35	,	75450	,	-34024	,	-30883	,	11.268816	,	9
45,35	,	75482	,	-34032	,	-30891	,	8.797579	,	5
45,35	,	75498	,	-34017	,	-30888	,	6.6771536	,	2
45,35	,	75514	,	-34022	,	-30887	,	5.016482	,	0
45,35	,	75546	,	-34026	,	-30896	,	3.875039	,	0
45,36	,	75562	,	-34029	,	-30889	,	3.102188	,	0
45,36	,	75578	,	-34036	,	-30889	,	2.4230335	,	0
45,36	,	75610	,	-34032	,	-30891	,	1.6177647	,	0
45,36	,	75626	,	-34038	,	-30889	,	0.6221709	,	0
45,36	,	75642	,	-34029	,	-30883	,	-0.47858858	,	0
45,36	,	75674	,	-34044	,	-30876	,	-1.5507537	,	0
45,36	,	75691	,	-34048	,	-30894	,	-2.5820951	,	0
45,36	,	75722	,	-34039	,	-30880	,	-3.639151	,	0
45,36	,	75738	,	-34044	,	-30898	,	-4.627879	,	0
45,36	,	75754	,	-34032	,	-30891	,	-5.3069806	,	0
45,36	,	75786	,	-34030	,	-30882	,	-5.4262443	,	0
45,36	,	75802	,	-34037	,	-30896	,	-4.865147	,	0
45,36	,	75818	,	-34043	,	-30897	,	-3.8110714	,	0
45,36	,	75850	,	-34052	,	-30879	,	-2.7144578	,	1
45,36	,	75866	,	-34041	,	-30885	,	-1.9783835	,	2
45,36	,	75898	,	-34065	,	-30886	,	-1.7842118	,	2
45,36	,	75914	,	-34056	,	-30897	,	-2.2216027	,	2
45,36	,	75930	,	-34057	,	-30890	,	-3.2445154	,	2
45,36	,	75962	,	-34061	,	-30895	,	-4.5687075	,	2
45,36	,	75978	,	-34060	,	-30893	,	-5.8747582	,	2
45,36	,	75994	,	-34073	,	-30900	,	-6.9909215	,	2
45,36	,	76026	,	-34105	,	-30913	,	-8.082172	,	2
45,36	,	76042	,	-34062	,	-30894	,	-9.46329	,	1
45,36	,	76058	,	-34079	,	-30917	,	-10.93017	,	0
45,36	,	76090	,	-34075	,	-30907	,	-11.911533	,	0
45,36	,	76106	,	-34082	,	-30903	,	-12.145549	,	0
45,36	,	76138	,	-34096	,	-30900	,	-11.78418	,	0
45,36	,	76154	,	-34107	,	-30906	,	-11.26741	,	0
45,36	,	76170	,	-34087	,	-30902	,	-10.9865265	,	0
45,36	,	76202	,	-34080	,	-30905	,	-10.816633	,	0
45,36	,	76218	,	-34076	,	-30894	,	-10.242497	,	0
45,36	,	76234	,	-34058	,	-30905	,	-8.806299	,	0
45,36	,	76266	,	-34064	,	-30899	,	-6.2988605	,	1
45,36	,	76282	,	-34052	,	-30896	,	-2.8434434	,	3
45,36	,	76314	,	-34041	,	-30915	,	1.2245965	,	6
45,36	,	76330	,	-34040	,	-30885	,	5.582632	,	10
45,36	,	76346	,	-34046	,	-30904	,	9.818714	,	14
45,36	,	76378	,	-34047	,	-30897	,	13.338832	,	18
45,36	,	76394	,	-34057	,	-30896	,	15.56396	,	21
45,36	,	76410	,	-34056	,	-30911	,	16.142647	,	23
45,36	,	76442	,	-34054	,	-30907	,	15.089704	,	23
45,36	,	76458	,	-34062	,	-30911	,	12.759796	,	22
45,36	,	76474	,	-34066	,	-30905	,	9.585261	,	20
45,36	,	76506	,	-34044	,	-30904	,	6.032796	,	17
45,36	,	76522	,	-34050	,	-30905	,	2.752254	,	13
45,36	,	76554	,	-34052	,	-30916	,	0.29982185	,	9
45,37	,	76570	,	-34036	,	-30892	,	-1.1187713	,	5
45,37	,	76586	,	-34052	,	-30905	,	-1.5119739	,	2
45,37	,	76618	,	-34049	,	-30890	,	-1.1202757	,	0
45,37	,	76634	,	-34049	,	-30903	,	-0.36942226	,	0
45,37	,	76650	,	-34064	,	-30911	,	0.34195793	,	0
45,37	,	76682	,	-34060	,	-30901	,	0.66466767	,	0
45,37	,	76698	,	-34062	,	-30909	,	0.40715325	,	0
45,37	,	76730	,	-34066	,	-30908	,	-0.36834794	,	0
45,37	,	76746	,	-34080	,	-30908	,	-1.5576798	,	0
45,37	,	76762	,	-34062	,	-30908	,	-3.0820987	,	0
45,37	,	76794	,	-34064	,	-30926	,	-4.6531186	,	0
45,37	,	76810	,	-34075	,	-30896	,	-5.887145	,	0
45,37	,	76826	,	-34072	,	-30905	,	-6.6650743	,	0
45,37	,	76858	,	-34067	,	-30901	,	-7.031357	,	0
45,37	,	76874	,	-34082	,	-30909	,	-7.02497	,	0
45,37	,	76890	,	-34083	,	-30905	,	-6.817064	,	0
45,37	,	76922	,	-34082	,	-30906	,	-6.646101	,	0
45,37	,	76938	,	-34084	,	-30910	,	-6.590694	,	0
45,37	,	76970	,	-34067	,	-30915	,	-6.510938	,	0
45,37	,	76986	,	-34094	,	-30912	,	-6.216136	,	0
45,37	,	77002	,	-34088	,	-30914	,	-5.780937	,	0
45,37	,	77034	,	-34094	,	-30927	,	-5.4723377	,	0
45,37	,	77050	,	-34090	,	-30895	,	-5.4002857	,	0
45,37	,	77066	,	-34091	,	-30916	,	-5.475881	,	0
45,37	,	77097	,	-34110	,	-30912	,	-5.6335135	,	0
45,37	,	77114	,	-34119	,	-30927	,	-6.059884	,	0
45,37	,	77146	,	-34104	,	-30922	,	-6.967696	,	0
45,37	,	77162	,	-34104	,	-30914	,	-8.135708	,	0
45,37	,	77178	,	-34114	,	-30922	,	-9.097737	,	0
45,37	,	77210	,	-34112	,	-30932	,	-9.630332	,	0
45,37	,	77226	,	-34105	,	-30927	,	-9.704795	,	0
45,37	,	77241	,	-34075	,	-30916	,	-9.105514	,	0
45,37	,	77273	,	-34076	,	-30929	,	-7.3753977	,	0
45,37	,	77290	,	-34063	,	-30898	,	-4.2405124	,	1
45,37	,	77306	,	-34069	,	-30910	,	0.065160275	,	4
45,37	,	77338	,	-34055	,	-30904	,	4.938254	,	8
45,37	,	77354	,	-34067	,	-30912	,	9.679685	,	12
45,37	,	77385	,	-34067	,	-30908	,	13.600124	,	16
45,37	,	77402	,	-34057	,	-30909	,	16.180925	,	19
45,37	,	77418	,	-34058	,	-30903	,	17.321737	,	21
45,37	,	77450	,	-34041	,	-30910	,	17.316101	,	22
45,37	,	77466	,	-34069	,	-30912	,	16.531284	,	22
45,37	,	77481	,	-34059	,	-30910	,	15.076211	,	21
45,37	,	77513	,	-34061	,	-30921	,	12.940065	,	18
45,37	,	77529	,	-34051	,	-30897	,	10.363783	,	14
45,38	,	77561	,	-34060	,	-30901	,	7.7614074	,	10
45,38	,	77577	,	-34047	,	-30911	,	5.4689264	,	6
45,38	,	77594	,	-34048	,	-30908	,	3.7275548	,	3
45,38	,	77625	,	-34046	,	-30911	,	2.6787155	,	1
45,38	,	77642	,	-34061	,	-30914	,	2.217799	,	0
45,38	,	77657	,	-34050	,	-30906	,	2.0169873	,	0
45,38	,	77689	,	-34036	,	-30903	,	1.9030232	,	0
45,38	,	77706	,	-34044	,	-30916	,	2.0160513	,	0
45,38	,	77737	,	-34045	,	-30922	,	2.4293025	,	0
45,38	,	77753	,	-34055	,	-30925	,	2.9119666	,	0
45,38	,	77769	,	-34052	,	-30903	,	3.1294057	,	0
45,38	,	77801	,	-34069	,	-30907	,	2.8208394	,	0
45,38	,	77817	,	-34067	,	-30910	,	1.8085563	,	0
45,38	,	77833	,	-34065	,	-30917	,	0.10821092	,	0
45,38	,	77865	,	-34065	,	-30921	,	-1.9655638	,	0
45,38	,	77882	,	-34056	,	-30915	,	-3.9328291	,	0
45,38	,	77898	,	-34067	,	-30916	,	-5.375267	,	0
45,38	,	77929	,	-34084	,	-30906	,	-6.2277403	,	0
45,38	,	77946	,	-34083	,	-30897	,	-6.838163	,	0
45,38	,	77977	,	-34081	,	-30908	,	-7.528284	,	0
45,38	,	77993	,	-34080	,	-30928	,	-8.265593	,	0
45,38	,	78009	,	-34082	,	-30902	,	-8.826544	,	0
45,38	,	78041	,	-34094	,	-30909	,	-9.102715	,	0
45,38	,	78058	,	-34091	,	-30915	,	-9.188654	,	0
45,38	,	78073	,	-34099	,	-30917	,	-9.221852	,	0
45,38	,	78105	,	-34089	,	-30905	,	-9.231938	,	0
45,38	,	78121	,	-34107	,	-30913	,	-9.179668	,	0
45,38	,	78153	,	-34095	,	-30908	,	-9.064287	,	0
45,38	,	78169	,	-34097	,	-30911	,	-8.8484	,	0
45,38	,	78185	,	-34094	,	-30908	,	-8.393509	,	0
45,38	,	78217	,	-34103	,	-30924	,	-7.64241	,	0
45,38	,	78233	,	-34106	,	-30938	,	-6.7456326	,	0
45,38	,	78249	,	-34107	,	-30900	,	-5.9434996	,	0
45,38	,	78281	,	-34100	,	-30924	,	-5.347679	,	0
45,38	,	78297	,	-34108	,	-30912	,	-4.8913302	,	0
45,38	,	78313	,	-34067	,	-30921	,	-4.3146586	,	0
45,38	,	78345	,	-34076	,	-30910	,	-3.1061993	,	0
45,38	,	78361	,	-34066	,	-30909	,	-0.8860023	,	1
45,38	,	78393	,	-34054	,	-30905	,	2.27308	,	3
45,38	,	78409	,	-34072	,	-30904	,	5.9793983	,	6
45,38	,	78425	,	-34054	,	-30906	,	9.620192	,	9
45,38	,	78457	,	-34062	,	-30903	,	12.61966	,	12
45,38	,	78473	,	-34056	,	-30918	,	14.670845	,	14
45,38	,	78489	,	-34058	,	-30880	,	15.656635	,	16
45,38	,	78521	,	-34053	,	-30902	,	15.619206	,	16
45,38	,	78537	,	-34045	,	-30886	,	14.793018	,	16
45,39	,	78569	,	-34039	,	-30901	,	13.575697	,	15
45,39	,	78585	,	-34052	,	-30894	,	12.30789	,	13
45,39	,	78601	,	-34048	,	-30899	,	11.035097	,	10
45,39	,	78633	,	-34044	,	-30889	,	9.665992	,	7
45,39	,	78649	,	-34029	,	-30890	,	8.312887	,	4
45,39	,	78665	,	-34036	,	-30890	,	7.2768135	,	2
45,39	,	78697	,	-34026	,	-30895	,	6.7480874	,	0
45,39	,	78713	,	-34033	,	-30926	,	6.6874	,	0
45,39	,	78729	,	-34021	,	-30868	,	6.9418087	,	0
45,39	,	78761	,	-34038	,	-30896	,	7.3108435	,	0
45,39	,	78777	,	-34028	,	-30894	,	7.5277452	,	0
45,39	,	78809	,	-34030	,	-30892	,	7.3916626	,	0
45,39	,	78825	,	-34038	,	-30887	,	6.857314	,	0
45,39	,	78841	,	-34026	,	-30893	,	5.9582686	,	0
45,39	,	78873	,	-34042	,	-30887	,	4.795129	,	0
45,39	,	78889	,	-34036	,	-30896	,	3.4591966	,	0
45,39	,	78905	,	-34039	,	-30889	,	2.0087311	,	0
45,39	,	78937	,	-34034	,	-30887	,	0.57977176	,	0
45,39	,	78953	,	-34035	,	-30900	,	-0.6370491	,	0
45,39	,	78985	,	-34036	,	-30872	,	-1.5016463	,	0
45,39	,	79001	,	-34052	,	-30895	,	-2.0556338	,	0
45,39	,	79017	,	-34056	,	-30892	,	-2.58702	,	0
45,39	,	79049	,	-34042	,	-30891	,	-3.342659	,	0
45,39	,	79065	,	-34051	,	-30891	,	-4.2173276	,	0
45,39	,	79081	,	-34054	,	-30887	,	-4.9783645	,	0
45,39	,	79113	,	-34054	,	-30892	,	-5.555371	,	0
45,39	,	79129	,	-34046	,	-30877	,	-5.9123144	,	0
45,39	,	79145	,	-34056	,	-30895	,	-5.9587135	,	0
45,39	,	79177	,	-34056	,	-30896	,	-5.7109914	,	0
45,39	,	79193	,	-34056	,	-30912	,	-5.3056536	,	0
45,39	,	79225	,	-34069	,	-30882	,	-4.9036303	,	0
45,39	,	79241	,	-34082	,	-30885	,	-4.776266	,	0
45,39	,	79257	,	-34078	,	-30883	,	-5.2343783	,	0
45,39	,	79289	,	-34079	,	-30897	,	-6.3009105	,	0
45,39	,	79305	,	-34074	,	-30893	,	-7.636242	,	0
45,39	,	79321	,	-34083	,	-30887	,	-8.815247	,	0
45,39	,	79353	,	-34081	,	-30894	,	-9.598108	,	0
45,39	,	79369	,	-34093	,	-30894	,	-9.980955	,	0
45,39	,	79401	,	-34094	,	-30903	,	-10.115009	,	0
45,39	,	79417	,	-34090	,	-30896	,	-10.139027	,	0
45,39	,	79433	,	-34102	,	-30928	,	-10.080402	,	0
45,39	,	79464	,	-34107	,	-30881	,	-10.007084	,	0
45,39	,	79481	,	-34091	,	-30899	,	-9.984026	,	0
45,39	,	79497	,	-34090	,	-30892	,	-9.805066	,	0
45,39	,	79529	,	-34083	,	-30890	,	-9.108051	,	0
45,39	,	79545	,	-34062	,	-30897	,	-7.5893264	,	0
45,40	,	79560	,	-34064	,	-30895	,	-5.026874	,	1
45,40	,	79593	,	-34059	,	-30890	,	-1.4732761	,	3
45,40	,	79609	,	-34039	,	-30888	,	2.7343018	,	6
45,40	,	79641	,	-34050	,	-30893	,	7.2211294	,	10
45,40	,	79657	,	-34055	,	-30892	,	11.466699	,	14
45,40	,	79673	,	-34051	,	-30914	,	14.781101	,	18
45,40	,	79705	,	-34034	,	-30866	,	16.782797	,	21
45,40	,	79721	,	-34047	,	-30886	,	17.5766	,	23
45,40	,	79736	,	-34035	,	-30884	,	17.399588	,	23
45,40	,	79769	,	-34045	,	-30882	,	16.439655	,	22
45,40	,	79785	,	-34049	,	-30884	,	14.832856	,	20
45,40	,	79816	,	-34052	,	-30881	,	12.6254225	,	17
45,40	,	79832	,	-34039	,	-30876	,	9.950123	,	13
45,40	,	79848	,	-34042	,	-30883	,	7.1835065	,	9
45,40	,	79880	,	-34044	,	-30891	,	4.7281957	,	5
45,40	,	79897	,	-34039	,	-30872	,	2.7867446	,	2
45,40	,	79912	,	-34035	,	-30901	,	1.4493876	,	0
45,40	,	79944	,	-34046	,	-30868	,	0.72844267	,	0
45,40	,	79960	,	-34041	,	-30893	,	0.45579684	,	0
45,40	,	79977	,	-34047	,	-30894	,	0.37729985	,	0
45,40	,	80009	,	-34046	,	-30898	,	0.29873055	,	0
45,40	,	80025	,	-34057	,	-30887	,	0.0700338	,	0
45,40	,	80056	,	-34054	,	-30889	,	-0.4434178	,	0
45,40	,	80072	,	-34055	,	-30882	,	-1.2718462	,	0
45,40	,	80088	,	-34047	,	-30891	,	-2.2458649	,	0
45,40	,	80121	,	-34057	,	-30890	,	-3.0991025	,	0
45,40	,	80137	,	-34068	,	-30888	,	-3.748859	,	0
45,40	,	80153	,	-34063	,	-30918	,	-4.3536825	,	0
45,40	,	80184	,	-34068	,	-30870	,	-5.035335	,	0
45,40	,	80200	,	-34072	,	-30904	,	-5.7732897	,	0
45,40	,	80232	,	-34079	,	-30894	,	-6.552945	,	0
45,40	,	80248	,	-34064	,	-30890	,	-7.3298225	,	0
45,40	,	80264	,	-34091	,	-30893	,	-7.98827	,	0
45,40	,	80296	,	-34088	,	-30883	,	-8.57035	,	0
45,40	,	80313	,	-34080	,	-30886	,	-9.186503	,	0
45,40	,	80329	,	-34087	,	-30893	,	-9.707497	,	0
45,40	,	80360	,	-34072	,	-30902	,	-9.869057	,	0
45,40	,	80376	,	-34082	,	-30876	,	-9.463057	,	0
45,40	,	80392	,	-34087	,	-30916	,	-8.491032	,	0
45,40	,	80424	,	-34088	,	-30867	,	-7.235035	,	0
45,40	,	80440	,	-34102	,	-30888	,	-6.0841517	,	1
45,40	,	80472	,	-34102	,	-30884	,	-5.393084	,	2
45,40	,	80489	,	-34106	,	-30895	,	-5.352341	,	2
45,40	,	80505	,	-34112	,	-30897	,	-5.921698	,	2
45,40	,	80537	,	-34119	,	-30893	,	-6.9744415	,	2
45,40	,	80552	,	-34137	,	-30896	,	-8.458021	,	2
45,41	,	80568	,	-34121	,	-30896	,	-10.322716	,	2
45,41	,	80600	,	-34118	,	-30904	,	-12.219706	,	2
45,41	,	80616	,	-34102	,	-30896	,	-13.469131	,	2
45,41	,	80648	,	-34087	,	-30925	,	-13.367828	,	1
45,41	,	80664	,	-34084	,	-30878	,	-11.471455	,	0
45,41	,	80680	,	-34078	,	-30892	,	-7.814459	,	1
45,41	,	80712	,	-34072	,	-30900	,	-2.8927054	,	4
45,41	,	80728	,	-34072	,	-30897	,	2.5843568	,	8
45,41	,	80744	,	-34072	,	-30890	,	7.8664975	,	13
45,41	,	80776	,	-34064	,	-30892	,	12.317787	,	18
45,41	,	80792	,	-34064	,	-30889	,	15.58249	,	22
45,41	,	80808	,	-34061	,	-30888	,	17.564579	,	25
45,41	,	80840	,	-34063	,	-30888	,	18.30339	,	26
45,41	,	80856	,	-34068	,	-30892	,	17.889011	,	26
45,41	,	80888	,	-34070	,	-30910	,	16.425081	,	25
45,41	,	80904	,	-34076	,	-30860	,	14.0519905	,	22
45,41	,	80920	,	-34064	,	-30887	,	11.027794	,	18
45,41	,	80952	,	-34046	,	-30884	,	7.8919888	,	13
45,41	,	80968	,	-34051	,	-30882	,	5.379093	,	8
45,41	,	80984	,	-34048	,	-30881	,	3.9407234	,	4
45,41	,	81016	,	-34056	,	-30883	,	3.5066009	,	1
45,41	,	81032	,	-34050	,	-30876	,	3.7027447	,	0
45,41	,	81064	,	-34056	,	-30874	,	4.1278934	,	0
45,41	,	81080	,	-34054	,	-30878	,	4.469713	,	0
45,41	,	81096	,	-34047	,	-30881	,	4.570065	,	0
45,41	,	81128	,	-34068	,	-30909	,	4.384092	,	0
45,41	,	81144	,	-34056	,	-30849	,	3.8165498	,	0
45,41	,	81160	,	-34072	,	-30894	,	2.7746606	,	0
45,41	,	81192	,	-34059	,	-30879	,	1.316046	,	0
45,41	,	81208	,	-34061	,	-30872	,	-0.31078863	,	0
45,41	,	81224	,	-34071	,	-30884	,	-1.802835	,	0
45,41	,	81256	,	-34070	,	-30893	,	-3.056585	,	0
45,41	,	81272	,	-34084	,	-30891	,	-4.1718645	,	0
45,41	,	81304	,	-34069	,	-30885	,	-5.244394	,	0
45,41	,	81320	,	-34074	,	-30893	,	-6.176347	,	0
45,41	,	81336	,	-34069	,	-30883	,	-6.730928	,	0
45,41	,	81368	,	-34074	,	-30902	,	-6.772175	,	0
45,41	,	81384	,	-34088	,	-30870	,	-6.4137516	,	0
45,41	,	81400	,	-34090	,	-30887	,	-6.013528	,	0
45,41	,	81432	,	-34081	,	-30887	,	-5.866435	,	0
45,41	,	81448	,	-34081	,	-30885	,	-5.9041643	,	0
45,41	,	81480	,	-34086	,	-30879	,	-5.883689	,	0
45,41	,	81496	,	-34109	,	-30898	,	-5.8123646	,	0
45,41	,	81512	,	-34104	,	-30893	,	-6.0149097	,	0
45,41	,	81544	,	-34092	,	-30894	,	-6.652742	,	0
45,42	,	81560	,	-34107	,	-30896	,	-7.471176	,	0
45,42	,	81576	,	-34091	,	-30893	,	-8.133699	,	0
45,42	,	81608	,	-34116	,	-30920	,	-8.481242	,	0
45,42	,	81624	,	-34108	,	-30872	,	-8.587766	,	0
45,42	,	81640	,	-34118	,	-30900	,	-8.646088	,	0
45,42	,	81672	,	-34117	,	-30905	,	-8.767975	,	0
45,42	,	81688	,	-34110	,	-30893	,	-8.922182	,	0
45,42	,	81720	,	-34106	,	-30900	,	-8.901394	,	0
45,42	,	81736	,	-34112	,	-30894	,	-8.459748	,	0
45,42	,	81752	,	-34094	,	-30885	,	-7.478529	,	0
45,42	,	81784	,	-34082	,	-30889	,	-5.8217573	,	0
45,42	,	81800	,	-34072	,	-30881	,	-3.267348	,	1
45,42	,	81816	,	-34068	,	-30877	,	0.24957967	,	3
45,42	,	81848	,	-34068	,	-30907	,	4.4428205	,	6
45,42	,	81864	,	-34061	,	-30856	,	8.763829	,	10
45,42	,	81896	,	-34056	,	-30870	,	12.677801	,	14
45,42	,	81912	,	-34052	,	-30867	,	15.849103	,	17
45,42	,	81928	,	-34055	,	-30872	,	18.090775	,	20
45,42	,	81960	,	-34064	,	-30876	,	19.216103	,	22
45,42	,	81976	,	-34054	,	-30859	,	19.06755	,	23
45,42	,	82008	,	-34066	,	-30869	,	17.691437	,	22
45,42	,	82024	,	-34047	,	-30870	,	15.383255	,	20
45,42	,	82040	,	-34043	,	-30876	,	12.685154	,	17
45,42	,	82072	,	-34032	,	-30864	,	10.276214	,	13
45,42	,	82088	,	-34036	,	-30887	,	8.647681	,	9
45,42	,	82104	,	-34036	,	-30842	,	7.8792644	,	6
45,42	,	82136	,	-34023	,	-30867	,	7.7781963	,	3
45,42	,	82152	,	-34050	,	-30876	,	8.050589	,	1
45,42	,	82184	,	-34030	,	-30870	,	8.281663	,	0
45,42	,	82200	,	-34031	,	-30861	,	8.195045	,	0
45,42	,	82215	,	-34041	,	-30864	,	7.801449	,	0
45,42	,	82247	,	-34031	,	-30873	,	7.1248636	,	0
45,42	,	82263	,	-34034	,	-30875	,	6.200529	,	0
45,42	,	82279	,	-34031	,	-30871	,	5.1673174	,	0
45,42	,	82312	,	-34032	,	-30849	,	4.158946	,	0
45,42	,	82328	,	-34041	,	-30857	,	3.2142758	,	0
45,42	,	82344	,	-34045	,	-30860	,	2.2329237	,	0
45,42	,	82376	,	-34048	,	-30868	,	1.0591819	,	0
45,42	,	82392	,	-34043	,	-30851	,	-0.32919645	,	0
45,42	,	82423	,	-34048	,	-30858	,	-1.7703937	,	0
45,42	,	82439	,	-34047	,	-30867	,	-3.067047	,	0
45,42	,	82455	,	-34053	,	-30861	,	-4.117706	,	0
45,42	,	82488	,	-34065	,	-30865	,	-4.9750633	,	0
45,42	,	82504	,	-34059	,	-30866	,	-5.799049	,	0
45,42	,	82520	,	-34064	,	-30888	,	-6.6490593	,	0
45,42	,	82552	,	-34070	,	-30836	,	-7.45912	,	0
45,43	,	82568	,	-34055	,	-30868	,	-8.121351	,	0
45,43	,	82599	,	-34053	,	-30864	,	-8.386608	,	0
45,43	,	82615	,	-34057	,	-30864	,	-7.985471	,	0
45,43	,	82631	,	-34075	,	-30866	,	-7.008097	,	0
45,43	,	82663	,	-34077	,	-30867	,	-5.952187	,	0
45,43	,	82679	,	-34069	,	-30864	,	-5.27649	,	1
45,43	,	82696	,	-34067	,	-30866	,	-5.010501	,	1
45,43	,	82728	,	-34078	,	-30865	,	-4.9377093	,	1
45,43	,	82743	,	-34095	,	-30871	,	-5.0486765	,	1
45,43	,	82759	,	-34085	,	-30893	,	-5.553652	,	1
45,43	,	82792	,	-34079	,	-30844	,	-6.4276047	,	1
45,43	,	82807	,	-34093	,	-30863	,	-7.336014	,	1
45,43	,	82839	,	-34105	,	-30872	,	-8.124094	,	1
45,43	,	82855	,	-34108	,	-30868	,	-8.968096	,	1
45,43	,	82872	,	-34109	,	-30867	,	-10.013608	,	0
45,43	,	82904	,	-34109	,	-30875	,	-11.157568	,	0
45,43	,	82920	,	-34085	,	-30878	,	-12.032102	,	0
45,43	,	82936	,	-34083	,	-30860	,	-12.046452	,	0
45,43	,	82968	,	-34068	,	-30871	,	-10.682324	,	0
45,43	,	82983	,	-34058	,	-30868	,	-7.7579417	,	1
45,43	,	83015	,	-34063	,	-30891	,	-3.471363	,	3
45,43	,	83032	,	-34058	,	-30840	,	1.5813031	,	7
45,43	,	83048	,	-34068	,	-30852	,	6.552148	,	12
45,43	,	83079	,	-34052	,	-30848	,	10.684148	,	16
45,43	,	83095	,	-34040	,	-30859	,	13.679132	,	20
45,43	,	83111	,	-34048	,	-30865	,	15.678249	,	22
45,43	,	83143	,	-34049	,	-30852	,	16.794285	,	23
45,43	,	83159	,	-34034	,	-30857	,	17.025879	,	24
45,43	,	83175	,	-34065	,	-30866	,	16.421173	,	23
45,43	,	83207	,	-34041	,	-30862	,	14.981789	,	21
45,43	,	83224	,	-34048	,	-30852	,	12.827894	,	17
45,43	,	83255	,	-34028	,	-30882	,	10.406968	,	12
45,43	,	83271	,	-34031	,	-30838	,	8.293377	,	8
45,43	,	83287	,	-34033	,	-30851	,	6.8615303	,	4
45,43	,	83319	,	-34030	,	-30846	,	6.1189246	,	2
45,43	,	83335	,	-34036	,	-30847	,	5.839088	,	1
45,43	,	83351	,	-34036	,	-30846	,	5.733407	,	0
45,43	,	83383	,	-34038	,	-30855	,	5.534457	,	0
45,43	,	83399	,	-34026	,	-30848	,	5.13677	,	0
45,43	,	83431	,	-34040	,	-30854	,	4.608079	,	0
45,43	,	83447	,	-34053	,	-30851	,	3.9042015	,	0
45,43	,	83463	,	-34021	,	-30852	,	2.9070628	,	0
45,43	,	83495	,	-34043	,	-30877	,	1.8032057	,	0
45,43	,	83511	,	-34045	,	-30841	,	0.82186556	,	0
45,43	,	83527	,	-34044	,	-30866	,	-0.09899318	,	0
45,44	,	83559	,	-34035	,	-30860	,	-0.9935279	,	0
45,44	,	83575	,	-34041	,	-30850	,	-1.700886	,	0
45,44	,	83607	,	-34051	,	-30855	,	-2.1432896	,	0
45,44	,	83623	,	-34050	,	-30854	,	-2.4768488	,	0
45,44	,	83639	,	-34044	,	-30855	,	-2.8483088	,	0
45,44	,	83671	,	-34049	,	-30855	,	-3.2058444	,	0
45,44	,	83687	,	-34056	,	-30869	,	-3.485509	,	0
45,44	,	83703	,	-34055	,	-30865	,	-3.750961	,	0
45,44	,	83735	,	-34056	,	-30893	,	-4.0627856	,	0
45,44	,	83751	,	-34065	,	-30844	,	-4.429549	,	0
45,44	,	83767	,	-34061	,	-30868	,	-4.8739266	,	0
45,44	,	83799	,	-34078	,	-30865	,	-5.4381638	,	0
45,44	,	83815	,	-34080	,	-30864	,	-6.227805	,	0
45,44	,	83847	,	-34073	,	-30864	,	-7.2972527	,	0
45,44	,	83863	,	-34080	,	-30865	,	-8.457724	,	0
45,44	,	83879	,	-34078	,	-30874	,	-9.431311	,	0
45,44	,	83911	,	-34094	,	-30867	,	-10.10845	,	0
45,44	,	83927	,	-34071	,	-30866	,	-10.488621	,	0
45,44	,	83943	,	-34086	,	-30874	,	-10.468046	,	0
45,44	,	83975	,	-34084	,	-30896	,	-9.957024	,	0
45,44	,	83991	,	-34082	,	-30858	,	-9.044142	,	0
45,44	,	84023	,	-34070	,	-30867	,	-7.792392	,	0
45,44	,	84039	,	-34060	,	-30863	,	-6.0821047	,	1
45,44	,	84055	,	-34057	,	-30862	,	-3.7474575	,	2
45,44	,	84087	,	-34050	,	-30864	,	-0.7924223	,	4
45,44	,	84103	,	-34039	,	-30863	,	2.6051552	,	6
45,44	,	84119	,	-34038	,	-30866	,	6.2243357	,	9
45,44	,	84151	,	-34032	,	-30855	,	9.79859	,	12
45,44	,	84167	,	-34028	,	-30859	,	13.023078	,	15
45,44	,	84183	,	-34016	,	-30864	,	15.686039	,	18
45,44	,	84215	,	-34022	,	-30881	,	17.702202	,	20
45,44	,	84231	,	-34034	,	-30838	,	18.90897	,	21
45,44	,	84263	,	-34031	,	-30862	,	18.996895	,	21
45,44	,	84279	,	-34021	,	-30853	,	17.857138	,	19
45,44	,	84295	,	-34024	,	-30844	,	15.79317	,	17
45,44	,	84327	,	-34011	,	-30859	,	13.311777	,	14
45,44	,	84343	,	-34007	,	-30858	,	10.948802	,	11
45,44	,	84359	,	-34006	,	-30849	,	9.147235	,	8
45,44	,	84391	,	-34005	,	-30848	,	8.07262	,	5
45,44	,	84407	,	-33999	,	-30852	,	7.6409216	,	3
45,44	,	84439	,	-34005	,	-30847	,	7.6604366	,	1
45,44	,	84455	,	-34004	,	-30878	,	7.849641	,	0
45,44	,	84471	,	-34031	,	-30837	,	7.780729	,	0
45,44	,	84503	,	-34017	,	-30847	,	6.9739904	,	0
45,44	,	84519	,	-34017	,	-30846	,	5.30169	,	0
45,44	,	84535	,	-34018	,	-30848	,	3.1228309	,	0
45,45	,	84567	,	-34020	,	-30850	,	0.8947127	,	0
45,45	,	84583	,	-34014	,	-30853	,	-1.0556655	,	0
45,45	,	84599	,	-34032	,	-30842	,	-2.5660043	,	0
45,45	,	84631	,	-34021	,	-30847	,	-3.6866012	,	0
45,45	,	84647	,	-34029	,	-30849	,	-4.521159	,	0
45,45	,	84678	,	-34027	,	-30846	,	-5.100373	,	0
45,45	,	84695	,	-34036	,	-30876	,	-5.47192	,	0
45,45	,	84711	,	-34021	,	-30831	,	-5.6811304	,	0
45,45	,	84743	,	-34037	,	-30851	,	-5.699435	,	0
45,45	,	84759	,	-34044	,	-30856	,	-5.5999613	,	0
45,45	,	84775	,	-34035	,	-30862	,	-5.583958	,	0
45,45	,	84807	,	-34031	,	-30865	,	-5.6506376	,	0
45,45	,	84822	,	-34043	,	-30870	,	-5.6110983	,	0
45,45	,	84854	,	-34046	,	-30866	,	-5.449519	,	0
45,45	,	84871	,	-34047	,	-30859	,	-5.329423	,	0
45,45	,	84887	,	-34037	,	-30865	,	-5.300677	,	0
45,45	,	84919	,	-34045	,	-30862	,	-5.2237635	,	0
45,45	,	84935	,	-34057	,	-30894	,	-5.045249	,	0
45,45	,	84951	,	-34079	,	-30842	,	-5.065703	,	0
45,45	,	84983	,	-34058	,	-30860	,	-5.679251	,	0
45,45	,	84998	,	-34062	,	-30871	,	-6.812072	,	0
45,45	,	85014	,	-34071	,	-30876	,	-8.022074	,	0
45,45	,	85046	,	-34067	,	-30861	,	-9.012437	,	0
45,45	,	85062	,	-34092	,	-30880	,	-9.766205	,	0
45,45	,	85094	,	-34077	,	-30882	,	-10.436632	,	0
45,45	,	85110	,	-34074	,	-30869	,	-11.027428	,	0
45,45	,	85127	,	-34080	,	-30865	,	-11.275828	,	0
45,45	,	85159	,	-34054	,	-30875	,	-10.894841	,	0
45,45	,	85175	,	-34047	,	-30886	,	-9.553659	,	0
45,45	,	85191	,	-34037	,	-30844	,	-6.9353604	,	1
45,45	,	85222	,	-34022	,	-30862	,	-3.0007615	,	3
45,45	,	85238	,	-34018	,	-30860	,	2.0007744	,	6
45,45	,	85270	,	-34005	,	-30859	,	7.6228504	,	11
45,45	,	85286	,	-33998	,	-30869	,	13.340658	,	16
45,45	,	85303	,	-33993	,	-30853	,	18.6688	,	21
45,45	,	85335	,	-34000	,	-30850	,	23.113914	,	26
45,45	,	85351	,	-33989	,	-30854	,	26.19227	,	30
45,45	,	85367	,	-33984	,	-30848	,	27.687347	,	33
45,45	,	85399	,	-33970	,	-30856	,	27.807037	,	33
45,45	,	85414	,	-33991	,	-30885	,	26.910395	,	31
45,45	,	85430	,	-33983	,	-30843	,	25.135181	,	28
45,45	,	85462	,	-33973	,	-30840	,	22.562487	,	23
45,45	,	85478	,	-33970	,	-30853	,	19.561352	,	18
45,45	,	85511	,	-33977	,	-30849	,	16.58155	,	13
45,45	,	85526	,	-33978	,	-30848	,	13.8003	,	8
45,45	,	85542	,	-33973	,	-30850	,	11.2038	,	4
45,46	,	85574	,	-33980	,	-30839	,	8.802664	,	1
45,46	,	85590	,	-33965	,	-30848	,	6.6774	,	0
45,46	,	85606	,	-33976	,	-30845	,	4.9536586	,	0
45,46	,	85638	,	-33958	,	-30842	,	3.7457294	,	0
45,46	,	85654	,	-33980	,	-30867	,	3.0644855	,	0
45,46	,	85686	,	-33971	,	-30837	,	2.717198	,	0
45,46	,	85702	,	-33952	,	-30846	,	2.5297294	,	0
45,46	,	85718	,	-33972	,	-30845	,	2.5830564	,	0
45,46	,	85750	,	-33979	,	-30849	,	2.8078823	,	0
45,46	,	85766	,	-33984	,	-30846	,	2.7754073	,	0
45,46	,	85782	,	-33981	,	-30845	,	2.145924	,	0
45,46	,	85814	,	-33970	,	-30850	,	1.0016497	,	0
45,46	,	85830	,	-33969	,	-30847	,	-0.23486578	,	0
45,46	,	85846	,	-33979	,	-30858	,	-1.1735328	,	0
45,46	,	85878	,	-33974	,	-30854	,	-1.7301753	,	0
45,46	,	85894	,	-33991	,	-30867	,	-2.066162	,	0
45,46	,	85926	,	-33992	,	-30838	,	-2.4701567	,	0
45,46	,	85942	,	-33994	,	-30847	,	-3.1877332	,	0
45,46	,	85958	,	-33988	,	-30848	,	-4.197919	,	0
45,46	,	85990	,	-33991	,	-30852	,	-5.237677	,	0
45,46	,	86006	,	-34000	,	-30861	,	-6.0771875	,	0
45,46	,	86022	,	-34010	,	-30851	,	-6.746409	,	0
45,46	,	86054	,	-34001	,	-30853	,	-7.4072266	,	0
45,46	,	86070	,	-33999	,	-30860	,	-8.016654	,	0
45,46	,	86102	,	-34007	,	-30854	,	-8.355264	,	0
45,46	,	86118	,	-34008	,	-30860	,	-8.346132	,	0
45,46	,	86134	,	-34027	,	-30874	,	-8.169245	,	0
45,46	,	86166	,	-34022	,	-30866	,	-8.14114	,	0
45,46	,	86182	,	-34031	,	-30876	,	-8.475011	,	0
45,46	,	86198	,	-34025	,	-30875	,	-9.135782	,	0
45,46	,	86230	,	-34046	,	-30868	,	-9.98511	,	0
45,46	,	86246	,	-34046	,	-30874	,	-10.996756	,	0
45,46	,	86278	,	-34043	,	-30871	,	-12.156838	,	0
45,46	,	86294	,	-34033	,	-30860	,	-13.192827	,	0
45,46	,	86310	,	-34013	,	-30883	,	-13.544489	,	0
45,46	,	86342	,	-34000	,	-30859	,	-12.548921	,	0
45,46	,	86358	,	-33996	,	-30870	,	-9.780386	,	0
45,46	,	86374	,	-33997	,	-30874	,	-5.387606	,	2
45,46	,	86406	,	-33992	,	-30857	,	-0.052141666	,	6
45,46	,	86422	,	-33980	,	-30859	,	5.434212	,	11
45,46	,	86438	,	-33980	,	-30857	,	10.502585	,	16
45,46	,	86470	,	-33973	,	-30848	,	14.783698	,	21
45,46	,	86486	,	-33985	,	-30857	,	17.959497	,	25
45,46	,	86518	,	-33978	,	-30858	,	19.73074	,	28
45,46	,	86534	,	-33974	,	-30846	,	20.004976	,	29
45,46	,	86550	,	-33985	,	-30849	,	18.978155	,	29
45,47	,	86582	,	-33986	,	-30855	,	16.891808	,	27
45,47	,	86598	,	-33968	,	-30868	,	14.044154	,	23
45,47	,	86614	,	-33981	,	-30857	,	10.94795	,	18
45,47	,	86646	,	-33980	,	-30848	,	8.043963	,	13
45,47	,	86662	,	-33975	,	-30849	,	5.5102196	,	8
45,47	,	86694	,	-33979	,	-30854	,	3.4446526	,	4
45,47	,	86710	,	-33967	,	-30851	,	1.9496517	,	1
45,47	,	86726	,	-33961	,	-30861	,	1.1560595	,	0
45,47	,	86758	,	-33961	,	-30862	,	1.1764121	,	0
45,47	,	86774	,	-33967	,	-30866	,	1.8969637	,	0
45,47	,	86790	,	-33967	,	-30852	,	2.9345903	,	0
45,47	,	86822	,	-33968	,	-30853	,	3.865408	,	1
45,47	,	86838	,	-33970	,	-30861	,	4.4219875	,	1
45,47	,	86854	,	-33980	,	-30860	,	4.45358	,	1
45,47	,	86886	,	-33973	,	-30857	,	3.873692	,	1
45,47	,	86902	,	-33987	,	-30859	,	2.7163436	,	1
45,47	,	86934	,	-33995	,	-30863	,	1.0402033	,	1
45,47	,	86950	,	-33999	,	-30861	,	-1.1555747	,	1
45,47	,	86966	,	-34008	,	-30856	,	-3.8045077	,	1
45,47	,	86998	,	-33986	,	-30865	,	-6.6113434	,	1
45,47	,	87014	,	-33998	,	-30864	,	-9.026603	,	0
45,47	,	87030	,	-33999	,	-30879	,	-10.585945	,	0
45,47	,	87062	,	-34003	,	-30871	,	-11.2233	,	0
45,47	,	87078	,	-34009	,	-30874	,	-11.15505	,	0
45,47	,	87109	,	-34001	,	-30872	,	-10.640471	,	0
45,47	,	87125	,	-34004	,	-30868	,	-9.815366	,	0
45,47	,	87142	,	-34009	,	-30867	,	-8.749839	,	0
45,47	,	87174	,	-34012	,	-30861	,	-7.6126366	,	1
45,47	,	87190	,	-34012	,	-30866	,	-6.610411	,	2
45,47	,	87206	,	-34026	,	-30859	,	-5.9019003	,	3
45,47	,	87237	,	-34017	,	-30872	,	-5.601737	,	3
45,47	,	87253	,	-34026	,	-30868	,	-5.696826	,	3
45,47	,	87270	,	-34036	,	-30869	,	-6.111596	,	3
45,47	,	87302	,	-34030	,	-30876	,	-6.82699	,	3
45,47	,	87318	,	-34036	,	-30881	,	-7.7388268	,	3
45,47	,	87349	,	-34033	,	-30885	,	-8.618669	,	3
45,47	,	87366	,	-34012	,	-30867	,	-9.144871	,	2
45,47	,	87382	,	-33992	,	-30875	,	-8.771635	,	1
45,47	,	87414	,	-33999	,	-30864	,	-6.957626	,	0
45,47	,	87429	,	-33989	,	-30864	,	-3.676897	,	1
45,47	,	87446	,	-33985	,	-30871	,	0.59403133	,	4
45,47	,	87478	,	-33978	,	-30864	,	5.2621756	,	8
45,47	,	87494	,	-33982	,	-30863	,	9.767372	,	12
45,47	,	87525	,	-33989	,	-30865	,	13.528664	,	16
45,47	,	87542	,	-33982	,	-30865	,	16.02231	,	19
45,48	,	87557	,	-33978	,	-30864	,	17.050615	,	21
45,48	,	87589	,	-33991	,	-30853	,	16.745176	,	22
45,48	,	87605	,	-33987	,	-30860	,	15.296064	,	22
45,48	,	87621	,	-33973	,	-30859	,	13.006246	,	21
45,48	,	87653	,	-33969	,	-30853	,	10.460611	,	18
45,48	,	87670	,	-33964	,	-30856	,	8.295397	,	14
45,48	,	87686	,	-33983	,	-30851	,	6.79338	,	10
45,48	,	87718	,	-33967	,	-30857	,	5.805852	,	6
45,48	,	87733	,	-33961	,	-30847	,	5.1556883	,	3
45,48	,	87765	,	-33972	,	-30849	,	4.8370557	,	1
45,48	,	87782	,	-33954	,	-30847	,	4.8102884	,	0
45,48	,	87797	,	-33969	,	-30861	,	4.985633	,	0
45,48	,	87829	,	-33958	,	-30847	,	5.2492743	,	0
45,48	,	87845	,	-33957	,	-30855	,	5.4891844	,	0
45,48	,	87862	,	-33957	,	-30848	,	5.685461	,	0
45,48	,	87893	,	-33979	,	-30840	,	5.7191873	,	0
45,48	,	87909	,	-33964	,	-30848	,	5.296385	,	0
45,48	,	87941	,	-33972	,	-30851	,	4.296315	,	0
45,48	,	87957	,	-33969	,	-30853	,	2.8944628	,	0
45,48	,	87973	,	-33971	,	-30849	,	1.3421798	,	0
45,48	,	88005	,	-33970	,	-30849	,	-0.14263153	,	0
45,48	,	88021	,	-33971	,	-30856	,	-1.3896626	,	0
45,48	,	88037	,	-33973	,	-30856	,	-2.3052187	,	0
45,48	,	88069	,	-33985	,	-30850	,	-2.942163	,	0
45,48	,	88085	,	-33988	,	-30844	,	-3.5323532	,	0
45,48	,	88101	,	-33997	,	-30849	,	-4.3469663	,	0
45,48	,	88134	,	-33989	,	-30859	,	-5.484398	,	0
45,48	,	88149	,	-33992	,	-30859	,	-6.765432	,	0
45,48	,	88181	,	-33998	,	-30852	,	-7.903186	,	0
45,48	,	88197	,	-34003	,	-30870	,	-8.774096	,	0
45,48	,	88213	,	-34011	,	-30863	,	-9.449888	,	0
45,48	,	88245	,	-34003	,	-30855	,	-10.016233	,	0
45,48	,	88261	,	-34007	,	-30860	,	-10.406752	,	0
45,48	,	88277	,	-34012	,	-30877	,	-10.497801	,	0
45,48	,	88309	,	-34020	,	-30853	,	-10.329387	,	0
45,48	,	88325	,	-34014	,	-30865	,	-10.054195	,	0
45,48	,	88357	,	-34029	,	-30863	,	-9.783529	,	0
45,48	,	88373	,	-34020	,	-30876	,	-9.588181	,	0
45,48	,	88389	,	-34035	,	-30864	,	-9.500053	,	0
45,48	,	88421	,	-34029	,	-30868	,	-9.518215	,	0
45,48	,	88437	,	-34023	,	-30859	,	-9.559687	,	0
45,48	,	88453	,	-34010	,	-30860	,	-9.327232	,	0
45,48	,	88485	,	-33987	,	-30854	,	-8.3146515	,	0
45,48	,	88501	,	-33982	,	-30857	,	-6.006245	,	1
45,48	,	88517	,	-33973	,	-30865	,	-2.2191405	,	3
45,48	,	88549	,	-33971	,	-30840	,	2.7223294	,	6
45,49	,	88565	,	-33976	,	-30852	,	8.107887	,	10
45,49	,	88597	,	-33959	,	-30849	,	13.130033	,	15
45,49	,	88613	,	-33948	,	-30842	,	17.304258	,	20
45,49	,	88629	,	-33939	,	-30838	,	20.597645	,	24
45,49	,	88661	,	-33951	,	-30838	,	23.056753	,	27
45,49	,	88677	,	-33946	,	-30835	,	24.503078	,	29
45,49	,	88693	,	-33947	,	-30835	,	24.703972	,	29
45,49	,	88725	,	-33941	,	-30843	,	23.661873	,	27
45,49	,	88741	,	-33939	,	-30845	,	21.646313	,	24
45,49	,	88773	,	-33928	,	-30841	,	19.097626	,	20
45,49	,	88789	,	-33938	,	-30817	,	16.462238	,	15
45,49	,	88805	,	-33927	,	-30837	,	14.008081	,	10
45,49	,	88837	,	-33929	,	-30828	,	11.859325	,	6
45,49	,	88853	,	-33923	,	-30818	,	10.105141	,	3
45,49	,	88869	,	-33918	,	-30822	,	8.81184	,	1
45,49	,	88901	,	-33919	,	-30823	,	8.009575	,	0
45,49	,	88917	,	-33910	,	-30814	,	7.6643662	,	0
45,49	,	88933	,	-33917	,	-30821	,	7.6764574	,	0
45,49	,	88965	,	-33919	,	-30822	,	7.838687	,	0
45,49	,	88981	,	-33916	,	-30817	,	7.868623	,	0
45,49	,	89013	,	-33912	,	-30824	,	7.6183014	,	0
45,49	,	89029	,	-33910	,	-30810	,	7.149847	,	0
45,49	,	89045	,	-33913	,	-30817	,	6.582762	,	0
45,49	,	89077	,	-33914	,	-30811	,	5.950431	,	0
45,49	,	89093	,	-33923	,	-30819	,	5.175274	,	0
45,49	,	89109	,	-33928	,	-30810	,	4.099554	,	0
45,49	,	89141	,	-33925	,	-30814	,	2.615942	,	0
45,49	,	89157	,	-33924	,	-30816	,	0.84195495	,	0
45,49	,	89189	,	-33918	,	-30817	,	-0.8997369	,	0
45,49	,	89205	,	-33924	,	-30826	,	-2.278462	,	0
45,49	,	89221	,	-33938	,	-30827	,	-3.2099814	,	0
45,49	,	89253	,	-33934	,	-30824	,	-3.9140348	,	0
45,49	,	89269	,	-33928	,	-30808	,	-4.574462	,	0
45,49	,	89285	,	-33919	,	-30819	,	-5.0553203	,	0
45,49	,	89317	,	-33940	,	-30826	,	-5.145433	,	0
45,49	,	89333	,	-33953	,	-30823	,	-5.017894	,	0
45,49	,	89349	,	-33952	,	-30828	,	-5.1643305	,	0
45,49	,	89381	,	-33935	,	-30822	,	-5.7839365	,	0
45,49	,	89397	,	-33950	,	-30833	,	-6.5759845	,	0
45,49	,	89429	,	-33951	,	-30832	,	-7.223772	,	0
45,49	,	89445	,	-33966	,	-30829	,	-7.7373676	,	0
45,49	,	89461	,	-33953	,	-30827	,	-8.254749	,	0
45,49	,	89493	,	-33957	,	-30849	,	-8.729691	,	0
45,49	,	89509	,	-33968	,	-30808	,	-9.016443	,	0
45,49	,	89525	,	-33971	,	-30837	,	-9.159668	,	0
45,50	,	89557	,	-33961	,	-30838	,	-9.2719	,	0
45,50	,	89573	,	-33971	,	-30840	,	-9.293362	,	0
45,50	,	89605	,	-33959	,	-30836	,	-9.082399	,	0
45,50	,	89621	,	-33953	,	-30835	,	-8.469477	,	0
45,50	,	89637	,	-33948	,	-30838	,	-7.2471237	,	0
45,50	,	89669	,	-33918	,	-30825	,	-5.191852	,	1
45,50	,	89685	,	-33920	,	-30828	,	-2.0604935	,	3
45,50	,	89701	,	-33906	,	-30840	,	2.1770246	,	6
45,50	,	89732	,	-33910	,	-30841	,	7.136729	,	10
45,50	,	89749	,	-33915	,	-30821	,	12.104898	,	14
45,50	,	89765	,	-33900	,	-30823	,	16.30978	,	18
45,50	,	89797	,	-33893	,	-30814	,	19.348223	,	22
45,50	,	89813	,	-33901	,	-30820	,	21.206362	,	25
45,50	,	89845	,	-33892	,	-30817	,	21.91558	,	26
45,50	,	89861	,	-33901	,	-30820	,	21.498665	,	25
45,50	,	89877	,	-33901	,	-30818	,	20.027252	,	23
45,50	,	89908	,	-33895	,	-30812	,	17.657331	,	20
45,50	,	89925	,	-33898	,	-30826	,	14.713318	,	16
45,50	,	89941	,	-33889	,	-30820	,	11.619962	,	12
45,50	,	89973	,	-33889	,	-30843	,	8.792231	,	8
45,50	,	89989	,	-33885	,	-30812	,	6.5506454	,	4
45,50	,	90021	,	-33906	,	-30818	,	4.9338617	,	1
45,50	,	90037	,	-33908	,	-30829	,	3.6037297	,	0
45,50	,	90053	,	-33893	,	-30812	,	2.2059853	,	0
45,50	,	90084	,	-33898	,	-30815	,	0.7916243	,	0
45,50	,	90100	,	-33891	,	-30815	,	-0.3487321	,	0
45,50	,	90117	,	-33903	,	-30827	,	-1.061028	,	0
45,50	,	90149	,	-33900	,	-30814	,	-1.4280883	,	0
45,50	,	90165	,	-33884	,	-30826	,	-1.545763	,	0
45,50	,	90180	,	-33896	,	-30837	,	-1.3335065	,	0
45,50	,	90213	,	-33913	,	-30840	,	-0.8644184	,	0
45,50	,	90229	,	-33902	,	-30804	,	-0.53603774	,	0
45,50	,	90260	,	-33922	,	-30825	,	-0.6896552	,	0
45,50	,	90276	,	-33908	,	-30827	,	-1.4161036	,	0
45,50	,	90293	,	-33911	,	-30829	,	-2.5455906	,	0
45,50	,	90325	,	-33912	,	-30790	,	-3.7216547	,	0
45,50	,	90341	,	-33924	,	-30837	,	-4.7191806	,	0
45,50	,	90356	,	-33926	,	-30840	,	-5.589113	,	0
45,50	,	90388	,	-33919	,	-30837	,	-6.421145	,	0
45,50	,	90404	,	-33950	,	-30839	,	-7.248192	,	0
45,50	,	90437	,	-33915	,	-30841	,	-8.120338	,	0
45,50	,	90452	,	-33912	,	-30857	,	-8.7858715	,	0
45,50	,	90468	,	-33932	,	-30821	,	-8.778355	,	0
45,50	,	90501	,	-33939	,	-30841	,	-8.137825	,	0
45,50	,	90517	,	-33942	,	-30844	,	-7.38844	,	0
45,50	,	90532	,	-33954	,	-30847	,	-6.996358	,	0
45,51	,	90564	,	-33947	,	-30848	,	-7.172991	,	0
45,51	,	90580	,	-33952	,	-30853	,	-7.836651	,	0
45,51	,	90612	,	-33957	,	-30837	,	-8.726801	,	0
45,51	,	90629	,	-33957	,	-30844	,	-9.622391	,	0
45,51	,	90644	,	-33932	,	-30843	,	-10.241092	,	0
45,51	,	90676	,	-33928	,	-30847	,	-10.062475	,	0
45,51	,	90692	,	-33926	,	-30849	,	-8.630986	,	0
45,51	,	90709	,	-33908	,	-30824	,	-5.8834543	,	1
45,51	,	90740	,	-33899	,	-30835	,	-1.9888535	,	3
45,51	,	90756	,	-33892	,	-30828	,	2.795189	,	6
45,51	,	90772	,	-33896	,	-30824	,	7.9964547	,	10
45,51	,	90804	,	-33885	,	-30824	,	12.959172	,	15
45,51	,	90820	,	-33882	,	-30832	,	17.130344	,	19
45,51	,	90852	,	-33877	,	-30822	,	20.220436	,	23
45,51	,	90868	,	-33899	,	-30821	,	22.022846	,	26
45,51	,	90884	,	-33897	,	-30830	,	22.23737	,	27
45,51	,	90916	,	-33896	,	-30831	,	20.710709	,	26
45,51	,	90932	,	-33905	,	-30855	,	17.679747	,	24
45,51	,	90948	,	-33890	,	-30805	,	13.661468	,	21
45,51	,	90980	,	-33882	,	-30823	,	9.395682	,	17
45,51	,	90996	,	-33881	,	-30829	,	5.711648	,	12
45,51	,	91028	,	-33875	,	-30814	,	3.1717677	,	8
45,51	,	91044	,	-33874	,	-30814	,	1.9441538	,	4
45,51	,	91061	,	-33870	,	-30829	,	1.9081123	,	1
45,51	,	91092	,	-33866	,	-30821	,	2.7795706	,	0
45,51	,	91108	,	-33875	,	-30831	,	4.17595	,	0
45,51	,	91124	,	-33869	,	-30823	,	5.641937	,	1
45,51	,	91156	,	-33874	,	-30825	,	6.781456	,	2
45,51	,	91172	,	-33877	,	-30855	,	7.347853	,	3
45,51	,	91188	,	-33874	,	-30810	,	7.231374	,	3
45,51	,	91220	,	-33877	,	-30835	,	6.483999	,	3
45,51	,	91236	,	-33889	,	-30826	,	5.22406	,	3
45,51	,	91268	,	-33894	,	-30826	,	3.4709136	,	3
45,51	,	91284	,	-33880	,	-30825	,	1.2895205	,	3
45,51	,	91300	,	-33878	,	-30823	,	-0.94883513	,	3
45,51	,	91332	,	-33886	,	-30823	,	-2.7607586	,	2
45,51	,	91348	,	-33894	,	-30831	,	-3.9799664	,	1
45,51	,	91364	,	-33885	,	-30836	,	-4.741165	,	0
45,51	,	91396	,	-33888	,	-30831	,	-5.142346	,	0
45,51	,	91412	,	-33901	,	-30856	,	-5.2415285	,	0
45,51	,	91444	,	-33902	,	-30818	,	-5.2590337	,	0
45,51	,	91460	,	-33895	,	-30834	,	-5.402391	,	0
45,51	,	91476	,	-33920	,	-30844	,	-5.7180595	,	0
45,51	,	91508	,	-33922	,	-30843	,	-6.341752	,	0
45,51	,	91524	,	-33919	,	-30845	,	-7.4335165	,	0
45,51	,	91540	,	-33930	,	-30840	,	-8.886368	,	0
45,52	,	91572	,	-33921	,	-30846	,	-10.419628	,	0
45,52	,	91588	,	-33924	,	-30848	,	-11.704905	,	0
45,52	,	91604	,	-33923	,	-30838	,	-12.427155	,	0
45,52	,	91636	,	-33923	,	-30847	,	-12.426557	,	0
45,52	,	91652	,	-33930	,	-30869	,	-11.749245	,	0
45,52	,	91684	,	-33948	,	-30822	,	-10.698406	,	0
45,52	,	91700	,	-33926	,	-30843	,	-9.684366	,	1
45,52	,	91716	,	-33930	,	-30846	,	-8.798081	,	2
45,52	,	91748	,	-33936	,	-30848	,	-7.8647046	,	2
45,52	,	91764	,	-33928	,	-30850	,	-6.826009	,	2
45,52	,	91780	,	-33909	,	-30837	,	-5.6078753	,	3
45,52	,	91812	,	-33902	,	-30829	,	-3.8921192	,	4
45,52	,	91828	,	-33888	,	-30833	,	-1.3361049	,	5
45,52	,	91860	,	-33877	,	-30848	,	2.182481	,	7
45,52	,	91876	,	-33867	,	-30828	,	6.5520554	,	10
45,52	,	91892	,	-33865	,	-30851	,	11.439072	,	13
45,52	,	91924	,	-33863	,	-30809	,	16.29388	,	16
45,52	,	91940	,	-33859	,	-30826	,	20.4897	,	20
45,52	,	91956	,	-33847	,	-30823	,	23.587421	,	24
45,52	,	91988	,	-33847	,	-30816	,	25.470669	,	26
45,52	,	92004	,	-33849	,	-30819	,	26.17473	,	26
45,52	,	92020	,	-33854	,	-30818	,	25.682568	,	25
45,52	,	92052	,	-33862	,	-30823	,	23.93396	,	23
45,52	,	92068	,	-33849	,	-30816	,	21.012669	,	20
45,52	,	92100	,	-33850	,	-30824	,	17.322746	,	16
45,52	,	92116	,	-33841	,	-30811	,	13.479934	,	12
45,52	,	92132	,	-33833	,	-30839	,	10.08976	,	8
45,52	,	92164	,	-33827	,	-30792	,	7.640254	,	4
45,52	,	92180	,	-33831	,	-30810	,	6.3502336	,	1
45,52	,	92196	,	-33833	,	-30806	,	6.0430527	,	0
45,52	,	92228	,	-33826	,	-30809	,	6.303953	,	0
45,52	,	92244	,	-33824	,	-30810	,	6.7927213	,	0
45,52	,	92276	,	-33838	,	-30815	,	7.2658997	,	0
45,52	,	92292	,	-33834	,	-30809	,	7.4231067	,	0
45,52	,	92308	,	-33833	,	-30810	,	7.0459366	,	0
45,52	,	92340	,	-33842	,	-30802	,	6.127638	,	0
45,52	,	92356	,	-33833	,	-30811	,	4.764655	,	0
45,52	,	92372	,	-33847	,	-30843	,	3.10028	,	0
45,52	,	92404	,	-33838	,	-30804	,	1.2906725	,	0
45,52	,	92420	,	-33850	,	-30820	,	-0.5247021	,	0
45,52	,	92436	,	-33845	,	-30821	,	-2.2250082	,	0
45,52	,	92468	,	-33848	,	-30810	,	-3.7046819	,	0
45,52	,	92484	,	-33848	,	-30811	,	-4.855217	,	0
45,52	,	92516	,	-33852	,	-30819	,	-5.6173925	,	0
45,52	,	92532	,	-33857	,	-30819	,	-6.0427933	,	0
45,52	,	92548	,	-33841	,	-30825	,	-6.1898985	,	0
45,53	,	92579	,	-33849	,	-30819	,	-5.978553	,	0
45,53	,	92595	,	-33842	,	-30812	,	-5.315044	,	0
45,53	,	92611	,	-33864	,	-30846	,	-4.338579	,	0
45,53	,	92644	,	-33861	,	-30796	,	-3.4462492	,	0
45,53	,	92660	,	-33867	,	-30837	,	-3.0285602	,	0
45,53	,	92692	,	-33878	,	-30827	,	-3.2664273	,	0
45,53	,	92708	,	-33873	,	-30825	,	-4.1692033	,	0
45,53	,	92723	,	-33883	,	-30829	,	-5.5827456	,	0
45,53	,	92755	,	-33883	,	-30835	,	-7.255814	,	0
45,53	,	92771	,	-33888	,	-30831	,	-8.955311	,	0
45,53	,	92787	,	-33884	,	-30834	,	-10.450334	,	0
45,53	,	92819	,	-33899	,	-30831	,	-11.565383	,	0
45,53	,	92835	,	-33897	,	-30839	,	-12.296575	,	0
45,53	,	92852	,	-33904	,	-30859	,	-12.740575	,	0
45,53	,	92884	,	-33917	,	-30827	,	-13.02593	,	0
45,53	,	92899	,	-33901	,	-30839	,	-13.267685	,	0
45,53	,	92931	,	-33888	,	-30826	,	-13.279783	,	0
45,53	,	92947	,	-33871	,	-30833	,	-12.49632	,	0
45,53	,	92964	,	-33882	,	-30825	,	-10.4439125	,	0
45,53	,	92996	,	-33859	,	-30817	,	-7.120633	,	2
45,53	,	93011	,	-33840	,	-30823	,	-2.7275763	,	5
45,53	,	93028	,	-33853	,	-30820	,	2.523076	,	9
45,53	,	93059	,	-33854	,	-30823	,	8.049695	,	14
45,53	,	93075	,	-33844	,	-30835	,	12.977562	,	19
45,53	,	93107	,	-33832	,	-30852	,	16.764683	,	23
45,53	,	93123	,	-33839	,	-30806	,	19.337395	,	26
45,53	,	93139	,	-33856	,	-30815	,	20.629375	,	28
45,53	,	93171	,	-33853	,	-30818	,	20.381758	,	29
45,53	,	93187	,	-33849	,	-30819	,	18.526257	,	27
45,53	,	93203	,	-33850	,	-30823	,	15.442945	,	24
45,53	,	93236	,	-33843	,	-30816	,	11.763032	,	20
45,53	,	93252	,	-33835	,	-30817	,	8.163256	,	15
45,53	,	93268	,	-33851	,	-30817	,	5.163284	,	10
45,53	,	93299	,	-33845	,	-30813	,	2.89369	,	6
45,53	,	93315	,	-33836	,	-30813	,	1.280153	,	3
45,53	,	93347	,	-33844	,	-30849	,	0.32056093	,	1
45,53	,	93363	,	-33845	,	-30803	,	-0.05765152	,	0
45,53	,	93379	,	-33852	,	-30824	,	-0.11705917	,	0
45,53	,	93411	,	-33846	,	-30830	,	-0.145517	,	0
45,53	,	93427	,	-33863	,	-30837	,	-0.34482336	,	0
45,53	,	93443	,	-33849	,	-30822	,	-0.83271986	,	0
45,53	,	93475	,	-33862	,	-30830	,	-1.5892006	,	0
45,53	,	93491	,	-33867	,	-30830	,	-2.5426521	,	0
45,53	,	93523	,	-33870	,	-30833	,	-3.7111123	,	0
45,53	,	93540	,	-33874	,	-30831	,	-5.096582	,	0
45,54	,	93555	,	-33862	,	-30834	,	-6.5315447	,	0
45,54	,	93587	,	-33884	,	-30854	,	-7.7604055	,	0
45,54	,	93603	,	-33872	,	-30816	,	-8.667612	,	0
45,54	,	93619	,	-33870	,	-30821	,	-9.20294	,	0
45,54	,	93651	,	-33882	,	-30830	,	-9.276239	,	0
45,54	,	93667	,	-33880	,	-30840	,	-8.958365	,	0
45,54	,	93683	,	-33889	,	-30837	,	-8.479666	,	0
45,54	,	93715	,	-33887	,	-30833	,	-8.047787	,	0
45,54	,	93731	,	-33883	,	-30833	,	-7.7294416	,	0
45,54	,	93763	,	-33890	,	-30835	,	-7.4383097	,	0
45,54	,	93779	,	-33897	,	-30836	,	-7.1353283	,	0
45,54	,	93795	,	-33900	,	-30857	,	-6.9395514	,	0
45,54	,	93827	,	-33904	,	-30877	,	-6.985654	,	0
45,54	,	93843	,	-33900	,	-30839	,	-7.276965	,	0
45,54	,	93859	,	-33913	,	-30852	,	-7.712489	,	0
45,54	,	93891	,	-33915	,	-30845	,	-8.24999	,	0
45,54	,	93907	,	-33919	,	-30845	,	-8.921189	,	0
45,54	,	93939	,	-33922	,	-30853	,	-9.701242	,	0
45,54	,	93955	,	-33913	,	-30851	,	-10.442959	,	0
45,54	,	93971	,	-33905	,	-30846	,	-10.831831	,	0
45,54	,	94003	,	-33903	,	-30841	,	-10.48338	,	0
45,54	,	94019	,	-33881	,	-30843	,	-9.109962	,	0
45,54	,	94051	,	-33880	,	-30846	,	-6.5372624	,	1
45,54	,	94067	,	-33881	,	-30865	,	-2.8500228	,	3
45,54	,	94083	,	-33868	,	-30836	,	1.5101161	,	6
45,54	,	94115	,	-33857	,	-30829	,	6.063592	,	10
45,54	,	94131	,	-33855	,	-30823	,	10.501453	,	14
45,54	,	94147	,	-33862	,	-30832	,	14.483416	,	18
45,54	,	94179	,	-33867	,	-30841	,	17.494858	,	21
45,54	,	94195	,	-33882	,	-30833	,	18.973236	,	24
45,54	,	94227	,	-33867	,	-30834	,	18.598892	,	25
45,54	,	94243	,	-33871	,	-30833	,	16.574614	,	24
45,54	,	94259	,	-33863	,	-30827	,	13.53621	,	22
45,54	,	94291	,	-33847	,	-30828	,	10.276136	,	19
45,54	,	94307	,	-33859	,	-30840	,	7.5192256	,	15
45,54	,	94323	,	-33854	,	-30820	,	5.6003103	,	11
45,54	,	94355	,	-33842	,	-30820	,	4.498804	,	7
45,54	,	94371	,	-33846	,	-30828	,	4.165427	,	4
45,54	,	94387	,	-33843	,	-30827	,	4.489653	,	1
45,54	,	94419	,	-33838	,	-30823	,	5.232102	,	0
45,54	,	94435	,	-33849	,	-30810	,	6.1143947	,	0
45,54	,	94467	,	-33843	,	-30827	,	6.823739	,	0
45,54	,	94483	,	-33844	,	-30821	,	7.1177654	,	0
45,54	,	94499	,	-33853	,	-30846	,	6.903039	,	0
45,54	,	94531	,	-33858	,	-30800	,	6.107041	,	0
45,54	,	94547	,	-33850	,	-30829	,	4.711904	,	0
45,55	,	94563	,	-33855	,	-30826	,	2.9127421	,	0
45,55	,	94595	,	-33849	,	-30819	,	1.0422995	,	0
45,55	,	94611	,	-33845	,	-30831	,	-0.5686774	,	0
45,55	,	94643	,	-33847	,	-30820	,	-1.6557387	,	0
45,55	,	94659	,	-33862	,	-30834	,	-2.1913435	,	0
45,55	,	94675	,	-33866	,	-30829	,	-2.4846141	,	0
45,55	,	94707	,	-33864	,	-30827	,	-2.912937	,	0
45,55	,	94723	,	-33861	,	-30834	,	-3.574629	,	0
45,55	,	94739	,	-33869	,	-30853	,	-4.324835	,	0
45,55	,	94771	,	-33867	,	-30810	,	-5.0270605	,	0
45,55	,	94787	,	-33884	,	-30831	,	-5.680747	,	0
45,55	,	94803	,	-33873	,	-30828	,	-6.3788395	,	0
45,55	,	94835	,	-33882	,	-30831	,	-7.130435	,	0
45,55	,	94851	,	-33889	,	-30821	,	-7.864091	,	0
45,55	,	94883	,	-33896	,	-30824	,	-8.611805	,	0
45,55	,	94899	,	-33884	,	-30824	,	-9.400215	,	0
45,55	,	94915	,	-33898	,	-30831	,	-10.085902	,	0
45,55	,	94947	,	-33896	,	-30830	,	-10.532058	,	0
45,55	,	94962	,	-33906	,	-30833	,	-10.757723	,	0
45,55	,	94979	,	-33907	,	-30863	,	-10.865274	,	0
45,55	,	95011	,	-33909	,	-30818	,	-10.93865	,	0
45,55	,	95027	,	-33920	,	-30837	,	-11.025831	,	0
45,55	,	95059	,	-33917	,	-30848	,	-11.181186	,	0
45,55	,	95075	,	-33902	,	-30840	,	-11.311285	,	0
45,55	,	95091	,	-33905	,	-30823	,	-11.067385	,	0
45,55	,	95123	,	-33893	,	-30822	,	-10.109528	,	0
45,55	,	95139	,	-33865	,	-30826	,	-8.175266	,	0
45,55	,	95155	,	-33863	,	-30824	,	-4.9626493	,	1
45,55	,	95186	,	-33861	,	-30837	,	-0.4490118	,	4
45,55	,	95203	,	-33853	,	-30817	,	4.866298	,	8
45,55	,	95218	,	-33844	,	-30839	,	10.297894	,	13
45,55	,	95251	,	-33849	,	-30800	,	15.258653	,	18
45,55	,	95267	,	-33857	,	-30821	,	19.16466	,	22
45,55	,	95299	,	-33841	,	-30816	,	21.513006	,	25
45,55	,	95314	,	-33852	,	-30818	,	22.177633	,	27
45,55	,	95330	,	-33846	,	-30821	,	21.348858	,	27
45,55	,	95362	,	-33835	,	-30813	,	19.393412	,	26
45,55	,	95378	,	-33832	,	-30814	,	16.888464	,	23
45,55	,	95394	,	-33832	,	-30809	,	14.4082155	,	19
45,55	,	95427	,	-33826	,	-30807	,	12.283162	,	14
45,55	,	95443	,	-33817	,	-30815	,	10.68492	,	9
45,55	,	95475	,	-33826	,	-30834	,	9.687658	,	5
45,55	,	95491	,	-33823	,	-30780	,	9.151009	,	2
45,55	,	95506	,	-33824	,	-30795	,	8.784628	,	0
45,55	,	95538	,	-33813	,	-30810	,	8.402289	,	0
45,56	,	95554	,	-33818	,	-30810	,	8.005488	,	0
45,56	,	95571	,	-33806	,	-30796	,	7.674809	,	0
45,56	,	95603	,	-33818	,	-30808	,	7.4532394	,	0
45,56	,	95619	,	-33809	,	-30799	,	7.2781687	,	0
45,56	,	95635	,	-33810	,	-30793	,	7.0520487	,	0
45,56	,	95667	,	-33815	,	-30802	,	6.722491	,	0
45,56	,	95682	,	-33811	,	-30794	,	6.234524	,	0
45,56	,	95714	,	-33831	,	-30821	,	5.470493	,	0
45,56	,	95730	,	-33820	,	-30774	,	4.2685804	,	0
45,56	,	95746	,	-33830	,	-30801	,	2.6010861	,	0
45,56	,	95778	,	-33834	,	-30801	,	0.60640097	,	0
45,56	,	95795	,	-33835	,	-30806	,	-1.5677087	,	0
45,56	,	95810	,	-33832	,	-30799	,	-3.7276955	,	0
45,56	,	95842	,	-33840	,	-30791	,	-5.6225853	,	0
45,56	,	95858	,	-33838	,	-30800	,	-7.091313	,	0
45,56	,	95890	,	-33836	,	-30812	,	-8.060035	,	0
45,56	,	95906	,	-33851	,	-30807	,	-8.524358	,	0
45,56	,	95922	,	-33845	,	-30799	,	-8.635973	,	0
45,56	,	95955	,	-33850	,	-30837	,	-8.577635	,	0
45,56	,	95970	,	-33856	,	-30786	,	-8.444569	,	0
45,56	,	95986	,	-33854	,	-30806	,	-8.318392	,	0
45,56	,	96019	,	-33865	,	-30822	,	-8.269879	,	0
45,56	,	96034	,	-33864	,	-30810	,	-8.353324	,	0
45,56	,	96066	,	-33857	,	-30809	,	-8.538099	,	0
45,56	,	96082	,	-33854	,	-30824	,	-8.598884	,	0
45,56	,	96098	,	-33867	,	-30814	,	-8.31219	,	0
45,56	,	96130	,	-33872	,	-30813	,	-7.7562714	,	0
45,56	,	96146	,	-33873	,	-30808	,	-7.223111	,	0
45,56	,	96162	,	-33877	,	-30814	,	-6.918505	,	0
45,56	,	96194	,	-33884	,	-30845	,	-6.909417	,	0
45,56	,	96210	,	-33891	,	-30805	,	-7.2457995	,	0
45,56	,	96226	,	-33871	,	-30820	,	-7.8657084	,	0
45,56	,	96258	,	-33841	,	-30815	,	-8.249987	,	0
45,56	,	96274	,	-33845	,	-30806	,	-7.526171	,	0
45,56	,	96306	,	-33826	,	-30814	,	-5.1493716	,	0
45,56	,	96322	,	-33828	,	-30803	,	-1.2044017	,	2
45,56	,	96338	,	-33826	,	-30807	,	3.759626	,	5
45,56	,	96370	,	-33827	,	-30801	,	8.913294	,	9
45,56	,	96386	,	-33820	,	-30805	,	13.442473	,	14
45,56	,	96402	,	-33812	,	-30795	,	16.863432	,	18
45,56	,	96434	,	-33823	,	-30822	,	19.018538	,	21
45,56	,	96450	,	-33820	,	-30778	,	19.82789	,	23
45,56	,	96482	,	-33826	,	-30807	,	19.25122	,	23
45,56	,	96498	,	-33810	,	-30794	,	17.479345	,	23
45,56	,	96514	,	-33810	,	-30788	,	15.008229	,	21
45,56	,	96546	,	-33827	,	-30800	,	12.336842	,	18
45,57	,	96562	,	-33808	,	-30809	,	9.68515	,	14
45,57	,	96578	,	-33805	,	-30796	,	7.2627807	,	9
45,57	,	96610	,	-33816	,	-30806	,	5.3605266	,	5
45,57	,	96626	,	-33814	,	-30804	,	4.008128	,	2
45,57	,	96642	,	-33801	,	-30803	,	3.0721207	,	0
45,57	,	96674	,	-33811	,	-30830	,	2.5402367	,	0
45,57	,	96690	,	-33812	,	-30785	,	2.3637204	,	0
45,57	,	96722	,	-33823	,	-30812	,	2.2813094	,	0
45,57	,	96738	,	-33821	,	-30810	,	1.956428	,	0
45,57	,	96754	,	-33832	,	-30804	,	1.1679974	,	0
45,57	,	96786	,	-33819	,	-30805	,	-0.08812237	,	0
45,57	,	96802	,	-33820	,	-30806	,	-1.5482594	,	0
45,57	,	96818	,	-33824	,	-30814	,	-2.839787	,	0
45,57	,	96850	,	-33838	,	-30816	,	-3.821809	,	0
45,57	,	96866	,	-33830	,	-30816	,	-4.6228004	,	0
45,57	,	96898	,	-33844	,	-30809	,	-5.3819094	,	0
45,57	,	96914	,	-33838	,	-30843	,	-6.1526003	,	0
45,57	,	96930	,	-33851	,	-30802	,	-6.947538	,	0
45,57	,	96964	,	-33851	,	-30810	,	-7.776475	,	0
45,57	,	96978	,	-33851	,	-30819	,	-8.624951	,	0
45,57	,	96994	,	-33844	,	-30817	,	-9.3456335	,	0
45,57	,	97026	,	-33862	,	-30819	,	-9.755968	,	0
45,57	,	97042	,	-33854	,	-30813	,	-9.862696	,	0
45,57	,	97058	,	-33858	,	-30822	,	-9.75753	,	0
45,57	,	97090	,	-33871	,	-30829	,	-9.5075	,	0
45,57	,	97106	,	-33871	,	-30820	,	-9.2790985	,	0
45,57	,	97138	,	-33873	,	-30824	,	-9.240878	,	0
45,57	,	97154	,	-33890	,	-30857	,	-9.458853	,	0
45,57	,	97170	,	-33890	,	-30805	,	-10.023487	,	0
45,57	,	97202	,	-33907	,	-30824	,	-11.041321	,	0
45,57	,	97218	,	-33904	,	-30828	,	-12.523003	,	0
45,57	,	97234	,	-33904	,	-30836	,	-14.276032	,	0
45,57	,	97266	,	-33910	,	-30839	,	-15.918848	,	0
45,57	,	97281	,	-33896	,	-30837	,	-17.048096	,	0
45,57	,	97314	,	-33880	,	-30822	,	-17.214022	,	0
45,57	,	97330	,	-33866	,	-30826	,	-15.882089	,	0
45,57	,	97346	,	-33856	,	-30829	,	-12.692902	,	1
45,57	,	97378	,	-33848	,	-30819	,	-7.7190247	,	4
45,57	,	97394	,	-33848	,	-30847	,	-1.490746	,	8
45,57	,	97410	,	-33857	,	-30801	,	5.084981	,	14
45,57	,	97442	,	-33851	,	-30818	,	10.951742	,	20
45,57	,	97458	,	-33841	,	-30820	,	15.367039	,	25
45,57	,	97474	,	-33835	,	-30816	,	18.181332	,	29
45,57	,	97506	,	-33835	,	-30819	,	19.620548	,	31
45,57	,	97522	,	-33858	,	-30829	,	19.835188	,	32
45,57	,	97554	,	-33844	,	-30826	,	18.751339	,	31
45,58	,	97570	,	-33835	,	-30823	,	16.495264	,	28
45,58	,	97585	,	-33837	,	-30819	,	13.63176	,	24
45,58	,	97618	,	-33844	,	-30820	,	10.729691	,	18
45,58	,	97635	,	-33837	,	-30839	,	8.058785	,	12
45,58	,	97650	,	-33827	,	-30802	,	5.8052964	,	7
45,58	,	97682	,	-33830	,	-30818	,	4.209361	,	3
45,58	,	97698	,	-33842	,	-30821	,	3.3110902	,	1
45,58	,	97729	,	-33841	,	-30809	,	2.804483	,	0
45,58	,	97745	,	-33853	,	-30813	,	2.2703114	,	0
45,58	,	97762	,	-33849	,	-30812	,	1.4134176	,	0
45,58	,	97794	,	-33847	,	-30813	,	0.19129527	,	0
45,58	,	97810	,	-33850	,	-30825	,	-1.1897061	,	0
45,58	,	97826	,	-33853	,	-30815	,	-2.4944448	,	0
45,58	,	97857	,	-33846	,	-30822	,	-3.5765667	,	0
45,58	,	97873	,	-33850	,	-30835	,	-4.3095293	,	0
45,58	,	97889	,	-33856	,	-30813	,	-4.6455383	,	0
45,58	,	97922	,	-33866	,	-30809	,	-4.749675	,	0
45,58	,	97938	,	-33879	,	-30820	,	-4.9805713	,	0
45,58	,	97970	,	-33878	,	-30819	,	-5.68896	,	0
45,58	,	97985	,	-33875	,	-30828	,	-6.9261265	,	0
45,58	,	98001	,	-33868	,	-30818	,	-8.344989	,	0
45,58	,	98033	,	-33876	,	-30819	,	-9.462749	,	0
45,58	,	98049	,	-33875	,	-30826	,	-9.997996	,	0
45,58	,	98066	,	-33891	,	-30818	,	-9.994379	,	0
45,58	,	98098	,	-33877	,	-30832	,	-9.688376	,	0
45,58	,	98113	,	-33876	,	-30859	,	-9.19475	,	0
45,58	,	98145	,	-33880	,	-30822	,	-8.434509	,	0
45,58	,	98161	,	-33887	,	-30846	,	-7.4233985	,	0
45,58	,	98178	,	-33899	,	-30840	,	-6.433817	,	1
45,58	,	98209	,	-33893	,	-30833	,	-5.8126545	,	1
45,58	,	98225	,	-33895	,	-30844	,	-5.6702747	,	1
45,58	,	98241	,	-33899	,	-30840	,	-5.858695	,	1
45,58	,	98273	,	-33913	,	-30839	,	-6.270444	,	1
45,58	,	98289	,	-33909	,	-30836	,	-6.951503	,	1
45,58	,	98305	,	-33915	,	-30837	,	-7.9015946	,	1
45,58	,	98337	,	-33921	,	-30847	,	-9.003107	,	1
45,58	,	98353	,	-33921	,	-30854	,	-10.13132	,	1
45,58	,	98385	,	-33916	,	-30832	,	-11.113243	,	0
45,58	,	98402	,	-33891	,	-30828	,	-11.560611	,	0
45,58	,	98418	,	-33877	,	-30830	,	-10.841427	,	0
45,58	,	98449	,	-33884	,	-30826	,	-8.478067	,	0
45,58	,	98465	,	-33862	,	-30830	,	-4.5600514	,	2
45,58	,	98481	,	-33863	,	-30826	,	0.441566	,	5
45,58	,	98513	,	-33870	,	-30820	,	5.8769636	,	10
45,58	,	98529	,	-33871	,	-30818	,	10.881117	,	15
45,59	,	98561	,	-33863	,	-30837	,	14.678987	,	20
45,59	,	98577	,	-33851	,	-30819	,	17.009073	,	23
45,59	,	98594	,	-33863	,	-30849	,	18.038568	,	25
45,59	,	98625	,	-33851	,	-30814	,	17.989214	,	26
45,59	,	98641	,	-33857	,	-30815	,	17.065737	,	26
45,59	,	98657	,	-33858	,	-30813	,	15.48922	,	24
45,59	,	98689	,	-33853	,	-30815	,	13.44598	,	21
45,59	,	98705	,	-33849	,	-30819	,	11.180017	,	16
45,59	,	98721	,	-33859	,	-30820	,	8.964738	,	11
45,59	,	98754	,	-33837	,	-30814	,	6.999326	,	6
45,59	,	98769	,	-33855	,	-30809	,	5.458521	,	3
45,59	,	98801	,	-33853	,	-30803	,	4.3629875	,	1
45,59	,	98817	,	-33846	,	-30823	,	3.5512965	,	0
45,59	,	98833	,	-33849	,	-30831	,	2.9409456	,	0
45,59	,	98865	,	-33864	,	-30812	,	2.451212	,	0
45,59	,	98881	,	-33862	,	-30807	,	1.8223673	,	0
45,59	,	98897	,	-33858	,	-30805	,	0.8721446	,	0
45,59	,	98929	,	-33866	,	-30819	,	-0.3152908	,	0
45,59	,	98945	,	-33861	,	-30817	,	-1.569256	,	0
45,59	,	98977	,	-33873	,	-30821	,	-2.7741807	,	0
45,59	,	98993	,	-33881	,	-30820	,	-3.9442933	,	0
45,59	,	99009	,	-33863	,	-30813	,	-5.128065	,	0
45,59	,	99041	,	-33881	,	-30826	,	-6.187351	,	0
45,59	,	99057	,	-33861	,	-30831	,	-6.896038	,	0
45,59	,	99073	,	-33864	,	-30825	,	-7.045683	,	0
45,59	,	99105	,	-33872	,	-30821	,	-6.525027	,	0
45,59	,	99121	,	-33887	,	-30831	,	-5.58904	,	0
45,59	,	99137	,	-33878	,	-30835	,	-4.738934	,	0
45,59	,	99169	,	-33895	,	-30830	,	-4.317656	,	0
45,59	,	99185	,	-33890	,	-30822	,	-4.4484415	,	0
45,59	,	99217	,	-33891	,	-30832	,	-5.0792494	,	0
45,59	,	99233	,	-33888	,	-30826	,	-5.9528346	,	0
45,59	,	99249	,	-33905	,	-30831	,	-6.809984	,	0
45,59	,	99281	,	-33910	,	-30835	,	-7.647399	,	0
45,59	,	99297	,	-33914	,	-30836	,	-8.620968	,	0
45,59	,	99313	,	-33900	,	-30832	,	-9.703963	,	0
45,59	,	99345	,	-33921	,	-30840	,	-10.647295	,	0
45,59	,	99361	,	-33912	,	-30843	,	-11.289736	,	0
45,59	,	99393	,	-33924	,	-30832	,	-11.637793	,	0
45,59	,	99409	,	-33930	,	-30836	,	-11.78273	,	0
45,59	,	99425	,	-33942	,	-30834	,	-11.931585	,	0
45,59	,	99457	,	-33912	,	-30836	,	-12.169352	,	0
45,59	,	99473	,	-33924	,	-30846	,	-12.172874	,	0
45,59	,	99489	,	-33934	,	-30840	,	-11.609397	,	0
45,59	,	99521	,	-33930	,	-30843	,	-10.583475	,	0
45,59	,	99537	,	-33943	,	-30841	,	-9.41979	,	1
46,0	,	99569	,	-33928	,	-30847	,	-8.353435	,	2
46,0	,	99585	,	-33930	,	-30831	,	-7.398184	,	3
46,0	,	99601	,	-33924	,	-30833	,	-6.386267	,	3
46,0	,	99633	,	-33897	,	-30832	,	-5.0384836	,	4
46,0	,	99649	,	-33900	,	-30829	,	-2.964521	,	5
46,0	,	99665	,	-33890	,	-30824	,	0.042634726	,	7
46,0	,	99697	,	-33886	,	-30829	,	3.7886949	,	10
46,0	,	99713	,	-33894	,	-30838	,	7.7966733	,	13
46,0	,	99729	,	-33891	,	-30834	,	11.424596	,	16
46,0	,	99761	,	-33893	,	-30824	,	14.0829525	,	18
46,0	,	99777	,	-33885	,	-30831	,	15.49287	,	19
46,0	,	99809	,	-33888	,	-30840	,	15.714045	,	20
46,0	,	99825	,	-33873	,	-30830	,	15.037739	,	19
46,0	,	99841	,	-33895	,	-30824	,	13.796679	,	18
46,0	,	99873	,	-33887	,	-30827	,	12.128906	,	16
46,0	,	99889	,	-33871	,	-30823	,	10.1449375	,	13
46,0	,	99905	,	-33894	,	-30824	,	8.131998	,	10
46,0	,	99937	,	-33888	,	-30832	,	6.230708	,	6
46,0	,	99953	,	-33891	,	-30820	,	4.3735485	,	3
46,0	,	99985	,	-33884	,	-30828	,	2.6004207	,	1
46,0	,	100001	,	-33878	,	-30826	,	1.1209462	,	0
46,0	,	100017	,	-33890	,	-30823	,	0.13139486	,	0
46,0	,	100049	,	-33889	,	-30836	,	-0.40770125	,	0
46,0	,	100065	,	-33882	,	-30841	,	-0.68001133	,	0
46,0	,	100081	,	-33898	,	-30829	,	-0.8197747	,	0
46,0	,	100112	,	-33893	,	-30832	,	-0.9843295	,	0
46,0	,	100128	,	-33908	,	-30828	,	-1.3703368	,	0
46,0	,	100145	,	-33892	,	-30842	,	-2.0676186	,	0
46,0	,	100177	,	-33907	,	-30832	,	-2.9786508	,	0
46,0	,	100193	,	-33910	,	-30833	,	-3.9755254	,	0
46,0	,	100225	,	-33913	,	-30827	,	-5.0491934	,	0
46,0	,	100241	,	-33893	,	-30833	,	-6.0880795	,	0
46,0	,	100257	,	-33919	,	-30839	,	-6.812222	,	0
46,0	,	100288	,	-33899	,	-30839	,	-7.090315	,	0
46,0	,	100305	,	-33925	,	-30841	,	-7.0213776	,	0
46,0	,	100321	,	-33935	,	-30837	,	-6.918236	,	0
46,0	,	100353	,	-33919	,	-30840	,	-7.1551685	,	0
46,0	,	100369	,	-33925	,	-30846	,	-7.719066	,	0
46,0	,	100401	,	-33917	,	-30849	,	-8.242041	,	0
46,0	,	100417	,	-33927	,	-30843	,	-8.419712	,	0
46,0	,	100433	,	-33936	,	-30848	,	-8.236911	,	0
46,0	,	100465	,	-33937	,	-30843	,	-7.9439373	,	0
46,0	,	100481	,	-33948	,	-30845	,	-7.827795	,	0
46,0	,	100497	,	-33948	,	-30851	,	-8.062236	,	0
46,0	,	100529	,	-33932	,	-30857	,	-8.579544	,	0
46,0	,	100545	,	-33943	,	-30843	,	-9.025375	,	0
46,1	,	100561	,	-33965	,	-30848	,	-9.201632	,	0
46,1	,	100592	,	-33949	,	-30846	,	-9.308622	,	0
46,1	,	100608	,	-33951	,	-30853	,	-9.453768	,	0
46,1	,	100640	,	-33966	,	-30850	,	-9.509281	,	0
46,1	,	100657	,	-33981	,	-30855	,	-9.576664	,	0
46,1	,	100672	,	-33980	,	-30857	,	-10.003549	,	0
46,1	,	100705	,	-33988	,	-30865	,	-10.962829	,	0
46,1	,	100721	,	-33974	,	-30856	,	-12.254979	,	0
46,1	,	100737	,	-33980	,	-30871	,	-13.405676	,	0
46,1	,	100769	,	-33965	,	-30854	,	-13.907159	,	0
46,1	,	100784	,	-33954	,	-30853	,	-13.3421755	,	0
46,1	,	100816	,	-33949	,	-30851	,	-11.419373	,	0
46,1	,	100832	,	-33937	,	-30850	,	-8.109554	,	1
46,1	,	100848	,	-33937	,	-30846	,	-3.6841626	,	4
46,1	,	100880	,	-33933	,	-30850	,	1.3508945	,	8
46,1	,	100896	,	-33936	,	-30857	,	6.3383064	,	13
46,1	,	100913	,	-33932	,	-30849	,	10.631819	,	17
46,1	,	100945	,	-33922	,	-30851	,	13.819377	,	21
46,1	,	100961	,	-33933	,	-30850	,	15.785381	,	24
46,1	,	100977	,	-33932	,	-30852	,	16.50201	,	25
46,1	,	101008	,	-33940	,	-30851	,	15.939646	,	25
46,1	,	101025	,	-33928	,	-30845	,	14.236059	,	24
46,1	,	101056	,	-33936	,	-30850	,	11.773552	,	21
46,1	,	101072	,	-33936	,	-30846	,	8.985092	,	17
46,1	,	101088	,	-33929	,	-30845	,	6.205437	,	12
46,1	,	101120	,	-33927	,	-30849	,	3.7522917	,	8
46,1	,	101136	,	-33929	,	-30840	,	1.8945198	,	4
46,1	,	101152	,	-33930	,	-30846	,	0.70244026	,	1
46,1	,	101185	,	-33916	,	-30835	,	0.13002431	,	0
46,1	,	101201	,	-33913	,	-30850	,	0.21820527	,	0
46,1	,	101232	,	-33921	,	-30863	,	0.98246175	,	0
46,1	,	101248	,	-33933	,	-30839	,	2.102872	,	0
46,1	,	101264	,	-33927	,	-30850	,	3.0228612	,	1
46,1	,	101296	,	-33928	,	-30854	,	3.3919423	,	1
46,1	,	101312	,	-33940	,	-30853	,	3.1495304	,	1
46,1	,	101328	,	-33933	,	-30850	,	2.315857	,	1
46,1	,	101360	,	-33925	,	-30844	,	1.0722208	,	1
46,1	,	101376	,	-33947	,	-30851	,	-0.26684225	,	1
46,1	,	101392	,	-33937	,	-30854	,	-1.5756545	,	1
46,1	,	101424	,	-33941	,	-30849	,	-2.8414774	,	1
46,1	,	101440	,	-33944	,	-30843	,	-3.9615905	,	1
46,1	,	101472	,	-33944	,	-30864	,	-4.847183	,	0
46,1	,	101488	,	-33948	,	-30839	,	-5.4797726	,	0
46,1	,	101504	,	-33956	,	-30842	,	-5.9201565	,	0
46,1	,	101536	,	-33937	,	-30848	,	-6.228207	,	0
46,2	,	101552	,	-33961	,	-30851	,	-6.3545036	,	0
46,2	,	101568	,	-33964	,	-30860	,	-6.3802547	,	0
46,2	,	101600	,	-33957	,	-30850	,	-6.54063	,	0
46,2	,	101616	,	-33970	,	-30845	,	-6.897605	,	0
46,2	,	101648	,	-33975	,	-30845	,	-7.421611	,	0
46,2	,	101664	,	-33966	,	-30849	,	-8.100389	,	0
46,2	,	101680	,	-33964	,	-30844	,	-8.736613	,	0
46,2	,	101712	,	-33986	,	-30858	,	-9.107672	,	0
46,2	,	101728	,	-33976	,	-30840	,	-9.2754965	,	0
46,2	,	101744	,	-33995	,	-30855	,	-9.442836	,	0
46,2	,	101776	,	-33995	,	-30858	,	-9.779867	,	0
46,2	,	101792	,	-33987	,	-30850	,	-10.331497	,	0
46,2	,	101808	,	-33993	,	-30838	,	-10.893022	,	0
46,2	,	101840	,	-33997	,	-30850	,	-11.216557	,	0
46,2	,	101856	,	-33986	,	-30852	,	-11.182409	,	0
46,2	,	101888	,	-33982	,	-30853	,	-10.64308	,	0
46,2	,	101904	,	-33987	,	-30846	,	-9.460123	,	0
46,2	,	101920	,	-33967	,	-30847	,	-7.633241	,	1
46,2	,	101952	,	-33960	,	-30862	,	-5.147448	,	2
46,2	,	101968	,	-33950	,	-30842	,	-1.9325237	,	4
46,2	,	101984	,	-33938	,	-30844	,	1.9775591	,	7
46,2	,	102016	,	-33939	,	-30843	,	6.37854	,	10
46,2	,	102032	,	-33938	,	-30842	,	10.842767	,	14
46,2	,	102064	,	-33930	,	-30833	,	14.817632	,	18
46,2	,	102080	,	-33920	,	-30830	,	17.938387	,	21
46,2	,	102096	,	-33924	,	-30836	,	20.107143	,	24
46,2	,	102128	,	-33926	,	-30824	,	21.262295	,	25
46,2	,	102144	,	-33936	,	-30829	,	21.25135	,	25
46,2	,	102160	,	-33928	,	-30834	,	19.975044	,	23
46,2	,	102192	,	-33937	,	-30848	,	17.562809	,	20
46,2	,	102208	,	-33920	,	-30823	,	14.390915	,	17
46,2	,	102224	,	-33927	,	-30829	,	10.997792	,	13
46,2	,	102256	,	-33909	,	-30832	,	7.942893	,	9
46,2	,	102272	,	-33909	,	-30825	,	5.701046	,	6
46,2	,	102304	,	-33921	,	-30828	,	4.4800916	,	3
46,2	,	102320	,	-33918	,	-30828	,	4.0402927	,	1
46,2	,	102336	,	-33924	,	-30836	,	3.91613	,	0
46,2	,	102368	,	-33926	,	-30823	,	3.7225401	,	0
46,2	,	102384	,	-33921	,	-30824	,	3.2564657	,	0
46,2	,	102400	,	-33905	,	-30825	,	2.6186275	,	0
46,2	,	102432	,	-33922	,	-30843	,	2.1108828	,	0
46,2	,	102448	,	-33920	,	-30811	,	1.8326426	,	0
46,2	,	102480	,	-33924	,	-30827	,	1.6093776	,	0
46,2	,	102496	,	-33926	,	-30833	,	1.2571332	,	0
46,2	,	102512	,	-33926	,	-30823	,	0.6979909	,	0
46,2	,	102544	,	-33928	,	-30822	,	-0.041408002	,	0
46,3	,	102560	,	-33938	,	-30833	,	-0.91690785	,	0
46,3	,	102576	,	-33939	,	-30827	,	-1.969036	,	0
46,3	,	102608	,	-33935	,	-30822	,	-3.2019622	,	0
46,3	,	102624	,	-33939	,	-30829	,	-4.4528084	,	0
46,3	,	102640	,	-33939	,	-30823	,	-5.513336	,	0
46,3	,	102672	,	-33935	,	-30846	,	-6.241524	,	0
46,3	,	102688	,	-33945	,	-30819	,	-6.5748796	,	0
46,3	,	102720	,	-33945	,	-30830	,	-6.590118	,	0
46,3	,	102736	,	-33933	,	-30815	,	-6.3841105	,	0
46,3	,	102752	,	-33956	,	-30823	,	-5.9795194	,	0
46,3	,	102784	,	-33953	,	-30831	,	-5.542616	,	0
46,3	,	102800	,	-33956	,	-30833	,	-5.3400908	,	0
46,3	,	102816	,	-33947	,	-30830	,	-5.4102964	,	0
46,3	,	102848	,	-33960	,	-30836	,	-5.5860786	,	0
46,3	,	102864	,	-33960	,	-30829	,	-5.772855	,	0
46,3	,	102896	,	-33961	,	-30842	,	-5.9883537	,	0
46,3	,	102912	,	-33960	,	-30853	,	-6.2040124	,	0
46,3	,	102928	,	-33962	,	-30831	,	-6.3266315	,	0
46,3	,	102960	,	-33972	,	-30850	,	-6.3344717	,	0
46,3	,	102976	,	-33981	,	-30849	,	-6.390337	,	0
46,3	,	102992	,	-33988	,	-30840	,	-6.769493	,	0
46,3	,	103024	,	-33994	,	-30843	,	-7.6571817	,	0
46,3	,	103040	,	-33988	,	-30849	,	-8.9954815	,	0
46,3	,	103056	,	-33979	,	-30862	,	-10.410413	,	0
46,3	,	103088	,	-33970	,	-30849	,	-11.306264	,	0
46,3	,	103104	,	-33956	,	-30851	,	-11.095758	,	0
46,3	,	103136	,	-33944	,	-30839	,	-9.367538	,	0
46,3	,	103152	,	-33951	,	-30854	,	-6.0729313	,	1
46,3	,	103168	,	-33929	,	-30824	,	-1.6004024	,	4
46,3	,	103200	,	-33911	,	-30834	,	3.5960126	,	8
46,3	,	103216	,	-33919	,	-30841	,	9.19388	,	13
46,3	,	103232	,	-33917	,	-30841	,	14.667045	,	18
46,3	,	103264	,	-33931	,	-30842	,	19.197199	,	23
46,3	,	103280	,	-33929	,	-30839	,	22.00271	,	27
46,3	,	103311	,	-33926	,	-30832	,	22.697613	,	29
46,3	,	103328	,	-33915	,	-30837	,	21.492981	,	29
46,3	,	103344	,	-33924	,	-30836	,	19.01364	,	28
46,3	,	103375	,	-33921	,	-30834	,	15.8715105	,	25
46,3	,	103392	,	-33916	,	-30843	,	12.520989	,	21
46,3	,	103408	,	-33925	,	-30819	,	9.329444	,	16
46,3	,	103439	,	-33923	,	-30821	,	6.504545	,	11
46,3	,	103455	,	-33917	,	-30824	,	4.127922	,	6
46,3	,	103488	,	-33928	,	-30827	,	2.2561321	,	2
46,3	,	103504	,	-33910	,	-30830	,	0.901319	,	0
46,3	,	103519	,	-33902	,	-30831	,	0.17559338	,	0
46,3	,	103551	,	-33906	,	-30833	,	0.28327262	,	0
46,4	,	103567	,	-33918	,	-30833	,	1.1230671	,	0
46,4	,	103584	,	-33908	,	-30830	,	2.2316036	,	0
46,4	,	103616	,	-33907	,	-30824	,	3.2199326	,	1
46,4	,	103632	,	-33911	,	-30853	,	3.9514136	,	1
46,4	,	103648	,	-33900	,	-30816	,	4.409846	,	1
46,4	,	103679	,	-33934	,	-30829	,	4.527626	,	1
46,4	,	103695	,	-33912	,	-30829	,	4.078204	,	1
46,4	,	103727	,	-33934	,	-30831	,	2.9170754	,	1
46,4	,	103743	,	-33923	,	-30834	,	1.1578407	,	1
46,4	,	103759	,	-33928	,	-30823	,	-0.9231709	,	1
46,4	,	103791	,	-33932	,	-30832	,	-2.988792	,	1
46,4	,	103807	,	-33929	,	-30829	,	-4.785606	,	0
46,4	,	103823	,	-33938	,	-30825	,	-6.1897984	,	0
46,4	,	103855	,	-33925	,	-30829	,	-7.1364775	,	0
46,4	,	103871	,	-33930	,	-30846	,	-7.5321245	,	0
46,4	,	103903	,	-33937	,	-30812	,	-7.341406	,	0
46,4	,	103919	,	-33939	,	-30828	,	-6.7554855	,	0
46,4	,	103935	,	-33944	,	-30833	,	-6.0863667	,	0
46,4	,	103967	,	-33939	,	-30835	,	-5.553879	,	0
46,4	,	103983	,	-33950	,	-30829	,	-5.233083	,	0
46,4	,	103999	,	-33946	,	-30829	,	-5.1377716	,	0
46,4	,	104032	,	-33945	,	-30829	,	-5.2179947	,	0
46,4	,	104047	,	-33963	,	-30833	,	-5.402281	,	0
46,4	,	104063	,	-33957	,	-30834	,	-5.7499037	,	0
46,4	,	104095	,	-33961	,	-30836	,	-6.317478	,	0
46,4	,	104111	,	-33970	,	-30864	,	-7.037715	,	0
46,4	,	104143	,	-33978	,	-30825	,	-7.8954225	,	0
46,4	,	104159	,	-33978	,	-30848	,	-8.940422	,	0
46,4	,	104175	,	-33982	,	-30853	,	-10.122784	,	0
46,4	,	104207	,	-33967	,	-30850	,	-11.205945	,	0
46,4	,	104223	,	-33968	,	-30854	,	-11.784039	,	0
46,4	,	104239	,	-33945	,	-30840	,	-11.401642	,	0
46,4	,	104271	,	-33929	,	-30844	,	-9.622292	,	0
46,4	,	104287	,	-33929	,	-30832	,	-6.1895394	,	1
46,4	,	104319	,	-33934	,	-30844	,	-1.3922777	,	4
46,4	,	104335	,	-33938	,	-30828	,	3.8962245	,	8
46,4	,	104351	,	-33932	,	-30865	,	8.67703	,	13
46,4	,	104383	,	-33938	,	-30815	,	12.253251	,	17
46,4	,	104399	,	-33922	,	-30841	,	14.365706	,	20
46,4	,	104415	,	-33925	,	-30832	,	15.171719	,	22
46,4	,	104447	,	-33932	,	-30835	,	14.982555	,	22
46,4	,	104463	,	-33935	,	-30835	,	13.954599	,	22
46,4	,	104479	,	-33935	,	-30842	,	12.160397	,	21
46,4	,	104511	,	-33921	,	-30840	,	9.849878	,	18
46,4	,	104527	,	-33915	,	-30836	,	7.5354295	,	14
46,5	,	104559	,	-33929	,	-30834	,	5.697657	,	9
46,5	,	104575	,	-33924	,	-30845	,	4.4222665	,	5
46,5	,	104591	,	-33917	,	-30858	,	3.563318	,	2
46,5	,	104623	,	-33922	,	-30812	,	3.0521655	,	0
46,5	,	104639	,	-33905	,	-30831	,	2.899913	,	0
46,5	,	104655	,	-33917	,	-30836	,	3.1287725	,	0
46,5	,	104687	,	-33922	,	-30828	,	3.6046727	,	0
46,5	,	104703	,	-33922	,	-30835	,	3.9835267	,	0
46,5	,	104735	,	-33934	,	-30845	,	3.9299903	,	0
46,5	,	104751	,	-33934	,	-30842	,	3.2239728	,	0
46,5	,	104767	,	-33917	,	-30842	,	1.9027114	,	0
46,5	,	104799	,	-33940	,	-30846	,	0.3008194	,	0
46,5	,	104815	,	-33921	,	-30839	,	-1.2697622	,	0
46,5	,	104831	,	-33939	,	-30865	,	-2.637511	,	0
46,5	,	104863	,	-33938	,	-30819	,	-3.7454793	,	0
46,5	,	104879	,	-33935	,	-30840	,	-4.637508	,	0
46,5	,	104895	,	-33925	,	-30842	,	-5.2393427	,	0
46,5	,	104927	,	-33943	,	-30847	,	-5.4031334	,	0
46,5	,	104943	,	-33947	,	-30846	,	-5.251354	,	0
46,5	,	104975	,	-33959	,	-30843	,	-5.180392	,	0
46,5	,	104991	,	-33947	,	-30851	,	-5.4880085	,	0
46,5	,	105007	,	-33950	,	-30834	,	-6.100337	,	0
46,5	,	105039	,	-33945	,	-30848	,	-6.6902075	,	0
46,5	,	105055	,	-33964	,	-30846	,	-7.043138	,	0
46,5	,	105071	,	-33969	,	-30878	,	-7.283472	,	0
46,5	,	105103	,	-33965	,	-30823	,	-7.6707973	,	0
46,5	,	105119	,	-33966	,	-30852	,	-8.233572	,	0
46,5	,	105151	,	-33969	,	-30844	,	-8.779621	,	0
46,5	,	105167	,	-33967	,	-30845	,	-9.124514	,	0
46,5	,	105183	,	-33984	,	-30841	,	-9.229322	,	0
46,5	,	105215	,	-33979	,	-30854	,	-9.2387	,	0
46,5	,	105231	,	-33972	,	-30849	,	-9.246326	,	0
46,5	,	105247	,	-33967	,	-30840	,	-9.067698	,	0
46,5	,	105279	,	-33962	,	-30846	,	-8.40366	,	0
46,5	,	105295	,	-33942	,	-30836	,	-6.997125	,	0
46,5	,	105311	,	-33932	,	-30864	,	-4.585845	,	1
46,5	,	105343	,	-33926	,	-30811	,	-1.0336931	,	3
46,5	,	105359	,	-33926	,	-30840	,	3.4210114	,	6
46,5	,	105391	,	-33917	,	-30836	,	8.215745	,	10
46,5	,	105407	,	-33909	,	-30828	,	12.781602	,	14
46,5	,	105423	,	-33919	,	-30835	,	16.676207	,	18
46,5	,	105455	,	-33914	,	-30824	,	19.47966	,	21
46,5	,	105471	,	-33908	,	-30822	,	20.909216	,	23
46,5	,	105487	,	-33925	,	-30832	,	20.933918	,	24
46,5	,	105519	,	-33917	,	-30830	,	19.610786	,	23
46,5	,	105535	,	-33891	,	-30825	,	17.25108	,	21
46,6	,	105567	,	-33900	,	-30851	,	14.599924	,	18
46,6	,	105583	,	-33888	,	-30810	,	12.365123	,	14
46,6	,	105599	,	-33895	,	-30819	,	10.831235	,	10
46,6	,	105631	,	-33897	,	-30817	,	9.905504	,	6
46,6	,	105647	,	-33886	,	-30818	,	9.318181	,	3
46,6	,	105663	,	-33892	,	-30807	,	8.879679	,	1
46,6	,	105695	,	-33899	,	-30818	,	8.443058	,	0
46,6	,	105711	,	-33910	,	-30812	,	7.7269607	,	0
46,6	,	105726	,	-33897	,	-30810	,	6.4772005	,	0
46,6	,	105759	,	-33899	,	-30813	,	4.7657995	,	0
46,6	,	105775	,	-33899	,	-30808	,	2.9269063	,	0
46,6	,	105807	,	-33896	,	-30844	,	1.2724545	,	0
46,6	,	105822	,	-33892	,	-30788	,	0.025855541	,	0
46,6	,	105838	,	-33906	,	-30811	,	-0.7205913	,	0
46,6	,	105870	,	-33901	,	-30811	,	-1.1042247	,	0
46,6	,	105887	,	-33909	,	-30820	,	-1.3642612	,	0
46,6	,	105903	,	-33901	,	-30825	,	-1.6491165	,	0
46,6	,	105935	,	-33908	,	-30820	,	-1.974797	,	0
46,6	,	105951	,	-33915	,	-30825	,	-2.339066	,	0
46,6	,	105982	,	-33907	,	-30823	,	-2.7908797	,	0
46,6	,	105998	,	-33912	,	-30835	,	-3.29672	,	0
46,6	,	106015	,	-33928	,	-30827	,	-3.8126326	,	0
46,6	,	106047	,	-33928	,	-30846	,	-4.4867144	,	0
46,6	,	106062	,	-33914	,	-30807	,	-5.4005013	,	0
46,6	,	106095	,	-33936	,	-30832	,	-6.362959	,	0
46,6	,	106111	,	-33929	,	-30821	,	-7.2243814	,	0
46,6	,	106127	,	-33927	,	-30823	,	-7.942333	,	0
46,6	,	106158	,	-33947	,	-30819	,	-8.463511	,	0
46,6	,	106174	,	-33946	,	-30830	,	-8.901911	,	0
46,6	,	106190	,	-33938	,	-30831	,	-9.399171	,	0
46,6	,	106222	,	-33941	,	-30820	,	-9.811719	,	0
46,6	,	106238	,	-33940	,	-30827	,	-9.885711	,	0
46,6	,	106271	,	-33950	,	-30832	,	-9.555567	,	0
46,6	,	106287	,	-33940	,	-30858	,	-8.928045	,	0
46,6	,	106302	,	-33959	,	-30821	,	-8.154974	,	0
46,6	,	106334	,	-33963	,	-30838	,	-7.4872613	,	0
46,6	,	106350	,	-33936	,	-30834	,	-7.0949936	,	0
46,6	,	106366	,	-33933	,	-30836	,	-6.666293	,	0
46,6	,	106398	,	-33913	,	-30823	,	-5.581663	,	0
46,6	,	106414	,	-33905	,	-30818	,	-3.3662076	,	1
46,6	,	106430	,	-33905	,	-30817	,	0.08100414	,	3
46,6	,	106463	,	-33895	,	-30822	,	4.4215813	,	6
46,6	,	106478	,	-33899	,	-30838	,	9.051529	,	10
46,6	,	106510	,	-33891	,	-30804	,	13.331113	,	14
46,6	,	106526	,	-33883	,	-30819	,	16.789957	,	18
46,6	,	106543	,	-33877	,	-30803	,	19.266745	,	21
46,7	,	106574	,	-33869	,	-30799	,	20.83098	,	23
46,7	,	106590	,	-33884	,	-30801	,	21.557615	,	24
46,7	,	106606	,	-33873	,	-30806	,	21.386173	,	23
46,7	,	106638	,	-33873	,	-30805	,	20.304075	,	21
46,7	,	106654	,	-33865	,	-30804	,	18.538757	,	18
46,7	,	106686	,	-33869	,	-30797	,	16.42992	,	14
46,7	,	106702	,	-33855	,	-30800	,	14.288489	,	10
46,7	,	106718	,	-33855	,	-30808	,	12.409318	,	6
46,7	,	106750	,	-33863	,	-30785	,	10.9587345	,	3
46,7	,	106766	,	-33847	,	-30796	,	9.88382	,	1
46,7	,	106782	,	-33855	,	-30799	,	9.1037445	,	0
46,7	,	106814	,	-33863	,	-30793	,	8.504068	,	0
46,7	,	106830	,	-33861	,	-30795	,	7.81718	,	0
46,7	,	106846	,	-33868	,	-30788	,	6.8063736	,	0
46,7	,	106878	,	-33863	,	-30792	,	5.4146805	,	0
46,7	,	106894	,	-33859	,	-30795	,	3.7848425	,	0
46,7	,	106926	,	-33849	,	-30790	,	2.2554543	,	0
46,7	,	106942	,	-33860	,	-30795	,	1.1678946	,	0
46,7	,	106958	,	-33857	,	-30810	,	0.60104144	,	0
46,7	,	106990	,	-33866	,	-30774	,	0.36224246	,	0
46,7	,	107006	,	-33864	,	-30792	,	0.18223763	,	0
46,7	,	107022	,	-33869	,	-30792	,	-0.13082203	,	0
46,7	,	107054	,	-33865	,	-30792	,	-0.6310066	,	0
46,7	,	107070	,	-33869	,	-30798	,	-1.2527102	,	0
46,7	,	107102	,	-33867	,	-30790	,	-1.8815871	,	0
46,7	,	107118	,	-33880	,	-30800	,	-2.472499	,	0
46,7	,	107134	,	-33877	,	-30798	,	-3.1076937	,	0
46,7	,	107166	,	-33881	,	-30807	,	-3.8602715	,	0
46,7	,	107182	,	-33875	,	-30804	,	-4.652914	,	0
46,7	,	107198	,	-33882	,	-30824	,	-5.321473	,	0
46,7	,	107230	,	-33896	,	-30779	,	-5.834133	,	0
46,7	,	107246	,	-33892	,	-30806	,	-6.360407	,	0
46,7	,	107262	,	-33903	,	-30806	,	-7.0578256	,	0
46,7	,	107294	,	-33907	,	-30819	,	-7.9765196	,	0
46,7	,	107310	,	-33901	,	-30814	,	-9.06928	,	0
46,7	,	107342	,	-33903	,	-30804	,	-10.107907	,	0
46,7	,	107358	,	-33901	,	-30812	,	-10.779323	,	0
46,7	,	107374	,	-33916	,	-30818	,	-10.949067	,	0
46,7	,	107406	,	-33914	,	-30815	,	-10.7618265	,	0
46,7	,	107422	,	-33916	,	-30813	,	-10.4377	,	0
46,7	,	107438	,	-33915	,	-30834	,	-10.055144	,	0
46,7	,	107470	,	-33915	,	-30788	,	-9.575566	,	0
46,7	,	107486	,	-33890	,	-30818	,	-8.820299	,	0
46,7	,	107518	,	-33896	,	-30805	,	-7.4459534	,	0
46,7	,	107534	,	-33876	,	-30804	,	-5.192704	,	1
46,7	,	107550	,	-33868	,	-30813	,	-2.0056767	,	3
46,8	,	107582	,	-33878	,	-30802	,	1.9457524	,	6
46,8	,	107598	,	-33860	,	-30798	,	6.195364	,	9
46,8	,	107614	,	-33860	,	-30803	,	10.242609	,	13
46,8	,	107646	,	-33867	,	-30808	,	13.706153	,	17
46,8	,	107662	,	-33865	,	-30808	,	16.176584	,	20
46,8	,	107678	,	-33855	,	-30836	,	17.389956	,	22
46,8	,	107710	,	-33860	,	-30791	,	17.430977	,	23
46,8	,	107726	,	-33872	,	-30813	,	16.481915	,	22
46,8	,	107758	,	-33865	,	-30810	,	14.619101	,	20
46,8	,	107774	,	-33868	,	-30802	,	12.003726	,	17
46,8	,	107790	,	-33861	,	-30789	,	9.008076	,	14
46,8	,	107822	,	-33845	,	-30800	,	6.1659513	,	10
46,8	,	107838	,	-33850	,	-30801	,	4.045567	,	6
46,8	,	107854	,	-33861	,	-30808	,	2.8824348	,	3
46,8	,	107886	,	-33849	,	-30805	,	2.4544477	,	1
46,8	,	107902	,	-33851	,	-30799	,	2.4693835	,	0
46,8	,	107934	,	-33864	,	-30838	,	2.6996121	,	0
46,8	,	107950	,	-33872	,	-30781	,	2.76719	,	0
46,8	,	107966	,	-33876	,	-30809	,	2.2357676	,	0
46,8	,	107998	,	-33865	,	-30807	,	0.9719368	,	0
46,8	,	108014	,	-33873	,	-30800	,	-0.7498722	,	0
46,8	,	108029	,	-33869	,	-30800	,	-2.5194874	,	0
46,8	,	108061	,	-33869	,	-30816	,	-4.011265	,	0
46,8	,	108078	,	-33874	,	-30811	,	-5.0235844	,	0
46,8	,	108094	,	-33871	,	-30811	,	-5.514357	,	0
46,8	,	108126	,	-33870	,	-30811	,	-5.5344057	,	0
46,8	,	108142	,	-33878	,	-30814	,	-5.1776934	,	0
46,8	,	108174	,	-33889	,	-30832	,	-4.6889715	,	0
46,8	,	108190	,	-33899	,	-30794	,	-4.478016	,	0
46,8	,	108206	,	-33894	,	-30818	,	-4.8756876	,	0
46,8	,	108238	,	-33889	,	-30816	,	-5.8311424	,	0
46,8	,	108254	,	-33897	,	-30810	,	-6.9696507	,	0
46,8	,	108269	,	-33910	,	-30819	,	-8.020376	,	0
46,8	,	108302	,	-33907	,	-30814	,	-8.993878	,	0
46,8	,	108318	,	-33891	,	-30818	,	-9.833525	,	0
46,8	,	108350	,	-33898	,	-30827	,	-10.210107	,	0
46,8	,	108366	,	-33910	,	-30822	,	-9.919493	,	0
46,8	,	108382	,	-33919	,	-30825	,	-9.220957	,	0
46,8	,	108414	,	-33916	,	-30861	,	-8.569571	,	0
46,8	,	108430	,	-33925	,	-30805	,	-8.2334	,	0
46,8	,	108446	,	-33921	,	-30824	,	-8.246153	,	0
46,8	,	108477	,	-33928	,	-30832	,	-8.502954	,	0
46,8	,	108493	,	-33929	,	-30833	,	-8.862952	,	0
46,8	,	108525	,	-33917	,	-30823	,	-9.160414	,	0
46,8	,	108542	,	-33914	,	-30817	,	-9.108091	,	0
46,9	,	108557	,	-33894	,	-30823	,	-8.325987	,	0
46,9	,	108589	,	-33889	,	-30833	,	-6.4680734	,	0
46,9	,	108605	,	-33893	,	-30820	,	-3.4559674	,	1
46,9	,	108622	,	-33883	,	-30822	,	0.35869265	,	4
46,9	,	108654	,	-33883	,	-30839	,	4.4260564	,	7
46,9	,	108669	,	-33885	,	-30793	,	8.221232	,	11
46,9	,	108686	,	-33883	,	-30811	,	11.2652445	,	14
46,9	,	108717	,	-33881	,	-30820	,	13.238874	,	17
46,9	,	108733	,	-33874	,	-30813	,	14.105718	,	18
46,9	,	108766	,	-33888	,	-30815	,	14.00993	,	18
46,9	,	108782	,	-33889	,	-30815	,	13.038823	,	18
46,9	,	108798	,	-33888	,	-30812	,	11.237522	,	17
46,9	,	108829	,	-33883	,	-30813	,	8.83531	,	14
46,9	,	108846	,	-33889	,	-30811	,	6.2247276	,	11
