Data recorded on Tue Jun 27 18-42-54 CAT 2017
Time: 18:43:5
Time		Millis		IR PPG		Red PPG		Filtered		SSF
43,14	,	84461	,	-25956	,	-23753	,	-1.8825291	,	0
43,14	,	84477	,	-25961	,	-23755	,	-2.4179149	,	0
43,14	,	84509	,	-25953	,	-23776	,	-3.353154	,	0
43,14	,	84525	,	-25966	,	-23756	,	-4.4950943	,	0
43,14	,	84541	,	-25960	,	-23755	,	-5.6342416	,	0
43,14	,	84573	,	-25971	,	-23753	,	-6.6487045	,	0
43,14	,	84589	,	-25982	,	-23770	,	-7.5565205	,	0
43,14	,	84605	,	-25992	,	-23772	,	-8.565156	,	0
43,14	,	84637	,	-25994	,	-23777	,	-9.896574	,	0
43,14	,	84653	,	-25986	,	-23776	,	-11.498058	,	0
43,14	,	84685	,	-25991	,	-23782	,	-12.997299	,	0
43,14	,	84701	,	-26004	,	-23784	,	-14.0528965	,	0
43,14	,	84717	,	-26002	,	-23782	,	-14.639404	,	0
43,14	,	84749	,	-25981	,	-23775	,	-14.7492485	,	0
43,14	,	84765	,	-25981	,	-23752	,	-14.075006	,	0
43,14	,	84781	,	-25963	,	-23769	,	-12.243219	,	0
43,14	,	84813	,	-25948	,	-23762	,	-9.046299	,	1
43,14	,	84829	,	-25938	,	-23757	,	-4.4448104	,	4
43,14	,	84861	,	-25950	,	-23745	,	1.232552	,	8
43,14	,	84877	,	-25938	,	-23745	,	7.1892486	,	13
43,14	,	84893	,	-25943	,	-23735	,	12.536869	,	18
43,14	,	84925	,	-25927	,	-23752	,	16.698915	,	23
43,14	,	84941	,	-25934	,	-23747	,	19.479797	,	27
43,14	,	84957	,	-25945	,	-23741	,	20.815931	,	29
43,14	,	84989	,	-25933	,	-23751	,	20.630611	,	30
43,14	,	85005	,	-25942	,	-23724	,	19.049126	,	29
43,14	,	85021	,	-25947	,	-23749	,	16.388828	,	26
43,14	,	85053	,	-25933	,	-23745	,	13.013729	,	22
43,14	,	85069	,	-25930	,	-23742	,	9.460659	,	17
43,14	,	85101	,	-25937	,	-23750	,	6.3145027	,	12
43,14	,	85117	,	-25934	,	-23750	,	3.8625894	,	7
43,14	,	85133	,	-25937	,	-23754	,	2.097846	,	3
43,14	,	85165	,	-25936	,	-23745	,	0.9074931	,	1
43,14	,	85181	,	-25937	,	-23756	,	0.16144407	,	0
43,14	,	85197	,	-25930	,	-23755	,	-0.2242344	,	0
43,14	,	85229	,	-25934	,	-23767	,	-0.27733117	,	0
43,14	,	85245	,	-25951	,	-23736	,	-0.14557329	,	0
43,14	,	85276	,	-25949	,	-23761	,	-0.18865897	,	0
43,14	,	85293	,	-25958	,	-23765	,	-0.7281908	,	0
43,14	,	85309	,	-25960	,	-23754	,	-1.8577135	,	0
43,14	,	85341	,	-25956	,	-23768	,	-3.4569955	,	0
43,14	,	85357	,	-25957	,	-23767	,	-5.205309	,	0
43,14	,	85373	,	-25964	,	-23770	,	-6.749666	,	0
43,14	,	85405	,	-25970	,	-23769	,	-7.95033	,	0
43,14	,	85421	,	-25976	,	-23763	,	-8.891667	,	0
43,14	,	85453	,	-25965	,	-23778	,	-9.65245	,	0
43,15	,	85469	,	-25980	,	-23787	,	-10.168891	,	0
43,15	,	85485	,	-25979	,	-23751	,	-10.406825	,	0
43,15	,	85517	,	-25982	,	-23780	,	-10.448099	,	0
43,15	,	85533	,	-25989	,	-23782	,	-10.379809	,	0
43,15	,	85548	,	-26002	,	-23783	,	-10.341482	,	0
43,15	,	85580	,	-25991	,	-23784	,	-10.494017	,	0
43,15	,	85597	,	-25975	,	-23778	,	-10.686272	,	0
43,15	,	85613	,	-25965	,	-23776	,	-10.361206	,	0
43,15	,	85645	,	-25954	,	-23768	,	-8.933731	,	0
43,15	,	85660	,	-25950	,	-23773	,	-6.1535473	,	1
43,15	,	85692	,	-25943	,	-23763	,	-2.1906433	,	3
43,15	,	85709	,	-25938	,	-23777	,	2.4927578	,	6
43,15	,	85725	,	-25950	,	-23744	,	7.266794	,	10
43,15	,	85757	,	-25935	,	-23743	,	11.439056	,	14
43,15	,	85772	,	-25933	,	-23756	,	14.558781	,	18
43,15	,	85788	,	-25938	,	-23766	,	16.513695	,	21
43,15	,	85820	,	-25930	,	-23757	,	17.31603	,	22
43,15	,	85836	,	-25937	,	-23754	,	17.052923	,	22
43,15	,	85868	,	-25933	,	-23768	,	15.885971	,	21
43,15	,	85884	,	-25929	,	-23765	,	14.045966	,	19
43,15	,	85900	,	-25928	,	-23750	,	11.874693	,	16
43,15	,	85932	,	-25930	,	-23752	,	9.703013	,	12
43,15	,	85949	,	-25946	,	-23774	,	7.6345654	,	8
43,15	,	85965	,	-25932	,	-23744	,	5.5686817	,	4
43,15	,	85996	,	-25940	,	-23762	,	3.492962	,	1
43,15	,	86013	,	-25940	,	-23769	,	1.5437481	,	0
43,15	,	86044	,	-25943	,	-23759	,	-0.1776371	,	0
43,15	,	86060	,	-25936	,	-23770	,	-1.5993862	,	0
43,15	,	86076	,	-25941	,	-23752	,	-2.6164396	,	0
43,15	,	86108	,	-25950	,	-23762	,	-3.218976	,	0
43,15	,	86124	,	-25959	,	-23775	,	-3.630496	,	0
43,15	,	86140	,	-25962	,	-23770	,	-4.189048	,	0
43,15	,	86172	,	-25959	,	-23776	,	-5.0672197	,	0
43,15	,	86188	,	-25966	,	-23785	,	-6.1789684	,	0
43,15	,	86204	,	-25961	,	-23755	,	-7.318263	,	0
43,15	,	86236	,	-25967	,	-23777	,	-8.273563	,	0
43,15	,	86252	,	-25970	,	-23778	,	-8.909458	,	0
43,15	,	86284	,	-25985	,	-23778	,	-9.286627	,	0
43,15	,	86300	,	-25980	,	-23774	,	-9.618075	,	0
43,15	,	86316	,	-25986	,	-23780	,	-10.027898	,	0
43,15	,	86348	,	-25988	,	-23788	,	-10.4734125	,	0
43,15	,	86364	,	-25991	,	-23793	,	-10.87747	,	0
43,15	,	86381	,	-25983	,	-23788	,	-11.133856	,	0
43,15	,	86412	,	-25975	,	-23791	,	-11.009199	,	0
43,15	,	86428	,	-25965	,	-23756	,	-10.171814	,	0
43,15	,	86460	,	-25959	,	-23774	,	-8.3545265	,	0
43,16	,	86476	,	-25939	,	-23772	,	-5.443553	,	1
43,16	,	86492	,	-25950	,	-23772	,	-1.5269084	,	3
43,16	,	86524	,	-25931	,	-23760	,	3.019935	,	6
43,16	,	86540	,	-25938	,	-23766	,	7.6585007	,	10
43,16	,	86556	,	-25941	,	-23763	,	11.819026	,	14
43,16	,	86588	,	-25946	,	-23762	,	14.905634	,	18
43,16	,	86604	,	-25944	,	-23771	,	16.481503	,	21
43,16	,	86620	,	-25948	,	-23763	,	16.449223	,	22
43,16	,	86652	,	-25945	,	-23783	,	15.01119	,	22
43,16	,	86668	,	-25943	,	-23749	,	12.57505	,	21
43,16	,	86700	,	-25933	,	-23768	,	9.699636	,	19
43,16	,	86716	,	-25943	,	-23768	,	6.9491744	,	16
43,16	,	86732	,	-25942	,	-23767	,	4.6413913	,	12
43,16	,	86764	,	-25939	,	-23764	,	2.828504	,	8
43,16	,	86780	,	-25934	,	-23767	,	1.5191753	,	4
43,16	,	86796	,	-25940	,	-23762	,	0.7334752	,	1
43,16	,	86828	,	-25942	,	-23774	,	0.3782016	,	0
43,16	,	86844	,	-25946	,	-23761	,	0.23604536	,	0
43,16	,	86876	,	-25942	,	-23771	,	0.1054388	,	0
43,16	,	86892	,	-25954	,	-23774	,	-0.13893043	,	0
43,16	,	86908	,	-25945	,	-23743	,	-0.58286	,	0
43,16	,	86940	,	-25951	,	-23763	,	-1.2136989	,	0
43,16	,	86956	,	-25954	,	-23771	,	-1.9301696	,	0
43,16	,	86972	,	-25958	,	-23768	,	-2.6799872	,	0
43,16	,	87004	,	-25962	,	-23775	,	-3.4806645	,	0
43,16	,	87020	,	-25972	,	-23783	,	-4.396412	,	0
43,16	,	87036	,	-25959	,	-23759	,	-5.453665	,	0
43,16	,	87068	,	-25972	,	-23779	,	-6.5138283	,	0
43,16	,	87084	,	-25974	,	-23772	,	-7.423687	,	0
43,16	,	87116	,	-25977	,	-23782	,	-8.1749	,	0
43,16	,	87132	,	-25990	,	-23794	,	-8.845405	,	0
43,16	,	87148	,	-25991	,	-23769	,	-9.570162	,	0
43,16	,	87180	,	-26001	,	-23787	,	-10.470556	,	0
43,16	,	87195	,	-26007	,	-23793	,	-11.585567	,	0
43,16	,	87212	,	-26002	,	-23790	,	-12.847105	,	0
43,16	,	87244	,	-26014	,	-23782	,	-14.058842	,	0
43,16	,	87260	,	-25992	,	-23789	,	-14.933567	,	0
43,16	,	87292	,	-25973	,	-23788	,	-14.977265	,	0
43,16	,	87308	,	-25963	,	-23774	,	-13.525383	,	0
43,16	,	87324	,	-25946	,	-23767	,	-10.161182	,	1
43,16	,	87356	,	-25937	,	-23775	,	-4.937447	,	4
43,16	,	87372	,	-25950	,	-23788	,	1.5868154	,	9
43,16	,	87388	,	-25931	,	-23748	,	8.425242	,	15
43,16	,	87420	,	-25943	,	-23755	,	14.579449	,	21
43,16	,	87436	,	-25926	,	-23753	,	19.361425	,	27
43,17	,	87467	,	-25940	,	-23759	,	22.419039	,	31
43,17	,	87483	,	-25932	,	-23765	,	23.648026	,	34
43,17	,	87499	,	-25938	,	-23754	,	23.130074	,	35
43,17	,	87531	,	-25942	,	-23758	,	21.11322	,	34
43,17	,	87547	,	-25927	,	-23762	,	18.008667	,	31
43,17	,	87563	,	-25929	,	-23761	,	14.427357	,	26
43,17	,	87596	,	-25919	,	-23747	,	11.030092	,	20
43,17	,	87612	,	-25924	,	-23761	,	8.279658	,	14
43,17	,	87628	,	-25913	,	-23728	,	6.3808355	,	8
43,17	,	87659	,	-25917	,	-23762	,	5.3482175	,	4
43,17	,	87675	,	-25924	,	-23758	,	5.004488	,	1
43,17	,	87707	,	-25924	,	-23762	,	4.974735	,	0
43,17	,	87723	,	-25932	,	-23747	,	4.851038	,	0
43,17	,	87739	,	-25929	,	-23756	,	4.354298	,	0
43,17	,	87771	,	-25933	,	-23757	,	3.4017107	,	0
43,17	,	87788	,	-25932	,	-23756	,	2.0917413	,	0
43,17	,	87804	,	-25940	,	-23763	,	0.57987976	,	0
43,17	,	87835	,	-25943	,	-23761	,	-1.038826	,	0
43,17	,	87852	,	-25933	,	-23771	,	-2.6672006	,	0
43,17	,	87883	,	-25951	,	-23745	,	-4.144516	,	0
43,17	,	87899	,	-25952	,	-23767	,	-5.4331865	,	0
43,17	,	87915	,	-25965	,	-23767	,	-6.6864343	,	0
43,17	,	87947	,	-25962	,	-23766	,	-8.049474	,	0
43,17	,	87963	,	-25968	,	-23761	,	-9.509129	,	0
43,17	,	87980	,	-25972	,	-23765	,	-10.929452	,	0
43,17	,	88011	,	-25986	,	-23775	,	-12.228494	,	0
43,17	,	88027	,	-25967	,	-23771	,	-13.358669	,	0
43,17	,	88043	,	-25970	,	-23772	,	-14.070775	,	0
43,17	,	88075	,	-25985	,	-23785	,	-14.092188	,	0
43,17	,	88091	,	-25983	,	-23791	,	-13.5131855	,	0
43,17	,	88123	,	-25984	,	-23752	,	-12.6254425	,	0
43,17	,	88139	,	-25976	,	-23779	,	-11.564521	,	0
43,17	,	88155	,	-25968	,	-23774	,	-10.245727	,	1
43,17	,	88187	,	-25955	,	-23770	,	-8.439579	,	2
43,17	,	88203	,	-25948	,	-23763	,	-5.9039674	,	3
43,17	,	88219	,	-25937	,	-23763	,	-2.538413	,	5
43,17	,	88251	,	-25942	,	-23764	,	1.49809	,	8
43,17	,	88267	,	-25933	,	-23751	,	5.7759933	,	12
43,17	,	88299	,	-25918	,	-23755	,	9.855178	,	16
43,17	,	88315	,	-25918	,	-23755	,	13.5240345	,	20
43,17	,	88331	,	-25923	,	-23773	,	16.608292	,	23
43,17	,	88363	,	-25927	,	-23729	,	18.75238	,	25
43,17	,	88379	,	-25928	,	-23758	,	19.57713	,	26
43,17	,	88395	,	-25926	,	-23746	,	18.953781	,	25
43,17	,	88427	,	-25926	,	-23754	,	17.082571	,	23
43,17	,	88443	,	-25910	,	-23746	,	14.439542	,	20
43,17	,	88459	,	-25914	,	-23751	,	11.663236	,	16
43,18	,	88491	,	-25919	,	-23754	,	9.229602	,	12
43,18	,	88507	,	-25910	,	-23740	,	7.269156	,	8
43,18	,	88539	,	-25923	,	-23755	,	5.740847	,	5
43,18	,	88555	,	-25917	,	-23752	,	4.5198565	,	2
43,18	,	88571	,	-25926	,	-23761	,	3.4291513	,	0
43,18	,	88603	,	-25937	,	-23737	,	2.2742958	,	0
43,18	,	88619	,	-25924	,	-23755	,	0.89178014	,	0
43,18	,	88635	,	-25923	,	-23749	,	-0.6254071	,	0
43,18	,	88667	,	-25933	,	-23756	,	-1.9950984	,	0
43,18	,	88683	,	-25934	,	-23754	,	-3.101985	,	0
43,18	,	88715	,	-25952	,	-23758	,	-4.083763	,	0
43,18	,	88731	,	-25943	,	-23762	,	-5.1615534	,	0
43,18	,	88747	,	-25951	,	-23763	,	-6.3998494	,	0
43,18	,	88779	,	-25951	,	-23755	,	-7.667475	,	0
43,18	,	88795	,	-25953	,	-23751	,	-8.801344	,	0
43,18	,	88811	,	-25959	,	-23774	,	-9.6873	,	0
43,18	,	88843	,	-25963	,	-23746	,	-10.301889	,	0
43,18	,	88859	,	-25968	,	-23767	,	-10.716879	,	0
43,18	,	88875	,	-25973	,	-23759	,	-11.033873	,	0
43,18	,	88907	,	-25969	,	-23767	,	-11.301065	,	0
43,18	,	88923	,	-25991	,	-23773	,	-11.540546	,	0
43,18	,	88955	,	-25986	,	-23775	,	-11.872554	,	0
43,18	,	88971	,	-25993	,	-23764	,	-12.400206	,	0
43,18	,	88987	,	-25978	,	-23774	,	-12.978287	,	0
43,18	,	89019	,	-25974	,	-23769	,	-13.202139	,	0
43,18	,	89035	,	-25940	,	-23759	,	-12.483784	,	0
43,18	,	89051	,	-25947	,	-23767	,	-10.244455	,	0
43,18	,	89082	,	-25927	,	-23748	,	-6.3047924	,	2
43,18	,	89098	,	-25923	,	-23751	,	-0.98360825	,	5
43,18	,	89131	,	-25914	,	-23750	,	5.1466417	,	10
43,18	,	89146	,	-25925	,	-23747	,	11.338833	,	16
43,18	,	89162	,	-25918	,	-23750	,	16.72012	,	22
43,18	,	89194	,	-25905	,	-23736	,	20.656887	,	27
43,18	,	89211	,	-25918	,	-23746	,	22.971317	,	30
43,18	,	89227	,	-25918	,	-23748	,	23.646435	,	32
43,18	,	89258	,	-25900	,	-23749	,	22.77334	,	32
43,18	,	89274	,	-25899	,	-23750	,	20.829964	,	30
43,18	,	89307	,	-25901	,	-23756	,	18.459127	,	27
43,18	,	89323	,	-25902	,	-23725	,	16.03889	,	22
43,18	,	89339	,	-25896	,	-23730	,	13.704169	,	16
43,18	,	89370	,	-25901	,	-23735	,	11.538551	,	10
43,18	,	89386	,	-25908	,	-23733	,	9.542103	,	5
43,18	,	89402	,	-25900	,	-23744	,	7.6224356	,	2
43,18	,	89434	,	-25905	,	-23735	,	5.761597	,	0
43,18	,	89450	,	-25907	,	-23732	,	4.020591	,	0
43,19	,	89467	,	-25922	,	-23738	,	2.3579493	,	0
43,19	,	89499	,	-25921	,	-23732	,	0.5936115	,	0
43,19	,	89515	,	-25925	,	-23743	,	-1.390574	,	0
43,19	,	89546	,	-25928	,	-23750	,	-3.5163221	,	0
43,19	,	89562	,	-25938	,	-23735	,	-5.640684	,	0
43,19	,	89578	,	-25935	,	-23755	,	-7.66364	,	0
43,19	,	89610	,	-25933	,	-23751	,	-9.427153	,	0
43,19	,	89626	,	-25940	,	-23757	,	-10.708651	,	0
43,19	,	89642	,	-25947	,	-23757	,	-11.437166	,	0
43,19	,	89674	,	-25942	,	-23761	,	-11.722427	,	0
43,19	,	89690	,	-25958	,	-23769	,	-11.699857	,	0
43,19	,	89722	,	-25969	,	-23766	,	-11.603899	,	0
43,19	,	89738	,	-25969	,	-23771	,	-11.765615	,	0
43,19	,	89754	,	-25960	,	-23769	,	-12.263665	,	0
43,19	,	89786	,	-25967	,	-23780	,	-12.807851	,	0
43,19	,	89802	,	-25978	,	-23783	,	-13.12368	,	0
43,19	,	89818	,	-25983	,	-23780	,	-13.244757	,	0
43,19	,	89850	,	-25984	,	-23784	,	-13.3413105	,	0
43,19	,	89866	,	-25972	,	-23783	,	-13.40301	,	0
43,19	,	89882	,	-25966	,	-23776	,	-13.128454	,	0
43,19	,	89914	,	-25949	,	-23776	,	-12.060822	,	0
43,19	,	89930	,	-25924	,	-23762	,	-9.725267	,	1
43,19	,	89962	,	-25927	,	-23767	,	-5.802253	,	3
43,19	,	89978	,	-25920	,	-23754	,	-0.47197247	,	6
43,19	,	89994	,	-25921	,	-23765	,	5.544248	,	11
43,19	,	90026	,	-25914	,	-23759	,	11.36529	,	17
43,19	,	90042	,	-25913	,	-23759	,	16.277895	,	22
43,19	,	90058	,	-25915	,	-23760	,	19.814964	,	26
43,19	,	90090	,	-25921	,	-23752	,	21.689917	,	29
43,19	,	90106	,	-25923	,	-23755	,	21.777315	,	30
43,19	,	90138	,	-25917	,	-23757	,	20.208513	,	29
43,19	,	90154	,	-25917	,	-23763	,	17.421885	,	27
43,19	,	90170	,	-25917	,	-23761	,	14.005167	,	24
43,19	,	90202	,	-25905	,	-23751	,	10.529973	,	19
43,19	,	90218	,	-25909	,	-23760	,	7.506384	,	13
43,19	,	90234	,	-25917	,	-23768	,	5.20169	,	8
43,19	,	90266	,	-25907	,	-23749	,	3.5615969	,	4
43,19	,	90282	,	-25903	,	-23751	,	2.4982395	,	1
43,19	,	90298	,	-25910	,	-23764	,	1.9969516	,	0
43,19	,	90330	,	-25916	,	-23763	,	1.8925287	,	0
43,19	,	90346	,	-25910	,	-23769	,	1.8782581	,	0
43,19	,	90378	,	-25914	,	-23766	,	1.7515036	,	0
43,19	,	90394	,	-25918	,	-23764	,	1.4421568	,	0
43,19	,	90410	,	-25922	,	-23765	,	0.8859443	,	0
43,19	,	90442	,	-25930	,	-23776	,	0.0036879778	,	0
43,20	,	90458	,	-25915	,	-23765	,	-1.1775122	,	0
43,20	,	90474	,	-25942	,	-23782	,	-2.50431	,	0
43,20	,	90506	,	-25929	,	-23762	,	-3.8992376	,	0
43,20	,	90522	,	-25934	,	-23774	,	-5.307933	,	0
43,20	,	90554	,	-25949	,	-23785	,	-6.616926	,	0
43,20	,	90570	,	-25947	,	-23787	,	-7.8500056	,	0
43,20	,	90586	,	-25948	,	-23781	,	-9.061433	,	0
43,20	,	90618	,	-25957	,	-23779	,	-10.168386	,	0
43,20	,	90634	,	-25959	,	-23783	,	-11.098943	,	0
43,20	,	90650	,	-25966	,	-23784	,	-11.863544	,	0
43,20	,	90682	,	-25971	,	-23792	,	-12.511034	,	0
43,20	,	90698	,	-25967	,	-23792	,	-13.060383	,	0
43,20	,	90714	,	-25961	,	-23794	,	-13.374186	,	0
43,20	,	90746	,	-25946	,	-23767	,	-13.117815	,	0
43,20	,	90762	,	-25946	,	-23773	,	-11.913251	,	0
43,20	,	90794	,	-25922	,	-23776	,	-9.522706	,	1
43,20	,	90810	,	-25919	,	-23767	,	-5.867379	,	3
43,20	,	90826	,	-25918	,	-23768	,	-1.1202841	,	6
43,20	,	90858	,	-25920	,	-23757	,	4.1417303	,	10
43,20	,	90874	,	-25906	,	-23760	,	9.17478	,	15
43,20	,	90890	,	-25900	,	-23759	,	13.489807	,	20
43,20	,	90921	,	-25907	,	-23774	,	16.865402	,	24
43,20	,	90938	,	-25918	,	-23774	,	19.029093	,	27
43,20	,	90970	,	-25917	,	-23765	,	19.632046	,	29
43,20	,	90986	,	-25915	,	-23745	,	18.582932	,	28
43,20	,	91002	,	-25916	,	-23776	,	16.185654	,	26
43,20	,	91034	,	-25906	,	-23764	,	12.993263	,	23
43,20	,	91050	,	-25899	,	-23765	,	9.686846	,	19
43,20	,	91066	,	-25894	,	-23754	,	6.931747	,	14
43,20	,	91098	,	-25915	,	-23755	,	5.0491934	,	9
43,20	,	91114	,	-25918	,	-23769	,	3.79422	,	5
43,20	,	91145	,	-25910	,	-23776	,	2.6963077	,	2
43,20	,	91161	,	-25911	,	-23781	,	1.5763311	,	0
43,20	,	91178	,	-25916	,	-23778	,	0.51594114	,	0
43,20	,	91210	,	-25908	,	-23784	,	-0.39736795	,	0
43,20	,	91226	,	-25923	,	-23751	,	-1.1340208	,	0
43,20	,	91242	,	-25924	,	-23781	,	-1.7937078	,	0
43,20	,	91274	,	-25936	,	-23784	,	-2.5978148	,	0
43,20	,	91290	,	-25928	,	-23788	,	-3.6936362	,	0
43,20	,	91306	,	-25932	,	-23783	,	-4.993942	,	0
43,20	,	91338	,	-25931	,	-23790	,	-6.2431216	,	0
43,20	,	91353	,	-25934	,	-23790	,	-7.211318	,	0
43,20	,	91385	,	-25944	,	-23791	,	-7.828931	,	0
43,20	,	91401	,	-25950	,	-23794	,	-8.236471	,	0
43,20	,	91417	,	-25953	,	-23776	,	-8.665108	,	0
43,20	,	91449	,	-25961	,	-23810	,	-9.260609	,	0
43,21	,	91466	,	-25957	,	-23771	,	-10.02874	,	0
43,21	,	91482	,	-25958	,	-23798	,	-10.811704	,	0
43,21	,	91513	,	-25967	,	-23803	,	-11.393878	,	0
43,21	,	91529	,	-25955	,	-23796	,	-11.644648	,	0
43,21	,	91561	,	-25935	,	-23793	,	-11.337834	,	0
43,21	,	91578	,	-25934	,	-23786	,	-10.051053	,	0
43,21	,	91594	,	-25913	,	-23779	,	-7.4629884	,	1
43,21	,	91625	,	-25904	,	-23778	,	-3.5123076	,	3
43,21	,	91641	,	-25910	,	-23784	,	1.5525417	,	6
43,21	,	91657	,	-25910	,	-23774	,	7.045974	,	11
43,21	,	91689	,	-25894	,	-23788	,	12.127747	,	16
43,21	,	91705	,	-25888	,	-23760	,	16.308748	,	21
43,21	,	91721	,	-25899	,	-23773	,	19.410267	,	25
43,21	,	91753	,	-25890	,	-23768	,	21.249578	,	28
43,21	,	91769	,	-25884	,	-23751	,	21.760468	,	29
43,21	,	91801	,	-25888	,	-23762	,	21.150097	,	28
43,21	,	91817	,	-25883	,	-23760	,	19.707724	,	26
43,21	,	91833	,	-25880	,	-23755	,	17.711643	,	23
43,21	,	91865	,	-25884	,	-23769	,	15.438709	,	18
43,21	,	91881	,	-25887	,	-23760	,	13.054738	,	13
43,21	,	91897	,	-25886	,	-23751	,	10.609779	,	8
43,21	,	91929	,	-25887	,	-23778	,	8.16897	,	4
43,21	,	91945	,	-25889	,	-23740	,	5.8451166	,	1
43,21	,	91977	,	-25887	,	-23769	,	3.7440782	,	0
43,21	,	91993	,	-25887	,	-23746	,	1.955116	,	0
43,21	,	92009	,	-25896	,	-23755	,	0.5123756	,	0
43,21	,	92041	,	-25888	,	-23753	,	-0.63731754	,	0
43,21	,	92057	,	-25893	,	-23758	,	-1.5328838	,	0
43,21	,	92073	,	-25892	,	-23756	,	-2.1616116	,	0
43,21	,	92105	,	-25897	,	-23750	,	-2.5511408	,	0
43,21	,	92121	,	-25897	,	-23761	,	-2.7952166	,	0
43,21	,	92137	,	-25907	,	-23750	,	-3.0311756	,	0
43,21	,	92169	,	-25907	,	-23772	,	-3.4207292	,	0
43,21	,	92185	,	-25905	,	-23742	,	-4.035025	,	0
43,21	,	92217	,	-25915	,	-23758	,	-4.801241	,	0
43,21	,	92233	,	-25918	,	-23766	,	-5.6619806	,	0
43,21	,	92249	,	-25912	,	-23767	,	-6.5830245	,	0
43,21	,	92281	,	-25914	,	-23762	,	-7.3931813	,	0
43,21	,	92297	,	-25922	,	-23757	,	-7.901578	,	0
43,21	,	92313	,	-25928	,	-23766	,	-8.1346855	,	0
43,21	,	92345	,	-25921	,	-23768	,	-8.240651	,	0
43,21	,	92361	,	-25929	,	-23775	,	-8.260535	,	0
43,21	,	92393	,	-25924	,	-23766	,	-8.147124	,	0
43,21	,	92409	,	-25938	,	-23781	,	-7.906737	,	0
43,21	,	92425	,	-25916	,	-23738	,	-7.5689464	,	0
43,21	,	92457	,	-25890	,	-23761	,	-6.8623924	,	0
43,22	,	92473	,	-25883	,	-23756	,	-5.148497	,	0
43,22	,	92489	,	-25875	,	-23749	,	-1.9831641	,	1
43,22	,	92521	,	-25880	,	-23747	,	2.440944	,	4
43,22	,	92537	,	-25876	,	-23741	,	7.404956	,	8
43,22	,	92569	,	-25877	,	-23743	,	12.043	,	12
43,22	,	92585	,	-25864	,	-23749	,	15.727083	,	16
43,22	,	92601	,	-25868	,	-23747	,	18.213724	,	19
43,22	,	92633	,	-25869	,	-23737	,	19.466991	,	21
43,22	,	92649	,	-25862	,	-23754	,	19.521286	,	22
43,22	,	92665	,	-25873	,	-23717	,	18.520107	,	22
43,22	,	92697	,	-25863	,	-23746	,	16.6733	,	21
43,22	,	92713	,	-25857	,	-23736	,	14.292492	,	18
43,22	,	92729	,	-25856	,	-23739	,	11.8289175	,	14
43,22	,	92761	,	-25858	,	-23734	,	9.645518	,	10
43,22	,	92777	,	-25860	,	-23736	,	7.8494453	,	6
43,22	,	92809	,	-25858	,	-23745	,	6.379629	,	3
43,22	,	92825	,	-25857	,	-23725	,	5.1567335	,	1
43,22	,	92841	,	-25867	,	-23727	,	4.1022816	,	0
43,22	,	92873	,	-25869	,	-23742	,	3.0653372	,	0
43,22	,	92889	,	-25868	,	-23749	,	1.8971663	,	0
43,22	,	92904	,	-25879	,	-23722	,	0.5478537	,	0
43,22	,	92937	,	-25862	,	-23740	,	-0.9213599	,	0
43,22	,	92953	,	-25876	,	-23731	,	-2.3046591	,	0
43,22	,	92985	,	-25877	,	-23750	,	-3.4259768	,	0
43,22	,	93001	,	-25883	,	-23732	,	-4.3260593	,	0
43,22	,	93017	,	-25865	,	-23743	,	-5.043752	,	0
43,22	,	93049	,	-25878	,	-23725	,	-5.4269414	,	0
43,22	,	93065	,	-25882	,	-23739	,	-5.3979077	,	0
43,22	,	93081	,	-25890	,	-23735	,	-5.176242	,	0
43,22	,	93112	,	-25881	,	-23746	,	-5.0319123	,	0
43,22	,	93128	,	-25896	,	-23749	,	-5.0548954	,	0
43,22	,	93144	,	-25896	,	-23739	,	-5.2849026	,	0
43,22	,	93177	,	-25900	,	-23752	,	-5.7798853	,	0
43,22	,	93193	,	-25895	,	-23746	,	-6.476824	,	0
43,22	,	93225	,	-25905	,	-23751	,	-7.2024307	,	0
43,22	,	93241	,	-25902	,	-23750	,	-7.828315	,	0
43,22	,	93257	,	-25884	,	-23733	,	-8.187538	,	0
43,22	,	93289	,	-25876	,	-23741	,	-7.893325	,	0
43,22	,	93304	,	-25873	,	-23732	,	-6.554876	,	0
43,22	,	93320	,	-25866	,	-23725	,	-4.113114	,	1
43,22	,	93352	,	-25861	,	-23743	,	-0.8175769	,	3
43,22	,	93369	,	-25848	,	-23720	,	2.9931948	,	6
43,22	,	93401	,	-25834	,	-23721	,	7.0758076	,	9
43,22	,	93417	,	-25844	,	-23720	,	11.221155	,	13
43,22	,	93433	,	-25838	,	-23723	,	15.024585	,	17
43,23	,	93465	,	-25855	,	-23704	,	17.903378	,	20
43,23	,	93480	,	-25865	,	-23725	,	19.254877	,	22
43,23	,	93496	,	-25842	,	-23719	,	18.754717	,	23
43,23	,	93528	,	-25851	,	-23713	,	16.70747	,	22
43,23	,	93544	,	-25836	,	-23716	,	13.841351	,	20
43,23	,	93560	,	-25830	,	-23710	,	10.916856	,	17
43,23	,	93592	,	-25830	,	-23710	,	8.558977	,	14
43,23	,	93608	,	-25839	,	-23718	,	7.0193934	,	10
43,23	,	93640	,	-25838	,	-23705	,	6.107813	,	6
43,23	,	93656	,	-25840	,	-23711	,	5.470496	,	3
43,23	,	93673	,	-25849	,	-23709	,	4.806283	,	1
43,23	,	93704	,	-25841	,	-23717	,	3.9092267	,	0
43,23	,	93720	,	-25855	,	-23713	,	2.706028	,	0
43,23	,	93736	,	-25847	,	-23703	,	1.2347503	,	0
43,23	,	93768	,	-25855	,	-23709	,	-0.38246536	,	0
43,23	,	93784	,	-25857	,	-23717	,	-1.9915679	,	0
43,23	,	93816	,	-25856	,	-23728	,	-3.4840307	,	0
43,23	,	93832	,	-25845	,	-23720	,	-4.6969357	,	0
43,23	,	93848	,	-25865	,	-23711	,	-5.4445753	,	0
43,23	,	93880	,	-25876	,	-23723	,	-5.852813	,	0
43,23	,	93896	,	-25870	,	-23721	,	-6.311436	,	0
43,23	,	93912	,	-25877	,	-23729	,	-7.015476	,	0
43,23	,	93944	,	-25868	,	-23726	,	-7.8420887	,	0
43,23	,	93960	,	-25881	,	-23734	,	-8.5658455	,	0
43,23	,	93977	,	-25882	,	-23728	,	-9.081812	,	0
43,23	,	94008	,	-25877	,	-23729	,	-9.400883	,	0
43,23	,	94024	,	-25896	,	-23716	,	-9.543016	,	0
43,23	,	94056	,	-25896	,	-23733	,	-9.643842	,	0
43,23	,	94072	,	-25886	,	-23750	,	-9.836487	,	0
43,23	,	94088	,	-25887	,	-23721	,	-9.964628	,	0
43,23	,	94120	,	-25861	,	-23725	,	-9.622314	,	0
43,23	,	94136	,	-25847	,	-23713	,	-8.263721	,	0
43,23	,	94152	,	-25847	,	-23705	,	-5.458401	,	1
43,23	,	94184	,	-25832	,	-23713	,	-1.2517776	,	3
43,23	,	94200	,	-25831	,	-23717	,	3.8986108	,	7
43,23	,	94232	,	-25819	,	-23708	,	9.393517	,	12
43,23	,	94248	,	-25820	,	-23711	,	14.633724	,	17
43,23	,	94264	,	-25811	,	-23709	,	19.104189	,	22
43,23	,	94296	,	-25811	,	-23697	,	22.441944	,	26
43,23	,	94312	,	-25812	,	-23703	,	24.439396	,	29
43,23	,	94328	,	-25811	,	-23690	,	24.998142	,	30
43,23	,	94360	,	-25813	,	-23705	,	24.147728	,	29
43,23	,	94376	,	-25807	,	-23700	,	22.097633	,	27
43,23	,	94408	,	-25809	,	-23691	,	19.220741	,	23
43,23	,	94424	,	-25808	,	-23688	,	15.930787	,	18
43,23	,	94440	,	-25805	,	-23690	,	12.583078	,	13
43,24	,	94472	,	-25801	,	-23691	,	9.495821	,	8
43,24	,	94488	,	-25796	,	-23692	,	6.960016	,	4
43,24	,	94504	,	-25795	,	-23700	,	5.180427	,	1
43,24	,	94536	,	-25801	,	-23695	,	4.169801	,	0
43,24	,	94552	,	-25801	,	-23699	,	3.7053432	,	0
43,24	,	94568	,	-25806	,	-23683	,	3.4539478	,	0
43,24	,	94600	,	-25807	,	-23692	,	3.1256807	,	0
43,24	,	94616	,	-25813	,	-23690	,	2.5298924	,	0
43,24	,	94648	,	-25812	,	-23694	,	1.586149	,	0
43,24	,	94664	,	-25819	,	-23695	,	0.32184696	,	0
43,24	,	94680	,	-25817	,	-23688	,	-1.1586757	,	0
43,24	,	94712	,	-25814	,	-23703	,	-2.6681347	,	0
43,24	,	94728	,	-25814	,	-23711	,	-3.9372509	,	0
43,24	,	94744	,	-25831	,	-23705	,	-4.8211045	,	0
43,24	,	94776	,	-25833	,	-23700	,	-5.4923673	,	0
43,24	,	94792	,	-25831	,	-23710	,	-6.211302	,	0
43,24	,	94823	,	-25837	,	-23692	,	-7.0216794	,	0
43,24	,	94840	,	-25831	,	-23714	,	-7.7962255	,	0
43,24	,	94856	,	-25841	,	-23713	,	-8.390462	,	0
43,24	,	94888	,	-25843	,	-23723	,	-8.761039	,	0
43,24	,	94904	,	-25856	,	-23714	,	-9.033079	,	0
43,24	,	94920	,	-25868	,	-23714	,	-9.473296	,	0
43,24	,	94952	,	-25854	,	-23717	,	-10.277958	,	0
43,24	,	94968	,	-25860	,	-23716	,	-11.281127	,	0
43,24	,	94983	,	-25855	,	-23728	,	-12.069002	,	0
43,24	,	95016	,	-25833	,	-23718	,	-12.202557	,	0
43,24	,	95032	,	-25817	,	-23722	,	-11.150328	,	0
43,24	,	95063	,	-25817	,	-23688	,	-8.483397	,	1
43,24	,	95080	,	-25794	,	-23690	,	-4.206012	,	3
43,24	,	95096	,	-25782	,	-23689	,	1.3846931	,	7
43,24	,	95127	,	-25785	,	-23695	,	7.8331623	,	12
43,24	,	95143	,	-25779	,	-23696	,	14.398249	,	18
43,24	,	95159	,	-25773	,	-23680	,	20.228786	,	24
43,24	,	95191	,	-25782	,	-23687	,	24.654875	,	29
43,24	,	95208	,	-25770	,	-23678	,	27.257296	,	33
43,24	,	95239	,	-25779	,	-23690	,	27.925957	,	35
43,24	,	95256	,	-25776	,	-23684	,	26.81276	,	34
43,24	,	95271	,	-25766	,	-23694	,	24.271828	,	32
43,24	,	95303	,	-25773	,	-23665	,	20.860132	,	28
43,24	,	95319	,	-25768	,	-23682	,	17.12526	,	23
43,24	,	95335	,	-25769	,	-23677	,	13.452503	,	17
43,24	,	95368	,	-25752	,	-23675	,	10.18897	,	11
43,24	,	95384	,	-25763	,	-23685	,	7.6709814	,	6
43,24	,	95400	,	-25758	,	-23681	,	6.0078764	,	2
43,24	,	95432	,	-25762	,	-23676	,	5.0221047	,	0
43,24	,	95448	,	-25774	,	-23676	,	4.382924	,	0
43,25	,	95479	,	-25770	,	-23678	,	3.7069805	,	0
43,25	,	95495	,	-25769	,	-23678	,	2.7754595	,	0
43,25	,	95511	,	-25775	,	-23691	,	1.6287444	,	0
43,25	,	95544	,	-25775	,	-23659	,	0.36839974	,	0
43,25	,	95559	,	-25783	,	-23675	,	-0.9612427	,	0
43,25	,	95575	,	-25781	,	-23689	,	-2.3384082	,	0
43,25	,	95607	,	-25789	,	-23683	,	-3.7255037	,	0
43,25	,	95623	,	-25783	,	-23699	,	-5.0455256	,	0
43,25	,	95655	,	-25801	,	-23701	,	-6.2247386	,	0
43,25	,	95671	,	-25794	,	-23697	,	-7.275676	,	0
43,25	,	95687	,	-25800	,	-23696	,	-8.215785	,	0
43,25	,	95719	,	-25803	,	-23690	,	-8.990387	,	0
43,25	,	95735	,	-25802	,	-23700	,	-9.549863	,	0
43,25	,	95751	,	-25800	,	-23714	,	-9.831283	,	0
43,25	,	95783	,	-25803	,	-23680	,	-9.739789	,	0
43,25	,	95799	,	-25814	,	-23694	,	-9.301836	,	0
43,25	,	95831	,	-25821	,	-23694	,	-8.775683	,	0
43,25	,	95847	,	-25828	,	-23702	,	-8.518465	,	0
43,25	,	95863	,	-25807	,	-23697	,	-8.643936	,	0
43,25	,	95895	,	-25791	,	-23695	,	-8.735641	,	0
43,25	,	95911	,	-25778	,	-23684	,	-8.01465	,	0
43,25	,	95927	,	-25767	,	-23685	,	-5.860141	,	0
43,25	,	95959	,	-25767	,	-23692	,	-2.168871	,	2
43,25	,	95975	,	-25767	,	-23692	,	2.5902145	,	5
43,25	,	95991	,	-25762	,	-23692	,	7.6098423	,	9
43,25	,	96023	,	-25751	,	-23667	,	12.174071	,	14
43,25	,	96039	,	-25730	,	-23669	,	15.994747	,	18
43,25	,	96071	,	-25745	,	-23668	,	19.106033	,	21
43,25	,	96087	,	-25748	,	-23678	,	21.376228	,	24
43,25	,	96103	,	-25752	,	-23678	,	22.39935	,	26
43,25	,	96135	,	-25742	,	-23660	,	21.937021	,	27
43,25	,	96151	,	-25737	,	-23667	,	20.215162	,	25
43,25	,	96167	,	-25743	,	-23655	,	17.736362	,	22
43,25	,	96199	,	-25730	,	-23666	,	14.972086	,	18
43,25	,	96215	,	-25745	,	-23664	,	12.265705	,	13
43,25	,	96247	,	-25746	,	-23694	,	9.741428	,	9
43,25	,	96263	,	-25741	,	-23664	,	7.3447313	,	6
43,25	,	96279	,	-25747	,	-23672	,	5.0792637	,	3
43,25	,	96311	,	-25757	,	-23676	,	2.9659762	,	1
43,25	,	96327	,	-25761	,	-23673	,	0.8913615	,	0
43,25	,	96343	,	-25760	,	-23670	,	-1.254569	,	0
43,25	,	96375	,	-25769	,	-23683	,	-3.4294262	,	0
43,25	,	96391	,	-25761	,	-23682	,	-5.4822016	,	0
43,25	,	96407	,	-25772	,	-23686	,	-7.224372	,	0
43,25	,	96439	,	-25777	,	-23692	,	-8.562419	,	0
43,25	,	96455	,	-25781	,	-23681	,	-9.574227	,	0
43,26	,	96487	,	-25787	,	-23695	,	-10.38851	,	0
43,26	,	96503	,	-25789	,	-23685	,	-11.089191	,	0
43,26	,	96518	,	-25792	,	-23708	,	-11.69512	,	0
43,26	,	96551	,	-25794	,	-23694	,	-12.166269	,	0
43,26	,	96567	,	-25792	,	-23699	,	-12.423282	,	0
43,26	,	96583	,	-25808	,	-23699	,	-12.424914	,	0
43,26	,	96615	,	-25803	,	-23709	,	-12.264111	,	0
43,26	,	96631	,	-25821	,	-23704	,	-12.115477	,	0
43,26	,	96663	,	-25823	,	-23704	,	-12.174137	,	0
43,26	,	96679	,	-25817	,	-23717	,	-12.5292845	,	0
43,26	,	96695	,	-25816	,	-23716	,	-12.975065	,	0
43,26	,	96727	,	-25827	,	-23716	,	-13.196007	,	0
43,26	,	96743	,	-25832	,	-23715	,	-13.114294	,	0
43,26	,	96759	,	-25820	,	-23715	,	-12.80773	,	0
43,26	,	96791	,	-25800	,	-23704	,	-12.111917	,	0
43,26	,	96807	,	-25795	,	-23705	,	-10.5603485	,	0
43,26	,	96839	,	-25787	,	-23710	,	-7.8087273	,	1
43,26	,	96855	,	-25780	,	-23696	,	-3.9158292	,	3
43,26	,	96871	,	-25770	,	-23694	,	0.7849302	,	6
43,26	,	96903	,	-25782	,	-23692	,	5.784007	,	10
43,26	,	96918	,	-25769	,	-23706	,	10.41836	,	14
43,26	,	96934	,	-25755	,	-23697	,	14.210304	,	18
43,26	,	96966	,	-25768	,	-23686	,	17.047348	,	21
43,26	,	96983	,	-25764	,	-23693	,	18.836672	,	23
43,26	,	96999	,	-25763	,	-23694	,	19.422316	,	24
43,26	,	97030	,	-25769	,	-23703	,	18.80579	,	23
43,26	,	97046	,	-25754	,	-23690	,	17.190266	,	21
43,26	,	97079	,	-25760	,	-23674	,	14.959595	,	18
43,26	,	97095	,	-25757	,	-23690	,	12.522354	,	14
43,26	,	97110	,	-25770	,	-23685	,	10.085318	,	10
43,26	,	97142	,	-25750	,	-23684	,	7.723888	,	6
43,26	,	97158	,	-25763	,	-23690	,	5.5966845	,	3
43,26	,	97174	,	-25770	,	-23690	,	3.806417	,	1
43,26	,	97207	,	-25747	,	-23673	,	2.319499	,	0
43,26	,	97223	,	-25769	,	-23691	,	1.192141	,	0
43,26	,	97255	,	-25757	,	-23690	,	0.45281363	,	0
43,26	,	97271	,	-25777	,	-23704	,	-0.07457924	,	0
43,26	,	97287	,	-25773	,	-23707	,	-0.65805286	,	0
43,26	,	97318	,	-25777	,	-23697	,	-1.4905411	,	0
43,26	,	97334	,	-25783	,	-23694	,	-2.5961876	,	0
43,26	,	97350	,	-25786	,	-23702	,	-3.9185615	,	0
43,26	,	97383	,	-25781	,	-23693	,	-5.341732	,	0
43,26	,	97398	,	-25798	,	-23710	,	-6.7016644	,	0
43,26	,	97414	,	-25802	,	-23721	,	-7.981259	,	0
43,26	,	97446	,	-25804	,	-23694	,	-9.285759	,	0
43,27	,	97462	,	-25799	,	-23724	,	-10.567691	,	0
43,27	,	97495	,	-25818	,	-23720	,	-11.651075	,	0
43,27	,	97510	,	-25821	,	-23716	,	-12.528913	,	0
43,27	,	97526	,	-25821	,	-23720	,	-13.329806	,	0
43,27	,	97558	,	-25832	,	-23726	,	-14.088714	,	0
43,27	,	97574	,	-25824	,	-23725	,	-14.742931	,	0
43,27	,	97590	,	-25830	,	-23734	,	-15.152202	,	0
43,27	,	97622	,	-25828	,	-23726	,	-15.146029	,	0
43,27	,	97639	,	-25839	,	-23740	,	-14.681368	,	0
43,27	,	97670	,	-25844	,	-23749	,	-13.919537	,	0
43,27	,	97686	,	-25849	,	-23723	,	-13.137581	,	0
43,27	,	97702	,	-25829	,	-23724	,	-12.440878	,	0
43,27	,	97734	,	-25816	,	-23723	,	-11.503491	,	0
43,27	,	97750	,	-25808	,	-23721	,	-9.755977	,	0
43,27	,	97766	,	-25804	,	-23710	,	-6.866852	,	1
43,27	,	97798	,	-25805	,	-23717	,	-2.9819899	,	3
43,27	,	97814	,	-25803	,	-23715	,	1.3745399	,	6
43,27	,	97830	,	-25806	,	-23713	,	5.539672	,	10
43,27	,	97862	,	-25787	,	-23708	,	9.017508	,	14
43,27	,	97878	,	-25777	,	-23711	,	11.743911	,	17
43,27	,	97910	,	-25778	,	-23724	,	13.948952	,	19
43,27	,	97926	,	-25789	,	-23697	,	15.674328	,	21
43,27	,	97942	,	-25786	,	-23715	,	16.631739	,	22
43,27	,	97974	,	-25783	,	-23715	,	16.568676	,	21
43,27	,	97990	,	-25781	,	-23710	,	15.54788	,	19
43,27	,	98006	,	-25775	,	-23717	,	13.877102	,	16
43,27	,	98038	,	-25778	,	-23721	,	11.93338	,	12
43,27	,	98054	,	-25775	,	-23712	,	10.006828	,	8
43,27	,	98086	,	-25781	,	-23695	,	8.227121	,	5
43,27	,	98102	,	-25773	,	-23709	,	6.629454	,	3
43,27	,	98118	,	-25783	,	-23707	,	5.2245154	,	1
43,27	,	98150	,	-25782	,	-23727	,	3.9643695	,	0
43,27	,	98166	,	-25773	,	-23697	,	2.8107617	,	0
43,27	,	98182	,	-25786	,	-23725	,	1.8172166	,	0
43,27	,	98214	,	-25789	,	-23718	,	0.94631135	,	0
43,27	,	98230	,	-25787	,	-23713	,	0.03941548	,	0
43,27	,	98262	,	-25792	,	-23723	,	-0.96601	,	0
43,27	,	98278	,	-25796	,	-23709	,	-2.0385907	,	0
43,27	,	98294	,	-25791	,	-23711	,	-3.1246746	,	0
43,27	,	98326	,	-25801	,	-23717	,	-4.132032	,	0
43,27	,	98342	,	-25806	,	-23732	,	-5.036378	,	0
43,27	,	98358	,	-25806	,	-23727	,	-5.910238	,	0
43,27	,	98390	,	-25814	,	-23742	,	-6.7937617	,	0
43,27	,	98406	,	-25807	,	-23716	,	-7.6462374	,	0
43,27	,	98422	,	-25823	,	-23740	,	-8.393599	,	0
43,27	,	98454	,	-25837	,	-23737	,	-9.116102	,	0
43,28	,	98470	,	-25831	,	-23751	,	-10.046757	,	0
43,28	,	98502	,	-25839	,	-23737	,	-11.232007	,	0
43,28	,	98518	,	-25854	,	-23741	,	-12.546084	,	0
43,28	,	98534	,	-25849	,	-23748	,	-13.927542	,	0
43,28	,	98566	,	-25856	,	-23746	,	-15.273666	,	0
43,28	,	98582	,	-25873	,	-23738	,	-16.454174	,	0
43,28	,	98598	,	-25846	,	-23762	,	-17.381937	,	0
43,28	,	98630	,	-25830	,	-23753	,	-17.659042	,	0
43,28	,	98646	,	-25816	,	-23742	,	-16.538664	,	0
43,28	,	98678	,	-25818	,	-23738	,	-13.535664	,	1
43,28	,	98694	,	-25801	,	-23730	,	-8.784815	,	4
43,28	,	98710	,	-25799	,	-23741	,	-2.8256269	,	8
43,28	,	98742	,	-25799	,	-23728	,	3.6206546	,	13
43,28	,	98758	,	-25807	,	-23727	,	9.678536	,	19
43,28	,	98774	,	-25793	,	-23732	,	14.534915	,	25
43,28	,	98806	,	-25799	,	-23734	,	17.768879	,	29
43,28	,	98821	,	-25803	,	-23726	,	19.29979	,	32
43,28	,	98838	,	-25797	,	-23729	,	19.196194	,	33
43,28	,	98870	,	-25798	,	-23727	,	17.726269	,	32
43,28	,	98886	,	-25799	,	-23717	,	15.326975	,	29
43,28	,	98918	,	-25789	,	-23728	,	12.471584	,	25
43,28	,	98933	,	-25791	,	-23725	,	9.638926	,	20
43,28	,	98950	,	-25781	,	-23718	,	7.242778	,	14
43,28	,	98981	,	-25789	,	-23722	,	5.5178075	,	8
43,28	,	98997	,	-25788	,	-23731	,	4.4421115	,	4
43,28	,	99013	,	-25804	,	-23728	,	3.7336109	,	1
43,28	,	99046	,	-25798	,	-23719	,	2.9968622	,	0
43,28	,	99062	,	-25790	,	-23718	,	2.0419662	,	0
43,28	,	99093	,	-25797	,	-23720	,	1.0120895	,	0
43,28	,	99109	,	-25795	,	-23723	,	0.10362351	,	0
43,28	,	99125	,	-25805	,	-23725	,	-0.655118	,	0
43,28	,	99157	,	-25807	,	-23730	,	-1.3827238	,	0
43,28	,	99174	,	-25815	,	-23725	,	-2.2509906	,	0
43,28	,	99190	,	-25806	,	-23720	,	-3.3248296	,	0
43,28	,	99221	,	-25807	,	-23735	,	-4.437588	,	0
43,28	,	99237	,	-25822	,	-23727	,	-5.3720245	,	0
43,28	,	99269	,	-25825	,	-23727	,	-6.1655297	,	0
43,28	,	99285	,	-25826	,	-23734	,	-7.002356	,	0
43,28	,	99301	,	-25823	,	-23740	,	-7.896085	,	0
43,28	,	99333	,	-25819	,	-23737	,	-8.637059	,	0
43,28	,	99349	,	-25835	,	-23738	,	-9.026766	,	0
43,28	,	99366	,	-25837	,	-23736	,	-9.130031	,	0
43,28	,	99397	,	-25847	,	-23749	,	-9.210906	,	0
43,28	,	99414	,	-25848	,	-23732	,	-9.499207	,	0
43,28	,	99429	,	-25852	,	-23745	,	-10.068422	,	0
43,29	,	99461	,	-25864	,	-23742	,	-10.876417	,	0
43,29	,	99477	,	-25870	,	-23745	,	-11.905827	,	0
43,29	,	99509	,	-25868	,	-23744	,	-13.126404	,	0
43,29	,	99525	,	-25878	,	-23746	,	-14.381651	,	0
43,29	,	99541	,	-25876	,	-23755	,	-15.477333	,	0
43,29	,	99573	,	-25838	,	-23758	,	-16.055311	,	0
43,29	,	99589	,	-25835	,	-23746	,	-15.380893	,	0
43,29	,	99605	,	-25825	,	-23744	,	-12.81283	,	0
43,29	,	99637	,	-25822	,	-23743	,	-8.374049	,	2
43,29	,	99653	,	-25815	,	-23734	,	-2.6479654	,	6
43,29	,	99685	,	-25816	,	-23735	,	3.556644	,	11
43,29	,	99701	,	-25806	,	-23730	,	9.443724	,	17
43,29	,	99717	,	-25801	,	-23722	,	14.445391	,	22
43,29	,	99749	,	-25798	,	-23739	,	18.28389	,	27
43,29	,	99765	,	-25796	,	-23722	,	20.850094	,	30
43,29	,	99781	,	-25800	,	-23733	,	22.095648	,	32
43,29	,	99813	,	-25803	,	-23730	,	21.992857	,	33
43,29	,	99829	,	-25794	,	-23717	,	20.61853	,	31
43,29	,	99845	,	-25785	,	-23722	,	18.337593	,	27
43,29	,	99877	,	-25785	,	-23717	,	15.737488	,	22
43,29	,	99893	,	-25787	,	-23715	,	13.28313	,	16
43,29	,	99925	,	-25790	,	-23718	,	11.121041	,	11
43,29	,	99941	,	-25787	,	-23709	,	9.196732	,	6
43,29	,	99957	,	-25787	,	-23718	,	7.457558	,	3
43,29	,	99989	,	-25797	,	-23726	,	5.8681955	,	1
43,29	,	100005	,	-25792	,	-23724	,	4.3410006	,	0
43,29	,	100021	,	-25789	,	-23734	,	2.857962	,	0
43,29	,	100053	,	-25785	,	-23735	,	1.5684428	,	0
43,29	,	100069	,	-25795	,	-23708	,	0.6184194	,	0
43,29	,	100101	,	-25790	,	-23729	,	-0.015323877	,	0
43,29	,	100117	,	-25807	,	-23728	,	-0.51047033	,	0
43,29	,	100133	,	-25799	,	-23729	,	-1.0992886	,	0
43,29	,	100165	,	-25809	,	-23730	,	-1.9133952	,	0
43,29	,	100181	,	-25815	,	-23725	,	-2.972093	,	0
43,29	,	100197	,	-25815	,	-23731	,	-4.2758155	,	0
43,29	,	100229	,	-25830	,	-23728	,	-5.8032703	,	0
43,29	,	100245	,	-25820	,	-23740	,	-7.4885263	,	0
43,29	,	100261	,	-25823	,	-23741	,	-9.122332	,	0
43,29	,	100293	,	-25833	,	-23761	,	-10.421081	,	0
43,29	,	100309	,	-25847	,	-23737	,	-11.358087	,	0
43,29	,	100341	,	-25857	,	-23749	,	-12.227032	,	0
43,29	,	100357	,	-25863	,	-23752	,	-13.354591	,	0
43,29	,	100373	,	-25857	,	-23755	,	-14.789898	,	0
43,29	,	100405	,	-25852	,	-23747	,	-16.193165	,	0
43,29	,	100421	,	-25867	,	-23760	,	-17.110216	,	0
43,29	,	100437	,	-25878	,	-23758	,	-17.42853	,	0
43,30	,	100469	,	-25871	,	-23762	,	-17.36211	,	0
43,30	,	100485	,	-25879	,	-23764	,	-17.059826	,	0
43,30	,	100517	,	-25875	,	-23760	,	-16.516582	,	0
43,30	,	100533	,	-25877	,	-23768	,	-15.688759	,	0
43,30	,	100549	,	-25867	,	-23739	,	-14.495466	,	0
43,30	,	100581	,	-25842	,	-23748	,	-12.703924	,	1
43,30	,	100597	,	-25829	,	-23752	,	-9.870808	,	2
43,30	,	100613	,	-25829	,	-23751	,	-5.6786575	,	4
43,30	,	100645	,	-25820	,	-23743	,	-0.33450937	,	8
43,30	,	100661	,	-25823	,	-23733	,	5.5108156	,	13
43,30	,	100676	,	-25820	,	-23752	,	11.058603	,	18
43,30	,	100709	,	-25816	,	-23746	,	15.615615	,	23
43,30	,	100725	,	-25805	,	-23730	,	18.829077	,	27
43,30	,	100757	,	-25798	,	-23746	,	20.753883	,	30
43,30	,	100773	,	-25817	,	-23744	,	21.569214	,	30
43,30	,	100789	,	-25812	,	-23726	,	21.247124	,	29
43,30	,	100820	,	-25809	,	-23739	,	19.734428	,	27
43,30	,	100836	,	-25809	,	-23735	,	17.267853	,	23
43,30	,	100853	,	-25800	,	-23736	,	14.305371	,	18
43,30	,	100885	,	-25801	,	-23741	,	11.349092	,	13
43,30	,	100901	,	-25801	,	-23735	,	8.773871	,	8
43,30	,	100933	,	-25797	,	-23739	,	6.7371483	,	4
43,30	,	100949	,	-25817	,	-23735	,	5.182509	,	1
43,30	,	100965	,	-25802	,	-23747	,	3.8751397	,	0
43,30	,	100996	,	-25801	,	-23745	,	2.681699	,	0
43,30	,	101012	,	-25804	,	-23749	,	1.7019644	,	0
43,30	,	101029	,	-25814	,	-23724	,	0.9625819	,	0
43,30	,	101061	,	-25820	,	-23752	,	0.24621487	,	0
43,30	,	101077	,	-25808	,	-23737	,	-0.6589408	,	0
43,30	,	101108	,	-25820	,	-23737	,	-1.7128572	,	0
43,30	,	101124	,	-25821	,	-23738	,	-2.777534	,	0
43,30	,	101140	,	-25815	,	-23748	,	-3.769049	,	0
43,30	,	101172	,	-25821	,	-23746	,	-4.5717072	,	0
43,30	,	101188	,	-25822	,	-23741	,	-5.09666	,	0
43,30	,	101204	,	-25826	,	-23752	,	-5.379894	,	0
43,30	,	101237	,	-25823	,	-23743	,	-5.4996552	,	0
43,30	,	101253	,	-25839	,	-23761	,	-5.546594	,	0
43,30	,	101269	,	-25841	,	-23731	,	-5.712701	,	0
43,30	,	101300	,	-25835	,	-23754	,	-6.159699	,	0
43,30	,	101316	,	-25850	,	-23760	,	-6.84422	,	0
43,30	,	101348	,	-25849	,	-23763	,	-7.676841	,	0
43,30	,	101364	,	-25856	,	-23761	,	-8.628658	,	0
43,30	,	101381	,	-25864	,	-23762	,	-9.676688	,	0
43,30	,	101412	,	-25872	,	-23764	,	-10.833906	,	0
43,30	,	101428	,	-25864	,	-23762	,	-12.066235	,	0
43,30	,	101444	,	-25853	,	-23762	,	-13.082552	,	0
43,31	,	101476	,	-25847	,	-23766	,	-13.365433	,	0
43,31	,	101492	,	-25831	,	-23770	,	-12.435583	,	0
43,31	,	101524	,	-25829	,	-23738	,	-10.045716	,	0
43,31	,	101540	,	-25802	,	-23748	,	-6.199538	,	2
43,31	,	101556	,	-25801	,	-23741	,	-1.0689669	,	5
43,31	,	101588	,	-25795	,	-23734	,	4.948478	,	10
43,31	,	101604	,	-25799	,	-23736	,	11.13546	,	16
43,31	,	101620	,	-25806	,	-23734	,	16.584593	,	22
43,31	,	101652	,	-25787	,	-23729	,	20.544743	,	27
43,31	,	101669	,	-25791	,	-23731	,	22.771679	,	30
43,31	,	101684	,	-25792	,	-23733	,	23.406832	,	32
43,31	,	101716	,	-25792	,	-23736	,	22.641436	,	32
43,31	,	101732	,	-25789	,	-23745	,	20.71751	,	30
43,31	,	101764	,	-25785	,	-23715	,	18.02067	,	27
43,31	,	101780	,	-25789	,	-23725	,	14.987262	,	22
43,31	,	101796	,	-25784	,	-23727	,	11.95964	,	16
43,31	,	101828	,	-25779	,	-23729	,	9.207538	,	10
43,31	,	101844	,	-25782	,	-23729	,	6.9642043	,	5
43,31	,	101860	,	-25772	,	-23733	,	5.356736	,	2
43,31	,	101892	,	-25770	,	-23726	,	4.438853	,	0
43,31	,	101908	,	-25775	,	-23733	,	4.179229	,	0
43,31	,	101940	,	-25782	,	-23733	,	4.3210416	,	0
43,31	,	101956	,	-25777	,	-23726	,	4.470993	,	0
43,31	,	101972	,	-25780	,	-23757	,	4.3706355	,	0
43,31	,	102004	,	-25783	,	-23724	,	3.9475584	,	0
43,31	,	102020	,	-25789	,	-23730	,	3.1753826	,	0
43,31	,	102036	,	-25802	,	-23735	,	1.9715047	,	0
43,31	,	102068	,	-25801	,	-23728	,	0.23028207	,	0
43,31	,	102084	,	-25816	,	-23737	,	-2.0544615	,	0
43,31	,	102100	,	-25809	,	-23733	,	-4.7388554	,	0
43,31	,	102132	,	-25815	,	-23740	,	-7.5194006	,	0
43,31	,	102148	,	-25818	,	-23740	,	-10.021683	,	0
43,31	,	102180	,	-25815	,	-23746	,	-11.958017	,	0
43,31	,	102196	,	-25820	,	-23746	,	-13.150787	,	0
43,31	,	102212	,	-25833	,	-23760	,	-13.6105795	,	0
43,31	,	102244	,	-25833	,	-23742	,	-13.59956	,	0
43,31	,	102260	,	-25842	,	-23759	,	-13.435659	,	0
43,31	,	102276	,	-25845	,	-23749	,	-13.325644	,	0
43,31	,	102308	,	-25849	,	-23760	,	-13.360612	,	0
43,31	,	102324	,	-25854	,	-23763	,	-13.536871	,	0
43,31	,	102356	,	-25861	,	-23766	,	-13.815731	,	0
43,31	,	102372	,	-25857	,	-23761	,	-14.135391	,	0
43,31	,	102388	,	-25876	,	-23762	,	-14.42411	,	0
43,31	,	102420	,	-25868	,	-23767	,	-14.680597	,	0
43,31	,	102436	,	-25853	,	-23765	,	-14.789808	,	0
43,31	,	102452	,	-25827	,	-23762	,	-14.229056	,	0
43,32	,	102484	,	-25822	,	-23732	,	-12.270803	,	0
43,32	,	102500	,	-25805	,	-23739	,	-8.504086	,	1
43,32	,	102516	,	-25796	,	-23736	,	-3.0331707	,	4
43,32	,	102548	,	-25791	,	-23732	,	3.6302218	,	9
43,32	,	102564	,	-25778	,	-23723	,	10.731159	,	15
43,32	,	102596	,	-25779	,	-23731	,	17.490726	,	22
43,32	,	102612	,	-25775	,	-23726	,	23.219807	,	28
43,32	,	102627	,	-25768	,	-23730	,	27.392271	,	33
43,32	,	102660	,	-25762	,	-23719	,	29.802284	,	37
43,32	,	102676	,	-25762	,	-23725	,	30.550564	,	39
43,32	,	102692	,	-25762	,	-23734	,	29.855095	,	38
43,32	,	102724	,	-25768	,	-23710	,	27.918346	,	35
43,32	,	102740	,	-25758	,	-23714	,	24.960909	,	30
43,32	,	102772	,	-25757	,	-23730	,	21.353596	,	24
43,32	,	102788	,	-25751	,	-23726	,	17.595543	,	17
43,32	,	102804	,	-25752	,	-23725	,	14.128765	,	11
43,32	,	102836	,	-25770	,	-23726	,	11.124409	,	6
43,32	,	102852	,	-25766	,	-23719	,	8.417359	,	2
43,32	,	102868	,	-25767	,	-23713	,	5.803089	,	0
43,32	,	102900	,	-25760	,	-23718	,	3.3252406	,	0
43,32	,	102916	,	-25757	,	-23732	,	1.2219269	,	0
43,32	,	102947	,	-25759	,	-23733	,	-0.2734084	,	0
43,32	,	102963	,	-25775	,	-23728	,	-1.1711786	,	0
43,32	,	102979	,	-25779	,	-23739	,	-1.8119256	,	0
43,32	,	103011	,	-25771	,	-23733	,	-2.5483928	,	0
43,32	,	103028	,	-25786	,	-23739	,	-3.458635	,	0
43,32	,	103044	,	-25791	,	-23745	,	-4.5419025	,	0
43,32	,	103076	,	-25798	,	-23733	,	-5.8872004	,	0
43,32	,	103092	,	-25799	,	-23734	,	-7.51447	,	0
43,32	,	103108	,	-25803	,	-23746	,	-9.277503	,	0
43,32	,	103139	,	-25791	,	-23756	,	-10.882471	,	0
43,32	,	103155	,	-25803	,	-23745	,	-11.978368	,	0
43,32	,	103187	,	-25810	,	-23742	,	-12.427206	,	0
43,32	,	103203	,	-25806	,	-23754	,	-12.377512	,	0
43,32	,	103219	,	-25818	,	-23746	,	-12.029465	,	0
43,32	,	103252	,	-25813	,	-23761	,	-11.543594	,	0
43,32	,	103267	,	-25824	,	-23769	,	-11.052679	,	0
43,32	,	103283	,	-25823	,	-23764	,	-10.648161	,	0
43,32	,	103316	,	-25831	,	-23768	,	-10.391563	,	0
43,32	,	103331	,	-25840	,	-23761	,	-10.347696	,	0
43,32	,	103363	,	-25819	,	-23759	,	-10.499643	,	0
43,32	,	103379	,	-25801	,	-23765	,	-10.445322	,	0
43,32	,	103396	,	-25802	,	-23760	,	-9.49747	,	0
43,32	,	103427	,	-25788	,	-23736	,	-7.248877	,	0
43,32	,	103443	,	-25777	,	-23743	,	-3.7183857	,	2
43,32	,	103459	,	-25760	,	-23756	,	0.90592337	,	5
43,33	,	103491	,	-25770	,	-23735	,	6.2771416	,	9
43,33	,	103507	,	-25771	,	-23740	,	11.703413	,	14
43,33	,	103523	,	-25760	,	-23731	,	16.34962	,	19
43,33	,	103555	,	-25765	,	-23719	,	19.677992	,	23
43,33	,	103571	,	-25766	,	-23741	,	21.466383	,	26
43,33	,	103603	,	-25773	,	-23731	,	21.624912	,	27
43,33	,	103619	,	-25765	,	-23730	,	20.241762	,	27
43,33	,	103635	,	-25769	,	-23735	,	17.664497	,	25
43,33	,	103667	,	-25773	,	-23718	,	14.3590975	,	22
43,33	,	103683	,	-25759	,	-23729	,	10.782297	,	18
43,33	,	103699	,	-25759	,	-23736	,	7.446912	,	13
43,33	,	103731	,	-25761	,	-23718	,	4.795235	,	8
43,33	,	103747	,	-25760	,	-23726	,	2.969552	,	4
43,33	,	103779	,	-25755	,	-23733	,	1.8998268	,	1
43,33	,	103795	,	-25765	,	-23731	,	1.4428873	,	0
43,33	,	103811	,	-25771	,	-23729	,	1.3145263	,	0
43,33	,	103843	,	-25776	,	-23735	,	1.1081173	,	0
43,33	,	103859	,	-25764	,	-23734	,	0.5694448	,	0
43,33	,	103875	,	-25773	,	-23734	,	-0.23579705	,	0
43,33	,	103907	,	-25775	,	-23719	,	-1.1363084	,	0
43,33	,	103923	,	-25779	,	-23732	,	-2.0715826	,	0
43,33	,	103939	,	-25787	,	-23726	,	-3.0672796	,	0
43,33	,	103971	,	-25789	,	-23744	,	-4.177191	,	0
43,33	,	103987	,	-25798	,	-23745	,	-5.445049	,	0
43,33	,	104019	,	-25800	,	-23742	,	-6.8814926	,	0
43,33	,	104035	,	-25803	,	-23741	,	-8.430242	,	0
43,33	,	104051	,	-25807	,	-23741	,	-9.943148	,	0
43,33	,	104083	,	-25809	,	-23745	,	-11.252002	,	0
43,33	,	104099	,	-25808	,	-23747	,	-12.217167	,	0
43,33	,	104115	,	-25804	,	-23768	,	-12.683905	,	0
43,33	,	104147	,	-25827	,	-23732	,	-12.600134	,	0
43,33	,	104163	,	-25827	,	-23757	,	-12.229351	,	0
43,33	,	104195	,	-25834	,	-23753	,	-11.97036	,	0
43,33	,	104211	,	-25828	,	-23764	,	-11.980917	,	0
43,33	,	104227	,	-25831	,	-23770	,	-12.114124	,	0
43,33	,	104259	,	-25806	,	-23753	,	-12.001529	,	0
43,33	,	104275	,	-25800	,	-23740	,	-11.104054	,	0
43,33	,	104291	,	-25784	,	-23739	,	-8.9297905	,	0
43,33	,	104323	,	-25769	,	-23744	,	-5.2644753	,	2
43,33	,	104339	,	-25770	,	-23742	,	-0.2397399	,	5
43,33	,	104355	,	-25764	,	-23747	,	5.613765	,	10
43,33	,	104387	,	-25769	,	-23720	,	11.461057	,	15
43,33	,	104403	,	-25749	,	-23731	,	16.518635	,	20
43,33	,	104435	,	-25736	,	-23717	,	20.455605	,	25
43,33	,	104451	,	-25737	,	-23726	,	23.373535	,	28
43,34	,	104467	,	-25745	,	-23735	,	25.321342	,	30
43,34	,	104499	,	-25746	,	-23726	,	26.074837	,	31
43,34	,	104515	,	-25749	,	-23736	,	25.400505	,	29
43,34	,	104531	,	-25746	,	-23734	,	23.314217	,	26
43,34	,	104563	,	-25742	,	-23717	,	20.133316	,	21
43,34	,	104579	,	-25738	,	-23722	,	16.400742	,	16
43,34	,	104611	,	-25737	,	-23737	,	12.697799	,	11
43,34	,	104627	,	-25734	,	-23696	,	9.456085	,	6
43,34	,	104643	,	-25740	,	-23728	,	6.87949	,	3
43,34	,	104675	,	-25724	,	-23725	,	5.0181518	,	1
43,34	,	104691	,	-25735	,	-23728	,	3.884592	,	0
43,34	,	104707	,	-25738	,	-23724	,	3.348603	,	0
43,34	,	104739	,	-25737	,	-23725	,	3.0860946	,	0
43,34	,	104754	,	-25747	,	-23730	,	2.7764895	,	0
43,34	,	104787	,	-25753	,	-23726	,	2.1610136	,	0
43,34	,	104803	,	-25748	,	-23722	,	1.0781885	,	0
43,34	,	104819	,	-25750	,	-23736	,	-0.38444233	,	0
43,34	,	104852	,	-25747	,	-23744	,	-1.9378612	,	0
43,34	,	104867	,	-25750	,	-23716	,	-3.285331	,	0
43,34	,	104883	,	-25766	,	-23739	,	-4.3219976	,	0
43,34	,	104914	,	-25765	,	-23741	,	-5.215171	,	0
43,34	,	104930	,	-25768	,	-23741	,	-6.1639194	,	0
43,34	,	104947	,	-25781	,	-23737	,	-7.2304993	,	0
43,34	,	104979	,	-25778	,	-23752	,	-8.434203	,	0
43,34	,	104995	,	-25781	,	-23755	,	-9.713615	,	0
43,34	,	105026	,	-25797	,	-23752	,	-10.949814	,	0
43,34	,	105042	,	-25781	,	-23741	,	-12.065918	,	0
43,34	,	105058	,	-25794	,	-23757	,	-12.9102545	,	0
43,34	,	105090	,	-25803	,	-23767	,	-13.367283	,	0
43,34	,	105106	,	-25804	,	-23740	,	-13.55832	,	0
43,34	,	105122	,	-25801	,	-23762	,	-13.60965	,	0
43,34	,	105155	,	-25793	,	-23758	,	-13.412838	,	0
43,34	,	105170	,	-25785	,	-23759	,	-12.682899	,	0
43,34	,	105203	,	-25765	,	-23743	,	-11.066183	,	0
43,34	,	105218	,	-25764	,	-23738	,	-8.265505	,	1
43,34	,	105234	,	-25755	,	-23747	,	-4.27047	,	3
43,34	,	105266	,	-25745	,	-23745	,	0.59555435	,	6
43,34	,	105282	,	-25742	,	-23742	,	5.8674746	,	10
43,34	,	105299	,	-25735	,	-23729	,	11.03981	,	15
43,34	,	105331	,	-25740	,	-23755	,	15.58734	,	20
43,34	,	105347	,	-25742	,	-23716	,	18.99859	,	24
43,34	,	105362	,	-25736	,	-23731	,	20.899567	,	27
43,34	,	105395	,	-25747	,	-23738	,	21.185537	,	28
43,34	,	105410	,	-25733	,	-23726	,	20.006916	,	27
43,34	,	105442	,	-25732	,	-23720	,	17.77625	,	25
43,34	,	105458	,	-25732	,	-23733	,	15.060679	,	22
43,35	,	105474	,	-25720	,	-23732	,	12.364867	,	18
43,35	,	105506	,	-25732	,	-23742	,	10.047227	,	13
43,35	,	105523	,	-25729	,	-23728	,	8.209727	,	8
43,35	,	105539	,	-25735	,	-23721	,	6.702424	,	4
43,35	,	105570	,	-25723	,	-23744	,	5.381274	,	1
43,35	,	105586	,	-25723	,	-23709	,	4.2907815	,	0
43,35	,	105618	,	-25736	,	-23734	,	3.498663	,	0
43,35	,	105634	,	-25728	,	-23737	,	2.880263	,	0
43,35	,	105650	,	-25732	,	-23731	,	2.2786014	,	0
43,35	,	105682	,	-25736	,	-23737	,	1.6442108	,	0
43,35	,	105698	,	-25746	,	-23732	,	0.8886305	,	0
43,35	,	105714	,	-25736	,	-23742	,	-0.10261536	,	0
43,35	,	105746	,	-25745	,	-23740	,	-1.2843015	,	0
43,35	,	105762	,	-25753	,	-23746	,	-2.5422273	,	0
43,35	,	105778	,	-25755	,	-23752	,	-3.8799732	,	0
43,35	,	105810	,	-25761	,	-23766	,	-5.3296986	,	0
43,35	,	105826	,	-25766	,	-23741	,	-6.8647947	,	0
43,35	,	105858	,	-25760	,	-23735	,	-8.389084	,	0
43,35	,	105874	,	-25788	,	-23741	,	-9.802548	,	0
43,35	,	105890	,	-25773	,	-23755	,	-11.138209	,	0
43,35	,	105922	,	-25782	,	-23748	,	-12.384197	,	0
43,35	,	105938	,	-25788	,	-23757	,	-13.385565	,	0
43,35	,	105954	,	-25785	,	-23759	,	-14.046077	,	0
43,35	,	105986	,	-25794	,	-23768	,	-14.3383875	,	0
43,35	,	106002	,	-25788	,	-23762	,	-14.252236	,	0
43,35	,	106034	,	-25787	,	-23753	,	-13.758589	,	0
43,35	,	106050	,	-25773	,	-23752	,	-12.721338	,	0
43,35	,	106066	,	-25758	,	-23756	,	-10.88452	,	1
43,35	,	106098	,	-25755	,	-23747	,	-8.003746	,	2
43,35	,	106114	,	-25739	,	-23745	,	-4.05166	,	4
43,35	,	106130	,	-25738	,	-23741	,	0.7415185	,	7
43,35	,	106162	,	-25746	,	-23745	,	5.8764715	,	11
43,35	,	106178	,	-25742	,	-23746	,	10.605652	,	16
43,35	,	106194	,	-25737	,	-23754	,	14.271994	,	20
43,35	,	106226	,	-25744	,	-23755	,	16.557194	,	23
43,35	,	106242	,	-25745	,	-23746	,	17.355139	,	25
43,35	,	106274	,	-25730	,	-23752	,	16.773315	,	24
43,35	,	106290	,	-25746	,	-23748	,	15.189005	,	23
43,35	,	106306	,	-25750	,	-23740	,	12.938638	,	21
43,35	,	106338	,	-25753	,	-23754	,	10.147404	,	18
43,35	,	106354	,	-25734	,	-23751	,	7.04416	,	14
43,35	,	106370	,	-25742	,	-23748	,	4.1290283	,	9
43,35	,	106402	,	-25750	,	-23744	,	1.7985935	,	5
43,35	,	106418	,	-25738	,	-23761	,	0.098970175	,	2
43,35	,	106450	,	-25752	,	-23753	,	-1.055433	,	0
43,36	,	106466	,	-25752	,	-23748	,	-1.8116796	,	0
43,36	,	106482	,	-25758	,	-23751	,	-2.4100494	,	0
43,36	,	106514	,	-25761	,	-23765	,	-3.0550776	,	0
43,36	,	106530	,	-25771	,	-23750	,	-3.8860288	,	0
43,36	,	106546	,	-25764	,	-23760	,	-4.964741	,	0
43,36	,	106578	,	-25785	,	-23755	,	-6.254236	,	0
43,36	,	106594	,	-25771	,	-23757	,	-7.683112	,	0
43,36	,	106625	,	-25785	,	-23770	,	-9.1147175	,	0
43,36	,	106642	,	-25781	,	-23760	,	-10.363766	,	0
43,36	,	106658	,	-25791	,	-23775	,	-11.323719	,	0
43,36	,	106690	,	-25793	,	-23781	,	-11.994004	,	0
43,36	,	106706	,	-25799	,	-23764	,	-12.438978	,	0
43,36	,	106722	,	-25808	,	-23779	,	-12.760572	,	0
43,36	,	106754	,	-25807	,	-23789	,	-13.068636	,	0
43,36	,	106770	,	-25816	,	-23771	,	-13.410341	,	0
43,36	,	106786	,	-25828	,	-23773	,	-13.817732	,	0
43,36	,	106818	,	-25821	,	-23787	,	-14.349297	,	0
43,36	,	106833	,	-25819	,	-23776	,	-14.88975	,	0
43,36	,	106865	,	-25819	,	-23786	,	-15.115267	,	0
43,36	,	106882	,	-25801	,	-23766	,	-14.668682	,	0
43,36	,	106897	,	-25789	,	-23774	,	-13.177216	,	0
43,36	,	106930	,	-25789	,	-23769	,	-10.372959	,	1
43,36	,	106946	,	-25786	,	-23768	,	-6.382478	,	3
43,36	,	106962	,	-25780	,	-23772	,	-1.7064395	,	6
43,36	,	106994	,	-25791	,	-23780	,	3.0043688	,	10
43,36	,	107009	,	-25785	,	-23759	,	7.078906	,	14
43,36	,	107041	,	-25785	,	-23753	,	10.029247	,	18
43,36	,	107058	,	-25785	,	-23763	,	11.692964	,	20
43,36	,	107074	,	-25781	,	-23768	,	12.1534195	,	21
43,36	,	107106	,	-25777	,	-23758	,	11.677586	,	21
43,36	,	107122	,	-25782	,	-23771	,	10.615084	,	20
43,36	,	107138	,	-25778	,	-23759	,	9.2283325	,	18
43,36	,	107169	,	-25776	,	-23768	,	7.7085505	,	15
43,36	,	107185	,	-25776	,	-23765	,	6.2505107	,	11
43,36	,	107201	,	-25776	,	-23756	,	4.989804	,	7
43,36	,	107234	,	-25780	,	-23778	,	3.9449744	,	3
43,36	,	107250	,	-25782	,	-23761	,	3.0396097	,	1
43,36	,	107282	,	-25786	,	-23756	,	2.1564975	,	0
43,36	,	107298	,	-25795	,	-23771	,	1.1602963	,	0
43,36	,	107313	,	-25784	,	-23767	,	-0.03474021	,	0
43,36	,	107345	,	-25792	,	-23771	,	-1.3354257	,	0
43,36	,	107361	,	-25803	,	-23775	,	-2.6063566	,	0
43,36	,	107377	,	-25802	,	-23769	,	-3.8787901	,	0
43,36	,	107409	,	-25790	,	-23782	,	-5.14234	,	0
43,36	,	107426	,	-25804	,	-23775	,	-6.1844287	,	0
43,36	,	107458	,	-25793	,	-23780	,	-6.819414	,	0
43,37	,	107473	,	-25811	,	-23786	,	-7.043091	,	0
43,37	,	107489	,	-25817	,	-23772	,	-7.062607	,	0
43,37	,	107521	,	-25822	,	-23787	,	-7.220318	,	0
43,37	,	107537	,	-25823	,	-23792	,	-7.7271547	,	0
43,37	,	107553	,	-25825	,	-23799	,	-8.537722	,	0
43,37	,	107585	,	-25831	,	-23796	,	-9.473826	,	0
43,37	,	107601	,	-25838	,	-23801	,	-10.40333	,	0
43,37	,	107618	,	-25835	,	-23800	,	-11.268019	,	0
43,37	,	107649	,	-25853	,	-23794	,	-12.039153	,	0
43,37	,	107665	,	-25856	,	-23799	,	-12.7956295	,	0
43,37	,	107697	,	-25861	,	-23802	,	-13.66239	,	0
43,37	,	107713	,	-25859	,	-23804	,	-14.602533	,	0
43,37	,	107729	,	-25866	,	-23787	,	-15.425831	,	0
43,37	,	107761	,	-25860	,	-23806	,	-15.922968	,	0
43,37	,	107777	,	-25850	,	-23798	,	-15.854106	,	0
43,37	,	107793	,	-25831	,	-23784	,	-14.858337	,	0
43,37	,	107825	,	-25828	,	-23784	,	-12.55662	,	0
43,37	,	107841	,	-25825	,	-23799	,	-8.874744	,	2
43,37	,	107873	,	-25831	,	-23795	,	-4.237874	,	5
43,37	,	107889	,	-25815	,	-23790	,	0.6591959	,	9
43,37	,	107905	,	-25813	,	-23786	,	5.2817154	,	13
43,37	,	107937	,	-25812	,	-23789	,	9.338379	,	17
43,37	,	107953	,	-25822	,	-23801	,	12.535782	,	21
43,37	,	107969	,	-25819	,	-23769	,	14.51716	,	24
43,37	,	108001	,	-25803	,	-23790	,	15.159576	,	25
43,37	,	108017	,	-25821	,	-23787	,	14.711727	,	25
43,37	,	108033	,	-25804	,	-23796	,	13.508964	,	23
43,37	,	108065	,	-25808	,	-23790	,	11.861769	,	20
43,37	,	108081	,	-25810	,	-23798	,	10.076422	,	16
43,37	,	108113	,	-25803	,	-23797	,	8.346994	,	12
43,37	,	108129	,	-25811	,	-23794	,	6.7813106	,	8
43,37	,	108145	,	-25804	,	-23785	,	5.431354	,	4
43,37	,	108177	,	-25810	,	-23789	,	4.2909927	,	1
43,37	,	108193	,	-25807	,	-23797	,	3.32932	,	0
43,37	,	108209	,	-25811	,	-23766	,	2.4934058	,	0
43,37	,	108241	,	-25814	,	-23786	,	1.7100663	,	0
43,37	,	108257	,	-25811	,	-23787	,	0.9179226	,	0
43,37	,	108289	,	-25828	,	-23791	,	0.06201899	,	0
43,37	,	108305	,	-25827	,	-23793	,	-0.9917663	,	0
43,37	,	108321	,	-25840	,	-23806	,	-2.4070399	,	0
43,37	,	108353	,	-25826	,	-23797	,	-4.169998	,	0
43,37	,	108369	,	-25840	,	-23795	,	-6.025632	,	0
43,37	,	108385	,	-25834	,	-23800	,	-7.6767054	,	0
43,37	,	108417	,	-25831	,	-23802	,	-8.900145	,	0
43,37	,	108433	,	-25841	,	-23826	,	-9.532253	,	0
43,38	,	108465	,	-25850	,	-23785	,	-9.63121	,	0
43,38	,	108481	,	-25861	,	-23815	,	-9.545473	,	0
43,38	,	108497	,	-25860	,	-23809	,	-9.665464	,	0
43,38	,	108529	,	-25863	,	-23810	,	-10.142088	,	0
43,38	,	108545	,	-25865	,	-23820	,	-10.858935	,	0
43,38	,	108561	,	-25867	,	-23821	,	-11.600063	,	0
43,38	,	108593	,	-25874	,	-23822	,	-12.189009	,	0
43,38	,	108609	,	-25870	,	-23804	,	-12.528774	,	0
43,38	,	108625	,	-25879	,	-23819	,	-12.57753	,	0
43,38	,	108657	,	-25869	,	-23824	,	-12.323072	,	0
43,38	,	108673	,	-25874	,	-23821	,	-11.733295	,	0
43,38	,	108705	,	-25880	,	-23792	,	-10.809699	,	0
43,38	,	108721	,	-25858	,	-23796	,	-9.599337	,	0
43,38	,	108737	,	-25857	,	-23811	,	-7.988614	,	1
43,38	,	108769	,	-25859	,	-23796	,	-5.819686	,	2
43,38	,	108784	,	-25843	,	-23797	,	-3.147942	,	4
43,38	,	108800	,	-25836	,	-23806	,	-0.077156305	,	6
43,38	,	108833	,	-25838	,	-23806	,	3.3027773	,	9
43,38	,	108849	,	-25841	,	-23799	,	6.6896143	,	12
43,38	,	108881	,	-25825	,	-23807	,	9.66937	,	15
43,38	,	108896	,	-25831	,	-23798	,	12.0219	,	17
43,38	,	108912	,	-25836	,	-23804	,	13.629142	,	19
43,38	,	108945	,	-25839	,	-23783	,	14.280632	,	19
43,38	,	108961	,	-25839	,	-23802	,	13.829479	,	18
43,38	,	108977	,	-25839	,	-23797	,	12.370034	,	16
43,38	,	109009	,	-25828	,	-23799	,	10.241137	,	14
43,38	,	109024	,	-25833	,	-23799	,	7.9266973	,	11
43,38	,	109040	,	-25831	,	-23790	,	5.822417	,	8
43,38	,	109072	,	-25839	,	-23803	,	4.069993	,	5
43,38	,	109088	,	-25829	,	-23804	,	2.6532707	,	3
43,38	,	109121	,	-25835	,	-23795	,	1.5721264	,	1
43,38	,	109137	,	-25840	,	-23809	,	0.80191433	,	0
43,38	,	109153	,	-25834	,	-23807	,	0.21913147	,	0
43,38	,	109184	,	-25846	,	-23787	,	-0.30348778	,	0
43,38	,	109201	,	-25847	,	-23805	,	-0.8881239	,	0
43,38	,	109217	,	-25845	,	-23805	,	-1.6345023	,	0
43,38	,	109248	,	-25860	,	-23797	,	-2.5612159	,	0
43,38	,	109264	,	-25858	,	-23803	,	-3.6947603	,	0
43,38	,	109296	,	-25860	,	-23798	,	-5.0289974	,	0
43,38	,	109313	,	-25867	,	-23809	,	-6.4413867	,	0
43,38	,	109329	,	-25859	,	-23813	,	-7.7584896	,	0
43,38	,	109361	,	-25862	,	-23812	,	-8.761405	,	0
43,38	,	109377	,	-25863	,	-23810	,	-9.251827	,	0
43,38	,	109393	,	-25881	,	-23823	,	-9.263204	,	0
43,38	,	109424	,	-25874	,	-23788	,	-9.077892	,	0
43,38	,	109440	,	-25895	,	-23819	,	-9.014206	,	0
43,38	,	109456	,	-25893	,	-23816	,	-9.321111	,	0
43,39	,	109489	,	-25900	,	-23824	,	-10.112658	,	0
43,39	,	109504	,	-25897	,	-23833	,	-11.258443	,	0
43,39	,	109536	,	-25908	,	-23829	,	-12.480326	,	0
43,39	,	109552	,	-25905	,	-23829	,	-13.544809	,	0
43,39	,	109568	,	-25911	,	-23827	,	-14.301661	,	0
43,39	,	109600	,	-25905	,	-23819	,	-14.626096	,	0
43,39	,	109616	,	-25911	,	-23821	,	-14.415573	,	0
43,39	,	109632	,	-25893	,	-23828	,	-13.587677	,	0
43,39	,	109664	,	-25878	,	-23814	,	-11.9455185	,	0
43,39	,	109680	,	-25857	,	-23814	,	-9.124327	,	1
43,39	,	109712	,	-25858	,	-23791	,	-4.877048	,	3
43,39	,	109728	,	-25850	,	-23802	,	0.57503414	,	7
43,39	,	109745	,	-25854	,	-23799	,	6.5468082	,	12
43,39	,	109776	,	-25844	,	-23789	,	12.205961	,	17
43,39	,	109792	,	-25829	,	-23793	,	16.961407	,	22
43,39	,	109808	,	-25839	,	-23789	,	20.57948	,	26
43,39	,	109840	,	-25828	,	-23794	,	22.951923	,	29
43,39	,	109856	,	-25834	,	-23781	,	24.004948	,	31
43,39	,	109888	,	-25834	,	-23793	,	23.748543	,	31
43,39	,	109904	,	-25835	,	-23789	,	22.261688	,	29
43,39	,	109920	,	-25828	,	-23788	,	19.773598	,	25
43,39	,	109952	,	-25829	,	-23781	,	16.699781	,	20
43,39	,	109968	,	-25820	,	-23779	,	13.524079	,	15
43,39	,	109984	,	-25808	,	-23776	,	10.73651	,	10
43,39	,	110016	,	-25819	,	-23779	,	8.721036	,	6
43,39	,	110032	,	-25805	,	-23776	,	7.5622215	,	3
43,39	,	110064	,	-25815	,	-23786	,	7.098534	,	1
43,39	,	110080	,	-25828	,	-23784	,	6.978886	,	0
43,39	,	110096	,	-25823	,	-23782	,	6.6961145	,	0
43,39	,	110128	,	-25828	,	-23785	,	5.904455	,	0
43,39	,	110144	,	-25830	,	-23776	,	4.5633707	,	0
43,39	,	110160	,	-25826	,	-23789	,	2.8138444	,	0
43,39	,	110192	,	-25841	,	-23777	,	0.8613832	,	0
43,39	,	110208	,	-25839	,	-23776	,	-1.1678116	,	0
43,39	,	110224	,	-25837	,	-23791	,	-3.1758032	,	0
43,39	,	110256	,	-25848	,	-23789	,	-5.0021443	,	0
43,39	,	110272	,	-25841	,	-23795	,	-6.5296297	,	0
43,39	,	110304	,	-25844	,	-23792	,	-7.66098	,	0
43,39	,	110320	,	-25860	,	-23792	,	-8.356033	,	0
43,39	,	110336	,	-25856	,	-23797	,	-8.785691	,	0
43,39	,	110368	,	-25858	,	-23776	,	-9.137783	,	0
43,39	,	110384	,	-25862	,	-23802	,	-9.425167	,	0
43,39	,	110400	,	-25866	,	-23798	,	-9.625704	,	0
43,39	,	110432	,	-25860	,	-23792	,	-9.727156	,	0
43,39	,	110448	,	-25874	,	-23793	,	-9.685891	,	0
43,40	,	110480	,	-25879	,	-23792	,	-9.570763	,	0
43,40	,	110496	,	-25865	,	-23818	,	-9.497499	,	0
43,40	,	110512	,	-25886	,	-23818	,	-9.426139	,	0
43,40	,	110544	,	-25896	,	-23811	,	-9.407236	,	0
43,40	,	110560	,	-25887	,	-23818	,	-9.66433	,	0
43,40	,	110576	,	-25880	,	-23823	,	-10.147697	,	0
43,40	,	110608	,	-25871	,	-23789	,	-10.412512	,	0
43,40	,	110623	,	-25838	,	-23802	,	-9.815881	,	0
43,40	,	110640	,	-25838	,	-23793	,	-7.696142	,	0
43,40	,	110672	,	-25824	,	-23784	,	-3.7738557	,	2
43,40	,	110688	,	-25810	,	-23788	,	1.6710744	,	5
43,40	,	110720	,	-25816	,	-23779	,	8.015781	,	10
43,40	,	110736	,	-25811	,	-23780	,	14.398635	,	16
43,40	,	110752	,	-25817	,	-23774	,	19.870916	,	22
43,40	,	110784	,	-25808	,	-23770	,	23.710575	,	27
43,40	,	110800	,	-25804	,	-23774	,	25.646667	,	30
43,40	,	110816	,	-25800	,	-23784	,	25.849964	,	31
43,40	,	110847	,	-25815	,	-23761	,	24.637857	,	31
43,40	,	110863	,	-25801	,	-23766	,	22.269897	,	29
43,40	,	110895	,	-25790	,	-23762	,	19.161396	,	26
43,40	,	110912	,	-25784	,	-23755	,	16.000914	,	21
43,40	,	110928	,	-25789	,	-23765	,	13.378773	,	15
43,40	,	110960	,	-25790	,	-23757	,	11.450253	,	9
43,40	,	110976	,	-25791	,	-23748	,	10.026563	,	4
43,40	,	110992	,	-25782	,	-23754	,	8.887024	,	1
43,40	,	111024	,	-25781	,	-23755	,	7.97739	,	0
43,40	,	111039	,	-25782	,	-23753	,	7.3223944	,	0
43,40	,	111071	,	-25786	,	-23771	,	6.846025	,	0
43,40	,	111087	,	-25789	,	-23757	,	6.3601975	,	0
43,40	,	111103	,	-25789	,	-23755	,	5.682499	,	0
43,40	,	111136	,	-25787	,	-23761	,	4.749633	,	0
43,40	,	111152	,	-25780	,	-23755	,	3.6754868	,	0
43,40	,	111168	,	-25790	,	-23765	,	2.6603713	,	0
43,40	,	111199	,	-25797	,	-23770	,	1.7496295	,	0
43,40	,	111215	,	-25791	,	-23758	,	0.8139956	,	0
43,40	,	111231	,	-25795	,	-23766	,	-0.19132602	,	0
43,40	,	111263	,	-25797	,	-23767	,	-1.1843531	,	0
43,40	,	111279	,	-25800	,	-23764	,	-2.1099737	,	0
43,40	,	111311	,	-25809	,	-23773	,	-2.995952	,	0
43,40	,	111328	,	-25816	,	-23758	,	-3.9623659	,	0
43,40	,	111343	,	-25813	,	-23764	,	-5.12363	,	0
43,40	,	111376	,	-25814	,	-23760	,	-6.411385	,	0
43,40	,	111391	,	-25815	,	-23773	,	-7.5979896	,	0
43,40	,	111407	,	-25812	,	-23774	,	-8.449474	,	0
43,40	,	111439	,	-25835	,	-23769	,	-8.899303	,	0
43,40	,	111455	,	-25833	,	-23778	,	-9.176206	,	0
43,41	,	111487	,	-25830	,	-23770	,	-9.541031	,	0
43,41	,	111503	,	-25828	,	-23774	,	-9.943829	,	0
43,41	,	111520	,	-25810	,	-23774	,	-10.052159	,	0
43,41	,	111551	,	-25803	,	-23758	,	-9.396688	,	0
43,41	,	111567	,	-25786	,	-23752	,	-7.547869	,	0
43,41	,	111583	,	-25773	,	-23745	,	-4.284043	,	1
43,41	,	111615	,	-25771	,	-23744	,	0.31008387	,	4
43,41	,	111631	,	-25763	,	-23759	,	5.776145	,	8
43,41	,	111647	,	-25752	,	-23740	,	11.458655	,	13
43,41	,	111679	,	-25763	,	-23741	,	16.718512	,	18
43,41	,	111695	,	-25748	,	-23748	,	20.961506	,	23
43,41	,	111727	,	-25750	,	-23733	,	23.797777	,	27
43,41	,	111743	,	-25763	,	-23752	,	25.074865	,	29
43,41	,	111759	,	-25762	,	-23734	,	24.677807	,	30
43,41	,	111791	,	-25749	,	-23730	,	22.688538	,	29
43,41	,	111807	,	-25743	,	-23731	,	19.645735	,	26
43,41	,	111823	,	-25731	,	-23733	,	16.369637	,	22
43,41	,	111855	,	-25736	,	-23726	,	13.5681925	,	17
43,41	,	111871	,	-25736	,	-23730	,	11.536657	,	12
43,41	,	111903	,	-25736	,	-23732	,	10.1660595	,	7
43,41	,	111919	,	-25745	,	-23728	,	9.161249	,	3
43,41	,	111935	,	-25749	,	-23725	,	8.160675	,	1
43,41	,	111967	,	-25750	,	-23731	,	6.8558817	,	0
43,41	,	111983	,	-25741	,	-23735	,	5.1925225	,	0
43,41	,	111999	,	-25746	,	-23749	,	3.396668	,	0
43,41	,	112031	,	-25746	,	-23714	,	1.7426052	,	0
43,41	,	112047	,	-25755	,	-23732	,	0.33418655	,	0
43,41	,	112063	,	-25771	,	-23734	,	-0.9714992	,	0
43,41	,	112095	,	-25752	,	-23742	,	-2.3953736	,	0
43,41	,	112111	,	-25760	,	-23731	,	-3.8801887	,	0
43,41	,	112143	,	-25768	,	-23731	,	-5.184632	,	0
43,41	,	112159	,	-25771	,	-23742	,	-6.258829	,	0
43,41	,	112175	,	-25785	,	-23741	,	-7.252296	,	0
43,41	,	112207	,	-25783	,	-23741	,	-8.345245	,	0
43,41	,	112223	,	-25778	,	-23744	,	-9.543213	,	0
43,41	,	112239	,	-25782	,	-23766	,	-10.594143	,	0
43,41	,	112271	,	-25785	,	-23739	,	-11.237557	,	0
43,41	,	112287	,	-25794	,	-23755	,	-11.433763	,	0
43,41	,	112319	,	-25795	,	-23747	,	-11.337399	,	0
43,41	,	112335	,	-25799	,	-23749	,	-11.134466	,	0
43,41	,	112351	,	-25818	,	-23770	,	-11.006487	,	0
43,41	,	112383	,	-25810	,	-23758	,	-11.167423	,	0
43,41	,	112399	,	-25816	,	-23747	,	-11.668895	,	0
43,41	,	112415	,	-25812	,	-23767	,	-12.292855	,	0
43,41	,	112447	,	-25799	,	-23750	,	-12.66161	,	0
43,42	,	112463	,	-25786	,	-23757	,	-12.27726	,	0
43,42	,	112494	,	-25782	,	-23752	,	-10.684954	,	0
43,42	,	112511	,	-25776	,	-23733	,	-7.763466	,	1
43,42	,	112527	,	-25756	,	-23735	,	-3.7056637	,	3
43,42	,	112559	,	-25762	,	-23737	,	1.167274	,	7
43,42	,	112575	,	-25742	,	-23732	,	6.42108	,	11
43,42	,	112591	,	-25732	,	-23725	,	11.64181	,	16
43,42	,	112623	,	-25731	,	-23721	,	16.551987	,	21
43,42	,	112639	,	-25734	,	-23712	,	20.800638	,	25
43,42	,	112655	,	-25739	,	-23721	,	23.871063	,	29
43,42	,	112687	,	-25728	,	-23722	,	25.35003	,	32
43,42	,	112703	,	-25732	,	-23725	,	25.197704	,	32
43,42	,	112734	,	-25725	,	-23739	,	23.695078	,	30
43,42	,	112750	,	-25714	,	-23688	,	21.312864	,	26
43,42	,	112767	,	-25725	,	-23727	,	18.586424	,	22
43,42	,	112799	,	-25707	,	-23718	,	15.913803	,	17
43,42	,	112815	,	-25706	,	-23718	,	13.597167	,	12
43,42	,	112831	,	-25711	,	-23706	,	11.853503	,	8
43,42	,	112863	,	-25722	,	-23715	,	10.571236	,	4
43,42	,	112879	,	-25723	,	-23712	,	9.344198	,	1
43,42	,	112911	,	-25729	,	-23712	,	7.799157	,	0
43,42	,	112927	,	-25732	,	-23710	,	5.776844	,	0
43,42	,	112943	,	-25727	,	-23711	,	3.3515248	,	0
43,42	,	112975	,	-25739	,	-23732	,	0.76516175	,	0
43,42	,	112991	,	-25724	,	-23698	,	-1.6981316	,	0
43,42	,	113006	,	-25743	,	-23720	,	-3.791377	,	0
43,42	,	113038	,	-25735	,	-23723	,	-5.4050536	,	0
43,42	,	113054	,	-25748	,	-23735	,	-6.5842714	,	0
43,42	,	113070	,	-25747	,	-23718	,	-7.4413347	,	0
43,42	,	113103	,	-25748	,	-23734	,	-8.082418	,	0
43,42	,	113118	,	-25756	,	-23733	,	-8.558103	,	0
43,42	,	113150	,	-25767	,	-23731	,	-8.970603	,	0
43,42	,	113166	,	-25770	,	-23736	,	-9.5254	,	0
43,42	,	113182	,	-25763	,	-23743	,	-10.300394	,	0
43,42	,	113214	,	-25773	,	-23751	,	-11.120436	,	0
43,42	,	113231	,	-25774	,	-23726	,	-11.778223	,	0
43,42	,	113247	,	-25787	,	-23741	,	-12.242821	,	0
43,42	,	113279	,	-25800	,	-23742	,	-12.688999	,	0
43,42	,	113294	,	-25800	,	-23751	,	-13.375267	,	0
43,42	,	113326	,	-25812	,	-23740	,	-14.415842	,	0
43,42	,	113342	,	-25813	,	-23749	,	-15.7322235	,	0
43,42	,	113358	,	-25822	,	-23761	,	-17.154427	,	0
43,42	,	113390	,	-25813	,	-23747	,	-18.438835	,	0
43,42	,	113407	,	-25816	,	-23756	,	-19.246986	,	0
43,42	,	113423	,	-25801	,	-23754	,	-19.20339	,	0
43,42	,	113455	,	-25790	,	-23770	,	-17.957642	,	0
43,43	,	113470	,	-25775	,	-23730	,	-15.223214	,	1
43,43	,	113486	,	-25769	,	-23745	,	-10.913499	,	3
43,43	,	113518	,	-25766	,	-23740	,	-5.306775	,	7
43,43	,	113534	,	-25754	,	-23726	,	0.99656296	,	12
43,43	,	113566	,	-25740	,	-23733	,	7.3837943	,	18
43,43	,	113582	,	-25747	,	-23724	,	13.376149	,	24
43,43	,	113598	,	-25756	,	-23727	,	18.401966	,	29
43,43	,	113631	,	-25741	,	-23729	,	21.843723	,	34
43,43	,	113646	,	-25745	,	-23727	,	23.456396	,	37
43,43	,	113662	,	-25739	,	-23734	,	23.421864	,	37
43,43	,	113694	,	-25749	,	-23741	,	22.056736	,	35
43,43	,	113710	,	-25750	,	-23707	,	19.629028	,	31
43,43	,	113742	,	-25737	,	-23723	,	16.443684	,	26
43,43	,	113758	,	-25738	,	-23728	,	13.000576	,	20
43,43	,	113774	,	-25742	,	-23726	,	9.796682	,	14
43,43	,	113806	,	-25731	,	-23721	,	7.1012807	,	9
43,43	,	113822	,	-25738	,	-23736	,	5.050769	,	4
43,43	,	113838	,	-25736	,	-23730	,	3.6610317	,	1
43,43	,	113870	,	-25745	,	-23727	,	2.7541473	,	0
43,43	,	113886	,	-25756	,	-23730	,	1.9934456	,	0
43,43	,	113902	,	-25745	,	-23741	,	1.0575289	,	0
43,43	,	113934	,	-25744	,	-23750	,	-0.080075264	,	0
43,43	,	113950	,	-25749	,	-23717	,	-1.1952906	,	0
43,43	,	113982	,	-25762	,	-23741	,	-2.1876383	,	0
43,43	,	113998	,	-25772	,	-23735	,	-3.2472954	,	0
43,43	,	114014	,	-25766	,	-23739	,	-4.6108255	,	0
43,43	,	114046	,	-25765	,	-23741	,	-6.21124	,	0
43,43	,	114062	,	-25773	,	-23744	,	-7.7376657	,	0
43,43	,	114078	,	-25776	,	-23739	,	-8.980349	,	0
43,43	,	114112	,	-25784	,	-23758	,	-9.935571	,	0
43,43	,	114126	,	-25779	,	-23748	,	-10.659893	,	0
43,43	,	114158	,	-25777	,	-23751	,	-11.103186	,	0
43,43	,	114174	,	-25787	,	-23772	,	-11.152269	,	0
43,43	,	114190	,	-25784	,	-23749	,	-10.822814	,	0
43,43	,	114222	,	-25802	,	-23760	,	-10.30339	,	0
43,43	,	114238	,	-25800	,	-23759	,	-9.884075	,	0
43,43	,	114254	,	-25810	,	-23751	,	-9.813006	,	0
43,43	,	114286	,	-25806	,	-23760	,	-10.146532	,	0
43,43	,	114302	,	-25806	,	-23760	,	-10.715459	,	0
43,43	,	114334	,	-25784	,	-23753	,	-11.1090145	,	0
43,43	,	114350	,	-25776	,	-23759	,	-10.717283	,	0
43,43	,	114366	,	-25761	,	-23746	,	-8.981634	,	0
43,43	,	114398	,	-25750	,	-23712	,	-5.656989	,	1
43,43	,	114414	,	-25759	,	-23761	,	-0.96075153	,	4
43,43	,	114430	,	-25747	,	-23737	,	4.42295	,	8
43,44	,	114462	,	-25748	,	-23747	,	9.673474	,	13
43,44	,	114478	,	-25754	,	-23743	,	14.106095	,	18
43,44	,	114494	,	-25744	,	-23740	,	17.208101	,	22
43,44	,	114526	,	-25763	,	-23736	,	18.702991	,	25
43,44	,	114542	,	-25756	,	-23753	,	18.508175	,	26
43,44	,	114574	,	-25756	,	-23735	,	16.768461	,	26
43,44	,	114590	,	-25747	,	-23742	,	13.971963	,	25
43,44	,	114606	,	-25747	,	-23742	,	10.796765	,	22
43,44	,	114638	,	-25741	,	-23745	,	7.854315	,	18
43,44	,	114654	,	-25740	,	-23746	,	5.558224	,	13
43,44	,	114670	,	-25746	,	-23739	,	4.0535655	,	8
43,44	,	114702	,	-25751	,	-23750	,	3.175038	,	4
43,44	,	114718	,	-25760	,	-23743	,	2.5366871	,	1
43,44	,	114750	,	-25754	,	-23749	,	1.7767476	,	0
43,44	,	114766	,	-25766	,	-23744	,	0.7426926	,	0
43,44	,	114782	,	-25774	,	-23751	,	-0.6153163	,	0
43,44	,	114814	,	-25773	,	-23747	,	-2.3483377	,	0
43,44	,	114830	,	-25778	,	-23747	,	-4.3806496	,	0
43,44	,	114846	,	-25773	,	-23755	,	-6.464432	,	0
43,44	,	114878	,	-25783	,	-23762	,	-8.304671	,	0
43,44	,	114894	,	-25782	,	-23758	,	-9.71327	,	0
43,44	,	114910	,	-25787	,	-23761	,	-10.649997	,	0
43,44	,	114942	,	-25791	,	-23768	,	-11.160046	,	0
43,44	,	114958	,	-25800	,	-23770	,	-11.374588	,	0
43,44	,	114989	,	-25804	,	-23766	,	-11.50025	,	0
43,44	,	115006	,	-25805	,	-23763	,	-11.692635	,	0
43,44	,	115022	,	-25798	,	-23768	,	-11.909775	,	0
43,44	,	115054	,	-25823	,	-23758	,	-12.029507	,	0
43,44	,	115070	,	-25818	,	-23780	,	-12.131023	,	0
43,44	,	115086	,	-25816	,	-23763	,	-12.340837	,	0
43,44	,	115118	,	-25811	,	-23784	,	-12.505404	,	0
43,44	,	115134	,	-25825	,	-23772	,	-12.373621	,	0
43,44	,	115165	,	-25828	,	-23779	,	-11.948005	,	0
43,44	,	115182	,	-25834	,	-23792	,	-11.446457	,	0
43,44	,	115197	,	-25841	,	-23788	,	-11.085363	,	0
43,44	,	115229	,	-25833	,	-23785	,	-10.953968	,	0
43,44	,	115246	,	-25817	,	-23784	,	-10.842667	,	0
43,44	,	115262	,	-25811	,	-23776	,	-10.22971	,	0
43,44	,	115294	,	-25790	,	-23770	,	-8.573551	,	0
43,44	,	115310	,	-25797	,	-23768	,	-5.609306	,	1
43,44	,	115326	,	-25787	,	-23770	,	-1.5276861	,	3
43,44	,	115357	,	-25772	,	-23762	,	3.1882439	,	7
43,44	,	115373	,	-25769	,	-23745	,	8.113357	,	11
43,44	,	115405	,	-25769	,	-23755	,	12.8570175	,	15
43,44	,	115421	,	-25760	,	-23753	,	16.965229	,	19
43,44	,	115437	,	-25758	,	-23753	,	20.09288	,	23
43,45	,	115470	,	-25761	,	-23754	,	22.064201	,	26
43,45	,	115486	,	-25768	,	-23759	,	22.734737	,	27
43,45	,	115502	,	-25762	,	-23764	,	22.012264	,	26
43,45	,	115533	,	-25762	,	-23755	,	20.041164	,	24
43,45	,	115549	,	-25748	,	-23753	,	17.265362	,	20
43,45	,	115581	,	-25750	,	-23741	,	14.2957325	,	16
43,45	,	115597	,	-25747	,	-23772	,	11.642322	,	12
43,45	,	115613	,	-25752	,	-23740	,	9.511732	,	8
43,45	,	115645	,	-25758	,	-23753	,	7.815465	,	4
43,45	,	115661	,	-25752	,	-23759	,	6.34117	,	1
43,45	,	115677	,	-25752	,	-23760	,	4.9765277	,	0
43,45	,	115709	,	-25751	,	-23761	,	3.7533367	,	0
43,45	,	115725	,	-25751	,	-23762	,	2.7314785	,	0
43,45	,	115741	,	-25753	,	-23758	,	1.931947	,	0
43,45	,	115773	,	-25768	,	-23757	,	1.2590923	,	0
43,45	,	115789	,	-25768	,	-23762	,	0.46126342	,	0
43,45	,	115822	,	-25761	,	-23768	,	-0.62635016	,	0
43,45	,	115837	,	-25764	,	-23776	,	-1.8592806	,	0
43,45	,	115853	,	-25765	,	-23742	,	-2.972736	,	0
43,45	,	115885	,	-25776	,	-23767	,	-3.8648322	,	0
43,45	,	115901	,	-25773	,	-23768	,	-4.6176467	,	0
43,45	,	115917	,	-25781	,	-23764	,	-5.3378077	,	0
43,45	,	115949	,	-25782	,	-23762	,	-6.0730667	,	0
43,45	,	115965	,	-25792	,	-23783	,	-6.8580256	,	0
43,45	,	115997	,	-25797	,	-23774	,	-7.756104	,	0
43,45	,	116013	,	-25801	,	-23771	,	-8.82339	,	0
43,45	,	116029	,	-25797	,	-23780	,	-9.996002	,	0
43,45	,	116061	,	-25794	,	-23780	,	-11.022985	,	0
43,45	,	116077	,	-25799	,	-23784	,	-11.593035	,	0
43,45	,	116093	,	-25807	,	-23761	,	-11.597141	,	0
43,45	,	116125	,	-25821	,	-23792	,	-11.262585	,	0
43,45	,	116141	,	-25825	,	-23773	,	-11.007938	,	0
43,45	,	116157	,	-25803	,	-23762	,	-11.023799	,	0
43,45	,	116189	,	-25783	,	-23778	,	-10.887476	,	0
43,45	,	116205	,	-25775	,	-23762	,	-9.790026	,	0
43,45	,	116237	,	-25769	,	-23766	,	-7.1996174	,	1
43,45	,	116253	,	-25762	,	-23764	,	-3.172161	,	3
43,45	,	116269	,	-25759	,	-23761	,	1.8063588	,	7
43,45	,	116301	,	-25748	,	-23762	,	7.0954905	,	11
43,45	,	116317	,	-25750	,	-23769	,	12.104651	,	16
43,45	,	116333	,	-25746	,	-23742	,	16.336174	,	21
43,45	,	116365	,	-25751	,	-23763	,	19.374132	,	25
43,45	,	116381	,	-25746	,	-23746	,	20.951584	,	28
43,45	,	116413	,	-25747	,	-23756	,	21.041763	,	29
43,45	,	116429	,	-25746	,	-23749	,	19.848713	,	28
43,45	,	116445	,	-25748	,	-23749	,	17.687363	,	26
43,46	,	116477	,	-25739	,	-23745	,	14.928611	,	22
43,46	,	116493	,	-25737	,	-23754	,	12.0205345	,	18
43,46	,	116509	,	-25730	,	-23748	,	9.420085	,	13
43,46	,	116541	,	-25738	,	-23745	,	7.422635	,	8
43,46	,	116557	,	-25729	,	-23757	,	6.067249	,	4
43,46	,	116589	,	-25737	,	-23731	,	5.226825	,	1
43,46	,	116605	,	-25739	,	-23733	,	4.6899824	,	0
43,46	,	116621	,	-25740	,	-23742	,	4.204525	,	0
43,46	,	116653	,	-25741	,	-23748	,	3.5944386	,	0
43,46	,	116669	,	-25740	,	-23749	,	2.8134367	,	0
43,46	,	116685	,	-25737	,	-23747	,	1.9290211	,	0
43,46	,	116717	,	-25747	,	-23748	,	1.0437459	,	0
43,46	,	116733	,	-25749	,	-23746	,	0.15373218	,	0
43,46	,	116749	,	-25754	,	-23744	,	-0.83686185	,	0
43,46	,	116781	,	-25751	,	-23749	,	-1.9649518	,	0
43,46	,	116797	,	-25757	,	-23771	,	-3.1564806	,	0
43,46	,	116829	,	-25764	,	-23734	,	-4.3393574	,	0
43,46	,	116845	,	-25766	,	-23748	,	-5.5267315	,	0
43,46	,	116861	,	-25765	,	-23761	,	-6.7074304	,	0
43,46	,	116893	,	-25778	,	-23748	,	-7.804458	,	0
43,46	,	116909	,	-25777	,	-23763	,	-8.802547	,	0
43,46	,	116925	,	-25780	,	-23761	,	-9.7219515	,	0
43,46	,	116957	,	-25774	,	-23765	,	-10.470397	,	0
43,46	,	116973	,	-25777	,	-23768	,	-10.849636	,	0
43,46	,	117005	,	-25790	,	-23772	,	-10.77165	,	0
43,46	,	117021	,	-25790	,	-23770	,	-10.413575	,	0
43,46	,	117037	,	-25791	,	-23792	,	-10.022543	,	0
43,46	,	117069	,	-25776	,	-23747	,	-9.610984	,	0
43,46	,	117085	,	-25756	,	-23751	,	-8.8267565	,	0
43,46	,	117101	,	-25747	,	-23757	,	-7.096509	,	0
43,46	,	117133	,	-25749	,	-23751	,	-4.0874634	,	1
43,46	,	117149	,	-25741	,	-23761	,	-0.021262646	,	4
43,46	,	117165	,	-25731	,	-23740	,	4.5628824	,	8
43,46	,	117197	,	-25730	,	-23742	,	9.153928	,	12
43,46	,	117213	,	-25722	,	-23741	,	13.332247	,	16
43,46	,	117245	,	-25709	,	-23752	,	16.826828	,	20
43,46	,	117261	,	-25718	,	-23733	,	19.533773	,	23
43,46	,	117277	,	-25719	,	-23754	,	21.295692	,	25
43,46	,	117309	,	-25726	,	-23730	,	21.83712	,	26
43,46	,	117325	,	-25719	,	-23735	,	21.008812	,	25
43,46	,	117341	,	-25709	,	-23741	,	19.024086	,	22
43,46	,	117372	,	-25720	,	-23729	,	16.375544	,	18
43,46	,	117388	,	-25715	,	-23734	,	13.481127	,	14
43,46	,	117420	,	-25722	,	-23738	,	10.552656	,	10
43,46	,	117437	,	-25719	,	-23734	,	7.7158456	,	6
43,46	,	117453	,	-25722	,	-23736	,	5.0875497	,	3
43,47	,	117485	,	-25719	,	-23736	,	2.789394	,	1
43,47	,	117501	,	-25725	,	-23735	,	0.9013736	,	0
43,47	,	117517	,	-25724	,	-23751	,	-0.5793114	,	0
43,47	,	117548	,	-25722	,	-23722	,	-1.6805079	,	0
43,47	,	117564	,	-25735	,	-23740	,	-2.451895	,	0
43,47	,	117597	,	-25745	,	-23740	,	-3.1090562	,	0
43,47	,	117613	,	-25739	,	-23741	,	-3.9530604	,	0
43,47	,	117629	,	-25742	,	-23732	,	-5.0500574	,	0
43,47	,	117660	,	-25739	,	-23742	,	-6.1912494	,	0
43,47	,	117676	,	-25751	,	-23755	,	-7.151227	,	0
43,47	,	117692	,	-25747	,	-23753	,	-7.8585057	,	0
43,47	,	117724	,	-25754	,	-23754	,	-8.341169	,	0
43,47	,	117741	,	-25760	,	-23751	,	-8.668305	,	0
43,47	,	117757	,	-25747	,	-23748	,	-8.887062	,	0
43,47	,	117788	,	-25762	,	-23748	,	-8.931335	,	0
43,47	,	117805	,	-25756	,	-23754	,	-8.747231	,	0
43,47	,	117836	,	-25773	,	-23765	,	-8.429155	,	0
43,47	,	117852	,	-25776	,	-23753	,	-8.205751	,	0
43,47	,	117868	,	-25769	,	-23761	,	-8.270119	,	0
43,47	,	117901	,	-25772	,	-23763	,	-8.544584	,	0
43,47	,	117916	,	-25786	,	-23765	,	-8.849484	,	0
43,47	,	117932	,	-25795	,	-23764	,	-9.240612	,	0
43,47	,	117965	,	-25789	,	-23774	,	-9.880194	,	0
43,47	,	117981	,	-25794	,	-23781	,	-10.713624	,	0
43,47	,	118012	,	-25780	,	-23753	,	-11.443331	,	0
43,47	,	118028	,	-25764	,	-23763	,	-11.591125	,	0
43,47	,	118044	,	-25748	,	-23752	,	-10.550613	,	0
43,47	,	118076	,	-25738	,	-23754	,	-7.8523965	,	1
43,47	,	118092	,	-25731	,	-23745	,	-3.4630036	,	3
43,47	,	118108	,	-25725	,	-23750	,	2.1714926	,	7
43,47	,	118140	,	-25714	,	-23742	,	8.351417	,	12
43,47	,	118156	,	-25701	,	-23734	,	14.435087	,	18
43,47	,	118172	,	-25692	,	-23740	,	19.993872	,	24
43,47	,	118204	,	-25698	,	-23727	,	24.690891	,	29
43,47	,	118220	,	-25702	,	-23743	,	28.078087	,	33
43,47	,	118252	,	-25714	,	-23722	,	29.628252	,	36
43,47	,	118268	,	-25715	,	-23732	,	28.980019	,	36
43,47	,	118284	,	-25693	,	-23733	,	26.280544	,	34
43,47	,	118317	,	-25690	,	-23728	,	22.337357	,	30
43,47	,	118332	,	-25685	,	-23725	,	18.193378	,	25
43,47	,	118348	,	-25688	,	-23718	,	14.564565	,	19
43,47	,	118380	,	-25691	,	-23722	,	11.68796	,	13
43,47	,	118396	,	-25687	,	-23706	,	9.476834	,	8
43,47	,	118428	,	-25684	,	-23725	,	7.7877774	,	4
43,47	,	118444	,	-25693	,	-23717	,	6.5136385	,	1
43,47	,	118460	,	-25698	,	-23737	,	5.4491873	,	0
43,48	,	118492	,	-25698	,	-23709	,	4.3199778	,	0
43,48	,	118508	,	-25699	,	-23728	,	2.9897664	,	0
43,48	,	118524	,	-25712	,	-23740	,	1.4524186	,	0
43,48	,	118556	,	-25703	,	-23727	,	-0.27969313	,	0
43,48	,	118572	,	-25719	,	-23736	,	-2.138458	,	0
43,48	,	118588	,	-25712	,	-23738	,	-4.0128236	,	0
43,48	,	118620	,	-25719	,	-23733	,	-5.776447	,	0
43,48	,	118636	,	-25722	,	-23727	,	-7.294999	,	0
43,48	,	118668	,	-25725	,	-23739	,	-8.505931	,	0
43,48	,	118684	,	-25745	,	-23737	,	-9.494968	,	0
43,48	,	118700	,	-25735	,	-23762	,	-10.46136	,	0
43,48	,	118732	,	-25732	,	-23730	,	-11.42267	,	0
43,48	,	118748	,	-25739	,	-23742	,	-12.118711	,	0
43,48	,	118764	,	-25752	,	-23755	,	-12.410587	,	0
43,48	,	118796	,	-25753	,	-23754	,	-12.470994	,	0
43,48	,	118812	,	-25763	,	-23765	,	-12.549319	,	0
43,48	,	118844	,	-25766	,	-23768	,	-12.804047	,	0
43,48	,	118860	,	-25764	,	-23759	,	-13.253227	,	0
43,48	,	118876	,	-25770	,	-23757	,	-13.753405	,	0
43,48	,	118908	,	-25773	,	-23776	,	-14.132803	,	0
43,48	,	118924	,	-25783	,	-23773	,	-14.342126	,	0
43,48	,	118940	,	-25777	,	-23777	,	-14.409281	,	0
43,48	,	118972	,	-25781	,	-23754	,	-14.289405	,	0
43,48	,	118988	,	-25751	,	-23758	,	-13.736746	,	0
43,48	,	119004	,	-25739	,	-23761	,	-12.238906	,	0
43,48	,	119036	,	-25735	,	-23757	,	-9.297169	,	1
43,48	,	119052	,	-25724	,	-23748	,	-4.872461	,	3
43,48	,	119084	,	-25726	,	-23754	,	0.5798445	,	7
43,48	,	119100	,	-25724	,	-23745	,	6.320434	,	12
43,48	,	119116	,	-25719	,	-23759	,	11.561496	,	17
43,48	,	119148	,	-25699	,	-23750	,	15.810851	,	22
43,48	,	119164	,	-25713	,	-23742	,	18.95924	,	26
43,48	,	119180	,	-25698	,	-23769	,	20.996552	,	29
43,48	,	119212	,	-25706	,	-23718	,	21.90745	,	31
43,48	,	119228	,	-25713	,	-23744	,	21.690022	,	30
43,48	,	119260	,	-25701	,	-23751	,	20.360353	,	28
43,48	,	119276	,	-25719	,	-23742	,	18.07093	,	24
43,48	,	119292	,	-25707	,	-23750	,	15.067513	,	19
43,48	,	119324	,	-25699	,	-23752	,	11.713383	,	14
43,48	,	119340	,	-25703	,	-23748	,	8.535218	,	9
43,48	,	119356	,	-25709	,	-23748	,	5.8928246	,	5
43,48	,	119388	,	-25706	,	-23755	,	3.806364	,	2
43,48	,	119403	,	-25715	,	-23753	,	2.144685	,	0
43,48	,	119419	,	-25715	,	-23765	,	0.7470677	,	0
43,48	,	119452	,	-25730	,	-23736	,	-0.58052754	,	0
43,49	,	119468	,	-25719	,	-23757	,	-2.0052385	,	0
43,49	,	119500	,	-25726	,	-23772	,	-3.5051968	,	0
43,49	,	119516	,	-25722	,	-23764	,	-4.880703	,	0
43,49	,	119532	,	-25722	,	-23759	,	-5.9219947	,	0
43,49	,	119563	,	-25727	,	-23768	,	-6.5041966	,	0
43,49	,	119579	,	-25732	,	-23763	,	-6.6722336	,	0
43,49	,	119595	,	-25736	,	-23780	,	-6.629791	,	0
43,49	,	119628	,	-25745	,	-23773	,	-6.6217957	,	0
43,49	,	119644	,	-25743	,	-23770	,	-6.837945	,	0
43,49	,	119675	,	-25758	,	-23795	,	-7.366569	,	0
43,49	,	119691	,	-25748	,	-23759	,	-8.196136	,	0
43,49	,	119708	,	-25761	,	-23775	,	-9.197494	,	0
43,49	,	119740	,	-25766	,	-23785	,	-10.22725	,	0
43,49	,	119756	,	-25764	,	-23788	,	-11.220907	,	0
43,49	,	119772	,	-25767	,	-23792	,	-12.069706	,	0
43,49	,	119803	,	-25776	,	-23788	,	-12.645266	,	0
43,49	,	119820	,	-25778	,	-23788	,	-12.95743	,	0
43,49	,	119851	,	-25778	,	-23792	,	-13.084411	,	0
43,49	,	119867	,	-25787	,	-23784	,	-13.063177	,	0
43,49	,	119883	,	-25789	,	-23798	,	-12.943159	,	0
43,49	,	119916	,	-25782	,	-23817	,	-12.740767	,	0
43,49	,	119931	,	-25776	,	-23767	,	-12.29082	,	0
43,49	,	119948	,	-25750	,	-23792	,	-11.214472	,	0
43,49	,	119979	,	-25746	,	-23794	,	-9.030287	,	1
43,49	,	119995	,	-25746	,	-23768	,	-5.5190415	,	3
43,49	,	120011	,	-25745	,	-23779	,	-1.026236	,	6
43,49	,	120043	,	-25734	,	-23781	,	3.781528	,	10
43,49	,	120059	,	-25734	,	-23775	,	8.333129	,	14
43,49	,	120091	,	-25730	,	-23782	,	12.234109	,	18
43,49	,	120107	,	-25729	,	-23770	,	15.192649	,	21
43,49	,	120123	,	-25734	,	-23780	,	17.005095	,	23
43,49	,	120155	,	-25749	,	-23799	,	17.479626	,	24
43,49	,	120171	,	-25751	,	-23760	,	16.41577	,	23
43,49	,	120187	,	-25736	,	-23782	,	13.899395	,	21
43,49	,	120219	,	-25739	,	-23777	,	10.513279	,	18
43,49	,	120235	,	-25735	,	-23782	,	7.0161357	,	14
43,49	,	120267	,	-25728	,	-23782	,	3.997971	,	10
43,49	,	120283	,	-25729	,	-23785	,	1.8441625	,	6
43,49	,	120299	,	-25739	,	-23776	,	0.6419697	,	3
43,49	,	120331	,	-25728	,	-23771	,	0.17355907	,	1
43,49	,	120347	,	-25737	,	-23778	,	0.16959107	,	0
43,49	,	120363	,	-25738	,	-23780	,	0.3961921	,	0
43,49	,	120395	,	-25743	,	-23795	,	0.5890798	,	0
43,49	,	120411	,	-25749	,	-23774	,	0.49883616	,	0
43,49	,	120427	,	-25753	,	-23764	,	-0.051291794	,	0
43,49	,	120459	,	-25767	,	-23782	,	-1.1695015	,	0
43,50	,	120475	,	-25759	,	-23776	,	-2.8661015	,	0
43,50	,	120507	,	-25765	,	-23786	,	-4.939222	,	0
43,50	,	120523	,	-25771	,	-23792	,	-7.0527997	,	0
43,50	,	120539	,	-25768	,	-23790	,	-8.942051	,	0
43,50	,	120571	,	-25781	,	-23790	,	-10.452108	,	0
43,50	,	120587	,	-25773	,	-23794	,	-11.525795	,	0
43,50	,	120603	,	-25786	,	-23794	,	-12.169571	,	0
43,50	,	120635	,	-25786	,	-23812	,	-12.453966	,	0
43,50	,	120651	,	-25796	,	-23797	,	-12.532465	,	0
43,50	,	120683	,	-25797	,	-23801	,	-12.563765	,	0
43,50	,	120699	,	-25796	,	-23801	,	-12.610097	,	0
43,50	,	120715	,	-25803	,	-23816	,	-12.615437	,	0
43,50	,	120747	,	-25814	,	-23799	,	-12.56563	,	0
43,50	,	120763	,	-25823	,	-23806	,	-12.627877	,	0
43,50	,	120779	,	-25826	,	-23820	,	-13.0152235	,	0
43,50	,	120811	,	-25831	,	-23813	,	-13.773436	,	0
43,50	,	120827	,	-25830	,	-23813	,	-14.737604	,	0
43,50	,	120843	,	-25840	,	-23825	,	-15.656752	,	0
43,50	,	120875	,	-25855	,	-23815	,	-16.424927	,	0
43,50	,	120891	,	-25836	,	-23816	,	-17.056128	,	0
43,50	,	120923	,	-25821	,	-23805	,	-17.266605	,	0
43,50	,	120939	,	-25820	,	-23822	,	-16.462595	,	0
43,50	,	120955	,	-25801	,	-23810	,	-14.220503	,	0
43,50	,	120987	,	-25787	,	-23812	,	-10.418702	,	2
43,50	,	121003	,	-25785	,	-23796	,	-5.1782637	,	5
43,50	,	121019	,	-25798	,	-23803	,	0.93313646	,	10
43,50	,	121051	,	-25789	,	-23802	,	6.927274	,	16
43,50	,	121067	,	-25776	,	-23804	,	11.9679165	,	21
43,50	,	121099	,	-25787	,	-23800	,	15.709231	,	26
43,50	,	121115	,	-25772	,	-23802	,	18.067635	,	29
43,50	,	121131	,	-25765	,	-23792	,	19.159164	,	31
43,50	,	121163	,	-25781	,	-23805	,	19.257072	,	32
43,50	,	121179	,	-25781	,	-23800	,	18.460155	,	30
43,50	,	121194	,	-25780	,	-23791	,	16.734612	,	27
43,50	,	121227	,	-25780	,	-23802	,	14.225321	,	22
43,50	,	121243	,	-25781	,	-23802	,	11.251012	,	16
43,50	,	121275	,	-25778	,	-23808	,	8.162666	,	11
43,50	,	121291	,	-25778	,	-23804	,	5.2863574	,	6
43,50	,	121307	,	-25774	,	-23805	,	2.8888745	,	3
43,50	,	121338	,	-25780	,	-23813	,	1.1236751	,	1
43,50	,	121354	,	-25784	,	-23808	,	-0.04633689	,	0
43,50	,	121370	,	-25789	,	-23806	,	-0.8395257	,	0
43,50	,	121403	,	-25782	,	-23808	,	-1.4769137	,	0
43,50	,	121419	,	-25799	,	-23812	,	-2.08556	,	0
43,50	,	121435	,	-25795	,	-23808	,	-2.792617	,	0
43,51	,	121467	,	-25789	,	-23822	,	-3.6411285	,	0
43,51	,	121482	,	-25802	,	-23821	,	-4.499118	,	0
43,51	,	121514	,	-25796	,	-23810	,	-5.250769	,	0
43,51	,	121530	,	-25806	,	-23821	,	-5.8706455	,	0
43,51	,	121546	,	-25810	,	-23817	,	-6.395124	,	0
43,51	,	121578	,	-25814	,	-23819	,	-6.933501	,	0
43,51	,	121594	,	-25827	,	-23812	,	-7.6146975	,	0
43,51	,	121610	,	-25813	,	-23826	,	-8.484965	,	0
43,51	,	121642	,	-25824	,	-23831	,	-9.3895235	,	0
43,51	,	121658	,	-25838	,	-23823	,	-10.168335	,	0
43,51	,	121691	,	-25837	,	-23834	,	-10.90542	,	0
43,51	,	121706	,	-25835	,	-23840	,	-11.681736	,	0
43,51	,	121722	,	-25845	,	-23841	,	-12.384825	,	0
43,51	,	121754	,	-25849	,	-23823	,	-12.924398	,	0
43,51	,	121770	,	-25872	,	-23837	,	-13.424838	,	0
43,51	,	121786	,	-25863	,	-23843	,	-14.132229	,	0
43,51	,	121818	,	-25878	,	-23834	,	-15.136139	,	0
43,51	,	121834	,	-25878	,	-23826	,	-16.320528	,	0
43,51	,	121850	,	-25886	,	-23840	,	-17.51963	,	0
43,51	,	121883	,	-25890	,	-23844	,	-18.579296	,	0
43,51	,	121898	,	-25890	,	-23853	,	-19.359295	,	0
43,51	,	121930	,	-25882	,	-23849	,	-19.657118	,	0
43,51	,	121946	,	-25860	,	-23841	,	-19.085697	,	0
43,51	,	121962	,	-25860	,	-23855	,	-17.175024	,	0
43,51	,	121994	,	-25866	,	-23841	,	-13.809131	,	1
43,51	,	122010	,	-25839	,	-23837	,	-9.341345	,	4
43,51	,	122026	,	-25843	,	-23828	,	-4.1726665	,	8
43,51	,	122058	,	-25829	,	-23842	,	1.3627062	,	13
43,51	,	122074	,	-25830	,	-23816	,	6.8467445	,	18
43,51	,	122106	,	-25837	,	-23834	,	11.764542	,	23
43,51	,	122122	,	-25824	,	-23839	,	15.595326	,	27
43,51	,	122138	,	-25820	,	-23831	,	18.088032	,	30
43,51	,	122170	,	-25838	,	-23833	,	19.251282	,	32
43,51	,	122186	,	-25827	,	-23843	,	19.07078	,	32
43,51	,	122202	,	-25833	,	-23830	,	17.621735	,	29
43,51	,	122234	,	-25829	,	-23836	,	15.217619	,	25
43,51	,	122250	,	-25820	,	-23845	,	12.312291	,	20
43,51	,	122282	,	-25823	,	-23830	,	9.413918	,	15
43,51	,	122298	,	-25831	,	-23839	,	6.873958	,	10
43,51	,	122314	,	-25823	,	-23821	,	4.7655334	,	6
43,51	,	122346	,	-25824	,	-23840	,	3.0868444	,	3
43,51	,	122362	,	-25826	,	-23840	,	1.8611999	,	1
43,51	,	122378	,	-25818	,	-23825	,	1.0792518	,	0
43,51	,	122410	,	-25828	,	-23836	,	0.695482	,	0
43,51	,	122426	,	-25822	,	-23834	,	0.5934061	,	0
43,51	,	122442	,	-25831	,	-23843	,	0.59049195	,	0
43,52	,	122474	,	-25834	,	-23829	,	0.4878017	,	0
43,52	,	122490	,	-25832	,	-23853	,	0.1333547	,	0
43,52	,	122522	,	-25833	,	-23851	,	-0.4711862	,	0
43,52	,	122538	,	-25843	,	-23853	,	-1.2430027	,	0
43,52	,	122554	,	-25855	,	-23836	,	-2.2317388	,	0
43,52	,	122586	,	-25858	,	-23852	,	-3.6126814	,	0
43,52	,	122602	,	-25864	,	-23862	,	-5.4642663	,	0
43,52	,	122618	,	-25853	,	-23851	,	-7.5962553	,	0
43,52	,	122650	,	-25874	,	-23852	,	-9.645615	,	0
43,52	,	122666	,	-25863	,	-23853	,	-11.354949	,	0
43,52	,	122698	,	-25875	,	-23860	,	-12.6141405	,	0
43,52	,	122714	,	-25862	,	-23863	,	-13.323986	,	0
43,52	,	122730	,	-25873	,	-23863	,	-13.390647	,	0
43,52	,	122762	,	-25878	,	-23867	,	-12.860146	,	0
43,52	,	122778	,	-25888	,	-23862	,	-12.019704	,	0
43,52	,	122794	,	-25889	,	-23847	,	-11.249115	,	0
43,52	,	122826	,	-25898	,	-23863	,	-10.805131	,	0
43,52	,	122842	,	-25902	,	-23855	,	-10.790007	,	0
43,52	,	122858	,	-25898	,	-23867	,	-11.15062	,	0
43,52	,	122890	,	-25893	,	-23867	,	-11.613787	,	0
43,52	,	122906	,	-25880	,	-23852	,	-11.719493	,	0
43,52	,	122938	,	-25864	,	-23858	,	-10.94021	,	0
43,52	,	122954	,	-25859	,	-23851	,	-8.850784	,	0
43,52	,	122970	,	-25837	,	-23848	,	-5.2950034	,	2
43,52	,	123002	,	-25836	,	-23854	,	-0.40356922	,	5
43,52	,	123018	,	-25840	,	-23844	,	5.34005	,	9
43,52	,	123034	,	-25834	,	-23837	,	11.099824	,	14
43,52	,	123066	,	-25827	,	-23838	,	16.066757	,	19
43,52	,	123082	,	-25816	,	-23829	,	19.830225	,	23
43,52	,	123114	,	-25812	,	-23835	,	22.371782	,	26
43,52	,	123130	,	-25817	,	-23825	,	23.791801	,	28
43,52	,	123146	,	-25810	,	-23829	,	24.11893	,	29
43,52	,	123178	,	-25811	,	-23834	,	23.407793	,	27
43,52	,	123194	,	-25798	,	-23819	,	21.883781	,	24
43,52	,	123210	,	-25797	,	-23830	,	19.937843	,	20
43,52	,	123242	,	-25794	,	-23815	,	17.96004	,	15
43,52	,	123257	,	-25803	,	-23825	,	16.118526	,	10
43,52	,	123289	,	-25788	,	-23807	,	14.385274	,	6
43,52	,	123305	,	-25790	,	-23827	,	12.783712	,	3
43,52	,	123322	,	-25793	,	-23818	,	11.385139	,	1
43,52	,	123354	,	-25794	,	-23829	,	10.120813	,	0
43,52	,	123369	,	-25787	,	-23826	,	8.877495	,	0
43,52	,	123385	,	-25794	,	-23826	,	7.6499133	,	0
43,52	,	123417	,	-25798	,	-23804	,	6.4268155	,	0
43,52	,	123433	,	-25800	,	-23833	,	5.1058	,	0
43,52	,	123449	,	-25811	,	-23820	,	3.5679567	,	0
43,53	,	123481	,	-25807	,	-23828	,	1.7456093	,	0
43,53	,	123498	,	-25803	,	-23819	,	-0.2579174	,	0
43,53	,	123530	,	-25819	,	-23815	,	-2.2052538	,	0
43,53	,	123546	,	-25810	,	-23828	,	-3.9587662	,	0
43,53	,	123562	,	-25817	,	-23831	,	-5.450895	,	0
43,53	,	123593	,	-25818	,	-23829	,	-6.598001	,	0
43,53	,	123609	,	-25821	,	-23829	,	-7.3838005	,	0
43,53	,	123626	,	-25825	,	-23842	,	-7.860013	,	0
43,53	,	123658	,	-25833	,	-23831	,	-8.13635	,	0
43,53	,	123674	,	-25831	,	-23825	,	-8.361008	,	0
43,53	,	123705	,	-25834	,	-23836	,	-8.5994625	,	0
43,53	,	123721	,	-25829	,	-23848	,	-8.775429	,	0
43,53	,	123737	,	-25833	,	-23828	,	-8.7432575	,	0
43,53	,	123769	,	-25835	,	-23825	,	-8.421067	,	0
43,53	,	123785	,	-25858	,	-23845	,	-7.9594193	,	0
43,53	,	123801	,	-25852	,	-23828	,	-7.733294	,	0
43,53	,	123833	,	-25858	,	-23847	,	-7.9989457	,	0
43,53	,	123849	,	-25859	,	-23852	,	-8.692465	,	0
43,53	,	123865	,	-25851	,	-23828	,	-9.546168	,	0
43,53	,	123898	,	-25831	,	-23839	,	-10.091593	,	0
43,53	,	123913	,	-25828	,	-23842	,	-9.710383	,	0
43,53	,	123945	,	-25817	,	-23815	,	-7.9745317	,	0
43,53	,	123961	,	-25804	,	-23813	,	-4.8259697	,	1
43,53	,	123977	,	-25793	,	-23812	,	-0.4401207	,	4
43,53	,	124009	,	-25781	,	-23826	,	4.8735437	,	8
43,53	,	124025	,	-25769	,	-23799	,	10.701387	,	13
43,53	,	124041	,	-25774	,	-23808	,	16.530392	,	18
43,53	,	124073	,	-25757	,	-23806	,	21.775097	,	23
43,53	,	124089	,	-25760	,	-23799	,	25.957323	,	28
43,53	,	124121	,	-25752	,	-23812	,	28.79947	,	32
43,53	,	124137	,	-25750	,	-23808	,	30.190826	,	34
43,53	,	124153	,	-25754	,	-23806	,	30.1539	,	34
43,53	,	124185	,	-25748	,	-23806	,	28.791412	,	31
43,53	,	124201	,	-25736	,	-23804	,	26.389807	,	27
43,53	,	124217	,	-25734	,	-23775	,	23.485233	,	22
43,53	,	124249	,	-25737	,	-23799	,	20.582083	,	17
43,53	,	124265	,	-25729	,	-23796	,	17.922224	,	12
43,53	,	124281	,	-25730	,	-23781	,	15.590058	,	7
43,53	,	124313	,	-25735	,	-23792	,	13.582684	,	3
43,53	,	124329	,	-25731	,	-23796	,	11.783296	,	1
43,53	,	124361	,	-25735	,	-23789	,	10.067692	,	0
43,53	,	124377	,	-25738	,	-23790	,	8.365503	,	0
43,53	,	124393	,	-25748	,	-23792	,	6.5771403	,	0
43,53	,	124425	,	-25746	,	-23795	,	4.577453	,	0
43,53	,	124441	,	-25741	,	-23812	,	2.393403	,	0
43,53	,	124457	,	-25752	,	-23780	,	0.23423219	,	0
43,54	,	124489	,	-25757	,	-23806	,	-1.7625058	,	0
43,54	,	124505	,	-25761	,	-23807	,	-3.6285892	,	0
43,54	,	124537	,	-25766	,	-23802	,	-5.412932	,	0
43,54	,	124553	,	-25753	,	-23808	,	-7.032465	,	0
43,54	,	124569	,	-25773	,	-23816	,	-8.297944	,	0
43,54	,	124601	,	-25777	,	-23806	,	-9.193658	,	0
43,54	,	124617	,	-25775	,	-23824	,	-9.906144	,	0
43,54	,	124633	,	-25782	,	-23813	,	-10.529499	,	0
43,54	,	124665	,	-25779	,	-23814	,	-11.018864	,	0
43,54	,	124681	,	-25779	,	-23828	,	-11.27268	,	0
43,54	,	124713	,	-25796	,	-23801	,	-11.243487	,	0
43,54	,	124729	,	-25794	,	-23815	,	-11.089367	,	0
43,54	,	124745	,	-25804	,	-23835	,	-11.046319	,	0
43,54	,	124777	,	-25799	,	-23822	,	-11.201883	,	0
43,54	,	124793	,	-25799	,	-23827	,	-11.435853	,	0
43,54	,	124809	,	-25810	,	-23827	,	-11.555014	,	0
43,54	,	124841	,	-25803	,	-23833	,	-11.479546	,	0
43,54	,	124857	,	-25802	,	-23826	,	-11.162209	,	0
43,54	,	124873	,	-25799	,	-23832	,	-10.4794235	,	0
43,54	,	124905	,	-25779	,	-23806	,	-9.249619	,	0
43,54	,	124921	,	-25767	,	-23835	,	-7.184868	,	1
43,54	,	124953	,	-25760	,	-23799	,	-4.0264535	,	3
43,54	,	124969	,	-25743	,	-23809	,	0.22608376	,	6
43,54	,	124985	,	-25743	,	-23809	,	5.3141003	,	10
43,54	,	125017	,	-25735	,	-23807	,	10.758274	,	15
43,54	,	125032	,	-25733	,	-23799	,	15.9392805	,	20
43,54	,	125048	,	-25722	,	-23803	,	20.317337	,	25
43,54	,	125081	,	-25728	,	-23806	,	23.546085	,	29
43,54	,	125097	,	-25730	,	-23793	,	25.375738	,	32
43,54	,	125129	,	-25730	,	-23800	,	25.619415	,	32
43,54	,	125145	,	-25716	,	-23787	,	24.36123	,	30
43,54	,	125161	,	-25729	,	-23805	,	22.00592	,	27
43,54	,	125192	,	-25714	,	-23771	,	19.025925	,	23
43,54	,	125208	,	-25721	,	-23799	,	15.839696	,	18
43,54	,	125225	,	-25714	,	-23792	,	12.79634	,	13
43,54	,	125257	,	-25718	,	-23786	,	10.116143	,	8
43,54	,	125273	,	-25725	,	-23804	,	7.8474727	,	4
43,54	,	125289	,	-25723	,	-23797	,	5.8776293	,	1
43,54	,	125321	,	-25716	,	-23806	,	4.1271415	,	0
43,54	,	125337	,	-25724	,	-23803	,	2.656784	,	0
43,54	,	125369	,	-25732	,	-23813	,	1.4574122	,	0
43,54	,	125385	,	-25731	,	-23805	,	0.35498786	,	0
43,54	,	125400	,	-25742	,	-23828	,	-0.8320688	,	0
43,54	,	125432	,	-25744	,	-23787	,	-2.2191324	,	0
43,54	,	125448	,	-25741	,	-23806	,	-3.8092825	,	0
43,55	,	125464	,	-25745	,	-23819	,	-5.43104	,	0
43,55	,	125496	,	-25752	,	-23807	,	-6.884378	,	0
43,55	,	125513	,	-25762	,	-23825	,	-8.136547	,	0
43,55	,	125544	,	-25761	,	-23803	,	-9.284678	,	0
43,55	,	125560	,	-25776	,	-23817	,	-10.421378	,	0
43,55	,	125576	,	-25779	,	-23816	,	-11.629978	,	0
43,55	,	125608	,	-25775	,	-23826	,	-12.913921	,	0
43,55	,	125625	,	-25776	,	-23806	,	-14.05545	,	0
43,55	,	125640	,	-25781	,	-23840	,	-14.758476	,	0
43,55	,	125672	,	-25794	,	-23816	,	-14.950945	,	0
43,55	,	125689	,	-25797	,	-23828	,	-14.845702	,	0
43,55	,	125720	,	-25805	,	-23846	,	-14.728966	,	0
43,55	,	125736	,	-25806	,	-23836	,	-14.765282	,	0
43,55	,	125752	,	-25809	,	-23839	,	-14.950146	,	0
43,55	,	125784	,	-25800	,	-23822	,	-15.099554	,	0
43,55	,	125800	,	-25798	,	-23837	,	-14.884752	,	0
43,55	,	125816	,	-25783	,	-23830	,	-13.943775	,	0
43,55	,	125848	,	-25766	,	-23811	,	-11.924929	,	0
43,55	,	125864	,	-25749	,	-23828	,	-8.505163	,	2
43,55	,	125880	,	-25742	,	-23831	,	-3.5767927	,	5
43,55	,	125912	,	-25751	,	-23808	,	2.4750843	,	9
43,55	,	125928	,	-25735	,	-23806	,	8.804797	,	15
43,55	,	125960	,	-25736	,	-23807	,	14.568024	,	21
43,55	,	125976	,	-25725	,	-23803	,	19.242449	,	26
43,55	,	125992	,	-25731	,	-23787	,	22.559143	,	30
43,55	,	126024	,	-25723	,	-23794	,	24.396294	,	33
43,55	,	126040	,	-25728	,	-23808	,	24.769554	,	34
43,55	,	126056	,	-25733	,	-23805	,	23.777967	,	32
43,55	,	126088	,	-25725	,	-23807	,	21.585144	,	29
43,55	,	126104	,	-25717	,	-23811	,	18.576889	,	25
43,55	,	126136	,	-25717	,	-23797	,	15.347331	,	19
43,55	,	126152	,	-25716	,	-23796	,	12.394704	,	13
43,55	,	126168	,	-25713	,	-23806	,	9.962426	,	8
43,55	,	126200	,	-25712	,	-23807	,	8.12005	,	4
43,55	,	126216	,	-25720	,	-23801	,	6.796761	,	1
43,55	,	126232	,	-25719	,	-23805	,	5.773239	,	0
43,55	,	126264	,	-25728	,	-23805	,	4.783554	,	0
43,55	,	126280	,	-25718	,	-23807	,	3.6632814	,	0
43,55	,	126296	,	-25737	,	-23814	,	2.3771224	,	0
43,55	,	126328	,	-25729	,	-23804	,	0.9112139	,	0
43,55	,	126344	,	-25733	,	-23815	,	-0.69544065	,	0
43,55	,	126376	,	-25736	,	-23799	,	-2.2911606	,	0
43,55	,	126392	,	-25744	,	-23813	,	-3.769847	,	0
43,55	,	126408	,	-25755	,	-23824	,	-5.1948133	,	0
43,55	,	126440	,	-25754	,	-23824	,	-6.7083397	,	0
43,55	,	126456	,	-25761	,	-23827	,	-8.346784	,	0
43,56	,	126472	,	-25759	,	-23816	,	-9.985201	,	0
43,56	,	126504	,	-25773	,	-23809	,	-11.464824	,	0
43,56	,	126520	,	-25780	,	-23825	,	-12.760093	,	0
43,56	,	126552	,	-25774	,	-23815	,	-13.918636	,	0
43,56	,	126568	,	-25773	,	-23827	,	-14.810171	,	0
43,56	,	126584	,	-25782	,	-23836	,	-15.197521	,	0
43,56	,	126616	,	-25795	,	-23814	,	-15.0837555	,	0
43,56	,	126632	,	-25800	,	-23826	,	-14.774533	,	0
43,56	,	126648	,	-25813	,	-23835	,	-14.641564	,	0
43,56	,	126680	,	-25817	,	-23841	,	-14.942015	,	0
43,56	,	126696	,	-25818	,	-23828	,	-15.716097	,	0
43,56	,	126712	,	-25811	,	-23839	,	-16.700882	,	0
43,56	,	126744	,	-25792	,	-23827	,	-17.325245	,	0
43,56	,	126760	,	-25787	,	-23832	,	-16.87655	,	0
43,56	,	126792	,	-25774	,	-23819	,	-14.844692	,	0
43,56	,	126808	,	-25766	,	-23811	,	-11.128578	,	2
43,56	,	126824	,	-25766	,	-23833	,	-6.030484	,	5
43,56	,	126856	,	-25757	,	-23812	,	-0.1724267	,	10
43,56	,	126872	,	-25753	,	-23820	,	5.7374516	,	15
43,56	,	126888	,	-25756	,	-23821	,	11.075912	,	20
43,56	,	126920	,	-25748	,	-23790	,	15.337102	,	25
43,56	,	126936	,	-25747	,	-23813	,	18.239826	,	29
43,56	,	126968	,	-25756	,	-23800	,	19.709995	,	31
43,56	,	126984	,	-25752	,	-23818	,	19.73909	,	32
43,56	,	127000	,	-25744	,	-23805	,	18.481697	,	30
43,56	,	127032	,	-25760	,	-23811	,	16.293613	,	27
43,56	,	127048	,	-25761	,	-23808	,	13.45422	,	22
43,56	,	127064	,	-25755	,	-23827	,	10.148515	,	17
43,56	,	127096	,	-25751	,	-23798	,	6.7294817	,	12
43,56	,	127112	,	-25757	,	-23825	,	3.6460657	,	7
43,56	,	127127	,	-25740	,	-23813	,	1.2423005	,	3
43,56	,	127159	,	-25742	,	-23814	,	-0.2137332	,	1
43,56	,	127176	,	-25756	,	-23821	,	-0.67454493	,	0
43,56	,	127207	,	-25754	,	-23814	,	-0.50302315	,	0
43,56	,	127223	,	-25755	,	-23828	,	-0.180473	,	0
43,56	,	127240	,	-25762	,	-23826	,	-0.005861789	,	0
43,56	,	127272	,	-25762	,	-23825	,	-0.14657259	,	0
43,56	,	127288	,	-25753	,	-23824	,	-0.61372286	,	0
43,56	,	127303	,	-25766	,	-23845	,	-1.2412426	,	0
43,56	,	127335	,	-25774	,	-23801	,	-1.951117	,	0
43,56	,	127351	,	-25776	,	-23824	,	-2.8647962	,	0
43,56	,	127383	,	-25781	,	-23840	,	-4.0778093	,	0
43,56	,	127399	,	-25785	,	-23832	,	-5.544558	,	0
43,56	,	127415	,	-25790	,	-23833	,	-7.151729	,	0
43,56	,	127447	,	-25785	,	-23845	,	-8.735783	,	0
43,57	,	127464	,	-25793	,	-23834	,	-10.078504	,	0
43,57	,	127480	,	-25794	,	-23832	,	-11.022465	,	0
43,57	,	127512	,	-25793	,	-23825	,	-11.524731	,	0
43,57	,	127527	,	-25802	,	-23827	,	-11.602301	,	0
43,57	,	127559	,	-25807	,	-23841	,	-11.374818	,	0
43,57	,	127575	,	-25820	,	-23826	,	-11.100328	,	0
43,57	,	127591	,	-25822	,	-23835	,	-11.071177	,	0
43,57	,	127623	,	-25828	,	-23830	,	-11.447964	,	0
43,57	,	127640	,	-25820	,	-23828	,	-12.137232	,	0
43,57	,	127656	,	-25800	,	-23842	,	-12.706815	,	0
43,57	,	127687	,	-25802	,	-23834	,	-12.506451	,	0
43,57	,	127703	,	-25785	,	-23835	,	-11.057682	,	0
43,57	,	127719	,	-25782	,	-23828	,	-8.239561	,	1
43,57	,	127751	,	-25776	,	-23817	,	-4.2398925	,	3
43,57	,	127767	,	-25775	,	-23821	,	0.47446966	,	6
43,57	,	127799	,	-25767	,	-23851	,	5.3054647	,	10
43,57	,	127815	,	-25779	,	-23799	,	9.667726	,	14
43,57	,	127831	,	-25769	,	-23819	,	13.029623	,	18
43,57	,	127863	,	-25773	,	-23819	,	15.065909	,	21
43,57	,	127879	,	-25780	,	-23811	,	15.708665	,	23
43,57	,	127895	,	-25785	,	-23833	,	14.981375	,	23
43,57	,	127927	,	-25782	,	-23819	,	13.007457	,	22
43,57	,	127943	,	-25772	,	-23816	,	10.18736	,	20
43,57	,	127975	,	-25779	,	-23805	,	7.1346593	,	17
43,57	,	127991	,	-25779	,	-23821	,	4.3425097	,	13
43,57	,	128007	,	-25772	,	-23821	,	2.0634065	,	9
43,57	,	128039	,	-25779	,	-23834	,	0.42824817	,	5
43,57	,	128055	,	-25779	,	-23808	,	-0.5745685	,	2
43,57	,	128071	,	-25780	,	-23836	,	-1.1024184	,	0
43,57	,	128103	,	-25791	,	-23821	,	-1.3809308	,	0
43,57	,	128119	,	-25778	,	-23830	,	-1.6258149	,	0
43,57	,	128135	,	-25795	,	-23821	,	-1.9402418	,	0
43,57	,	128167	,	-25799	,	-23830	,	-2.4198465	,	0
43,57	,	128183	,	-25800	,	-23829	,	-3.2133245	,	0
43,57	,	128215	,	-25797	,	-23816	,	-4.303998	,	0
43,57	,	128231	,	-25808	,	-23831	,	-5.503556	,	0
43,57	,	128247	,	-25789	,	-23834	,	-6.5910087	,	0
43,57	,	128279	,	-25814	,	-23853	,	-7.3566446	,	0
43,57	,	128295	,	-25815	,	-23820	,	-7.817152	,	0
43,57	,	128311	,	-25832	,	-23833	,	-8.293932	,	0
43,57	,	128343	,	-25827	,	-23836	,	-9.098048	,	0
43,57	,	128359	,	-25822	,	-23840	,	-10.208928	,	0
43,57	,	128391	,	-25821	,	-23840	,	-11.252845	,	0
43,57	,	128407	,	-25832	,	-23833	,	-11.855478	,	0
43,57	,	128423	,	-25832	,	-23846	,	-11.950155	,	0
43,57	,	128455	,	-25840	,	-23848	,	-11.698589	,	0
43,58	,	128471	,	-25842	,	-23831	,	-11.310662	,	0
43,58	,	128487	,	-25846	,	-23846	,	-10.952478	,	0
43,58	,	128519	,	-25844	,	-23863	,	-10.681473	,	0
43,58	,	128535	,	-25838	,	-23816	,	-10.3996315	,	0
43,58	,	128551	,	-25821	,	-23838	,	-9.815817	,	0
43,58	,	128583	,	-25812	,	-23819	,	-8.493391	,	0
43,58	,	128599	,	-25819	,	-23827	,	-6.154026	,	1
43,58	,	128631	,	-25803	,	-23831	,	-2.9290285	,	3
43,58	,	128647	,	-25798	,	-23833	,	0.8523693	,	6
43,58	,	128663	,	-25802	,	-23835	,	4.8532314	,	9
43,58	,	128695	,	-25795	,	-23825	,	8.64849	,	13
43,58	,	128711	,	-25796	,	-23825	,	11.812515	,	16
43,58	,	128727	,	-25795	,	-23810	,	14.058101	,	19
43,58	,	128759	,	-25794	,	-23848	,	15.245217	,	21
43,58	,	128775	,	-25794	,	-23807	,	15.386913	,	22
43,58	,	128807	,	-25791	,	-23809	,	14.629402	,	21
43,58	,	128823	,	-25800	,	-23822	,	13.169682	,	19
43,58	,	128839	,	-25790	,	-23820	,	11.206009	,	16
43,58	,	128870	,	-25789	,	-23813	,	9.010959	,	13
43,58	,	128886	,	-25793	,	-23803	,	6.8987846	,	9
43,58	,	128903	,	-25791	,	-23811	,	5.0489807	,	6
43,58	,	128935	,	-25786	,	-23814	,	3.5306172	,	3
43,58	,	128950	,	-25789	,	-23827	,	2.4118133	,	1
43,58	,	128966	,	-25796	,	-23831	,	1.6709826	,	0
43,58	,	128998	,	-25801	,	-23833	,	1.1055571	,	0
43,58	,	129015	,	-25795	,	-23811	,	0.48675227	,	0
43,58	,	129047	,	-25802	,	-23820	,	-0.25033814	,	0
43,58	,	129063	,	-25806	,	-23831	,	-1.0869851	,	0
43,58	,	129079	,	-25810	,	-23830	,	-2.054985	,	0
43,58	,	129110	,	-25813	,	-23833	,	-3.1852746	,	0
43,58	,	129126	,	-25810	,	-23833	,	-4.415246	,	0
43,58	,	129142	,	-25812	,	-23835	,	-5.5698776	,	0
43,58	,	129175	,	-25817	,	-23827	,	-6.4703064	,	0
43,58	,	129191	,	-25825	,	-23834	,	-7.096762	,	0
43,58	,	129223	,	-25831	,	-23834	,	-7.6038523	,	0
43,58	,	129239	,	-25840	,	-23856	,	-8.2095175	,	0
43,58	,	129254	,	-25832	,	-23823	,	-9.031942	,	0
43,58	,	129286	,	-25828	,	-23841	,	-9.908261	,	0
43,58	,	129302	,	-25851	,	-23851	,	-10.567593	,	0
43,58	,	129318	,	-25846	,	-23836	,	-11.015427	,	0
43,58	,	129351	,	-25849	,	-23850	,	-11.399132	,	0
43,58	,	129367	,	-25852	,	-23856	,	-11.709193	,	0
43,58	,	129398	,	-25860	,	-23866	,	-11.894746	,	0
43,58	,	129414	,	-25867	,	-23867	,	-12.023653	,	0
43,58	,	129430	,	-25866	,	-23841	,	-12.204304	,	0
43,59	,	129462	,	-25874	,	-23851	,	-12.4620695	,	0
43,59	,	129478	,	-25867	,	-23876	,	-12.722839	,	0
43,59	,	129494	,	-25860	,	-23843	,	-12.774156	,	0
43,59	,	129526	,	-25827	,	-23842	,	-12.141518	,	0
43,59	,	129542	,	-25824	,	-23852	,	-10.168307	,	0
43,59	,	129559	,	-25818	,	-23828	,	-6.496383	,	1
43,59	,	129590	,	-25806	,	-23834	,	-1.3786688	,	4
43,59	,	129606	,	-25817	,	-23842	,	4.4960866	,	9
43,59	,	129638	,	-25810	,	-23821	,	10.221681	,	14
43,59	,	129654	,	-25804	,	-23841	,	14.983045	,	19
43,59	,	129670	,	-25797	,	-23840	,	18.395504	,	23
43,59	,	129702	,	-25796	,	-23836	,	20.459013	,	26
43,59	,	129718	,	-25801	,	-23845	,	21.27602	,	28
43,59	,	129734	,	-25802	,	-23836	,	20.892672	,	28
43,59	,	129766	,	-25792	,	-23837	,	19.423351	,	27
43,59	,	129782	,	-25794	,	-23836	,	17.206049	,	24
43,59	,	129814	,	-25798	,	-23826	,	14.636894	,	19
43,59	,	129830	,	-25781	,	-23828	,	12.029925	,	14
43,59	,	129846	,	-25786	,	-23828	,	9.723386	,	9
43,59	,	129878	,	-25780	,	-23833	,	7.9948864	,	5
43,59	,	129894	,	-25782	,	-23831	,	6.8934503	,	2
43,59	,	129910	,	-25774	,	-23816	,	6.323096	,	0
43,59	,	129942	,	-25786	,	-23829	,	6.1263466	,	0
43,59	,	129958	,	-25782	,	-23817	,	6.0504093	,	0
43,59	,	129974	,	-25785	,	-23825	,	5.8342156	,	0
43,59	,	130006	,	-25786	,	-23830	,	5.3455973	,	0
43,59	,	130022	,	-25797	,	-23824	,	4.5186176	,	0
43,59	,	130054	,	-25790	,	-23833	,	3.300698	,	0
43,59	,	130070	,	-25798	,	-23824	,	1.7550437	,	0
43,59	,	130086	,	-25798	,	-23838	,	0.03834629	,	0
43,59	,	130118	,	-25809	,	-23844	,	-1.741859	,	0
43,59	,	130134	,	-25805	,	-23832	,	-3.5371208	,	0
43,59	,	130150	,	-25803	,	-23821	,	-5.2202163	,	0
43,59	,	130182	,	-25803	,	-23826	,	-6.540322	,	0
43,59	,	130198	,	-25811	,	-23832	,	-7.3189225	,	0
43,59	,	130230	,	-25812	,	-23826	,	-7.611713	,	0
43,59	,	130246	,	-25827	,	-23825	,	-7.664592	,	0
43,59	,	130262	,	-25822	,	-23836	,	-7.776837	,	0
43,59	,	130294	,	-25829	,	-23835	,	-8.1118355	,	0
43,59	,	130310	,	-25827	,	-23841	,	-8.626733	,	0
43,59	,	130326	,	-25823	,	-23851	,	-9.139275	,	0
43,59	,	130358	,	-25834	,	-23849	,	-9.440661	,	0
43,59	,	130374	,	-25843	,	-23853	,	-9.51691	,	0
43,59	,	130390	,	-25842	,	-23855	,	-9.570343	,	0
43,59	,	130422	,	-25837	,	-23842	,	-9.702589	,	0
43,59	,	130438	,	-25836	,	-23852	,	-9.746713	,	0
44,0	,	130470	,	-25854	,	-23843	,	-9.539043	,	0
44,0	,	130486	,	-25827	,	-23845	,	-9.092997	,	0
44,0	,	130502	,	-25805	,	-23839	,	-8.192862	,	0
44,0	,	130534	,	-25804	,	-23824	,	-6.2777524	,	0
44,0	,	130550	,	-25809	,	-23825	,	-3.1064787	,	1
44,0	,	130566	,	-25783	,	-23835	,	0.9930396	,	4
44,0	,	130598	,	-25797	,	-23843	,	5.5335855	,	8
44,0	,	130614	,	-25789	,	-23836	,	9.972781	,	12
44,0	,	130646	,	-25791	,	-23821	,	13.711305	,	16
44,0	,	130662	,	-25788	,	-23831	,	16.323189	,	19
44,0	,	130678	,	-25788	,	-23807	,	17.641323	,	21
44,0	,	130710	,	-25798	,	-23822	,	17.660297	,	22
44,0	,	130726	,	-25785	,	-23822	,	16.492266	,	22
44,0	,	130742	,	-25782	,	-23825	,	14.48133	,	21
44,0	,	130774	,	-25783	,	-23814	,	12.14514	,	18
44,0	,	130790	,	-25780	,	-23817	,	9.888298	,	14
44,0	,	130806	,	-25788	,	-23826	,	7.8856416	,	10
44,0	,	130837	,	-25761	,	-23816	,	6.2453427	,	6
44,0	,	130853	,	-25771	,	-23824	,	5.1956944	,	3
44,0	,	130886	,	-25778	,	-23808	,	4.838457	,	1
44,0	,	130902	,	-25781	,	-23832	,	4.8677874	,	0
44,0	,	130918	,	-25775	,	-23810	,	4.859585	,	0
44,0	,	130950	,	-25775	,	-23825	,	4.626819	,	0
44,0	,	130966	,	-25780	,	-23819	,	4.1786156	,	0
44,0	,	130981	,	-25780	,	-23826	,	3.5372012	,	0
44,0	,	131014	,	-25792	,	-23831	,	2.6621752	,	0
44,0	,	131030	,	-25784	,	-23830	,	1.500566	,	0
44,0	,	131061	,	-25785	,	-23826	,	0.13765013	,	0
44,0	,	131077	,	-25799	,	-23828	,	-1.2564709	,	0
44,0	,	131093	,	-25796	,	-23824	,	-2.6477385	,	0
44,0	,	131126	,	-25794	,	-23822	,	-4.024949	,	0
44,0	,	131142	,	-25799	,	-23826	,	-5.2430553	,	0
44,0	,	131158	,	-25803	,	-23805	,	-6.187714	,	0
44,0	,	131190	,	-25812	,	-23827	,	-6.914156	,	0
44,0	,	131206	,	-25817	,	-23834	,	-7.593564	,	0
44,0	,	131221	,	-25825	,	-23821	,	-8.40336	,	0
44,0	,	131253	,	-25825	,	-23837	,	-9.4295635	,	0
44,0	,	131269	,	-25826	,	-23813	,	-10.591465	,	0
44,0	,	131302	,	-25829	,	-23836	,	-11.673161	,	0
44,0	,	131318	,	-25840	,	-23825	,	-12.513594	,	0
44,0	,	131334	,	-25840	,	-23826	,	-13.120081	,	0
44,0	,	131365	,	-25841	,	-23825	,	-13.529358	,	0
44,0	,	131381	,	-25855	,	-23834	,	-13.741115	,	0
44,0	,	131397	,	-25849	,	-23827	,	-13.810751	,	0
44,0	,	131429	,	-25851	,	-23843	,	-13.758474	,	0
44,0	,	131445	,	-25828	,	-23832	,	-13.378903	,	0
44,1	,	131477	,	-25814	,	-23829	,	-12.19096	,	0
44,1	,	131494	,	-25807	,	-23824	,	-9.678766	,	1
44,1	,	131509	,	-25800	,	-23824	,	-5.705229	,	3
44,1	,	131541	,	-25793	,	-23817	,	-0.6058774	,	6
44,1	,	131557	,	-25800	,	-23812	,	4.979213	,	11
44,1	,	131573	,	-25785	,	-23807	,	10.303131	,	16
44,1	,	131605	,	-25777	,	-23802	,	14.837053	,	21
44,1	,	131621	,	-25777	,	-23816	,	18.388498	,	25
44,1	,	131637	,	-25769	,	-23786	,	20.895615	,	28
44,1	,	131669	,	-25781	,	-23806	,	22.283554	,	30
44,1	,	131685	,	-25771	,	-23811	,	22.4661	,	30
44,1	,	131717	,	-25772	,	-23806	,	21.489151	,	28
44,1	,	131733	,	-25779	,	-23809	,	19.566969	,	25
44,1	,	131749	,	-25758	,	-23802	,	17.00616	,	20
44,1	,	131781	,	-25760	,	-23810	,	14.286205	,	15
44,1	,	131797	,	-25763	,	-23805	,	11.882381	,	10
44,1	,	131813	,	-25757	,	-23800	,	9.971439	,	6
44,1	,	131845	,	-25765	,	-23799	,	8.504951	,	3
44,1	,	131861	,	-25761	,	-23809	,	7.340471	,	1
44,1	,	131893	,	-25753	,	-23783	,	6.368123	,	0
44,1	,	131909	,	-25771	,	-23803	,	5.5520773	,	0
44,1	,	131925	,	-25763	,	-23802	,	4.7597	,	0
44,1	,	131957	,	-25767	,	-23816	,	3.830923	,	0
44,1	,	131973	,	-25771	,	-23803	,	2.7403605	,	0
44,1	,	131989	,	-25772	,	-23805	,	1.5137188	,	0
44,1	,	132021	,	-25780	,	-23810	,	0.16237092	,	0
44,1	,	132037	,	-25782	,	-23806	,	-1.315634	,	0
44,1	,	132069	,	-25798	,	-23817	,	-2.9713216	,	0
44,1	,	132085	,	-25786	,	-23823	,	-4.8428526	,	0
44,1	,	132101	,	-25797	,	-23831	,	-6.790684	,	0
44,1	,	132133	,	-25812	,	-23806	,	-8.633902	,	0
44,1	,	132149	,	-25803	,	-23820	,	-10.354592	,	0
44,1	,	132165	,	-25806	,	-23834	,	-11.872758	,	0
44,1	,	132197	,	-25810	,	-23822	,	-12.963343	,	0
44,1	,	132213	,	-25808	,	-23826	,	-13.48436	,	0
44,1	,	132229	,	-25830	,	-23830	,	-13.505255	,	0
44,1	,	132261	,	-25816	,	-23824	,	-13.2663765	,	0
44,1	,	132277	,	-25831	,	-23823	,	-12.950769	,	0
44,1	,	132309	,	-25828	,	-23830	,	-12.613173	,	0
44,1	,	132325	,	-25831	,	-23819	,	-12.276211	,	0
44,1	,	132341	,	-25839	,	-23847	,	-11.93997	,	0
44,1	,	132373	,	-25840	,	-23817	,	-11.635837	,	0
44,1	,	132389	,	-25852	,	-23837	,	-11.451281	,	0
44,1	,	132405	,	-25849	,	-23838	,	-11.465031	,	0
44,1	,	132437	,	-25848	,	-23839	,	-11.629797	,	0
44,1	,	132453	,	-25838	,	-23825	,	-11.689659	,	0
44,2	,	132485	,	-25812	,	-23828	,	-11.168499	,	0
44,2	,	132501	,	-25806	,	-23830	,	-9.462555	,	0
44,2	,	132517	,	-25795	,	-23822	,	-6.1999106	,	1
44,2	,	132549	,	-25792	,	-23820	,	-1.5244951	,	4
44,2	,	132565	,	-25792	,	-23802	,	3.9731417	,	8
44,2	,	132581	,	-25786	,	-23821	,	9.492669	,	13
44,2	,	132613	,	-25777	,	-23796	,	14.350206	,	18
44,2	,	132629	,	-25772	,	-23804	,	18.188496	,	22
44,2	,	132645	,	-25772	,	-23805	,	20.882648	,	25
44,2	,	132677	,	-25772	,	-23811	,	22.363573	,	27
44,2	,	132693	,	-25775	,	-23810	,	22.579865	,	28
44,2	,	132725	,	-25767	,	-23803	,	21.588915	,	27
44,2	,	132741	,	-25763	,	-23805	,	19.672699	,	24
44,2	,	132757	,	-25779	,	-23801	,	17.202019	,	20
44,2	,	132789	,	-25751	,	-23802	,	14.474023	,	15
44,2	,	132805	,	-25761	,	-23793	,	11.858399	,	10
44,2	,	132820	,	-25770	,	-23813	,	9.644615	,	6
44,2	,	132853	,	-25761	,	-23777	,	7.78104	,	3
44,2	,	132869	,	-25769	,	-23791	,	6.126405	,	1
44,2	,	132901	,	-25770	,	-23791	,	4.6108766	,	0
44,2	,	132916	,	-25764	,	-23795	,	3.1966777	,	0
44,2	,	132933	,	-25762	,	-23805	,	1.9632962	,	0
44,2	,	132964	,	-25779	,	-23791	,	0.9807415	,	0
44,2	,	132981	,	-25773	,	-23796	,	0.11243737	,	0
44,2	,	132997	,	-25767	,	-23802	,	-0.75966746	,	0
44,2	,	133029	,	-25779	,	-23793	,	-1.5579314	,	0
44,2	,	133045	,	-25775	,	-23807	,	-2.228367	,	0
44,2	,	133061	,	-25780	,	-23819	,	-2.80515	,	0
44,2	,	133093	,	-25784	,	-23778	,	-3.323543	,	0
44,2	,	133108	,	-25793	,	-23811	,	-3.8766823	,	0
44,2	,	133140	,	-25797	,	-23808	,	-4.6240034	,	0
44,2	,	133157	,	-25798	,	-23810	,	-5.6577806	,	0
44,2	,	133173	,	-25802	,	-23810	,	-6.9067225	,	0
44,2	,	133205	,	-25804	,	-23816	,	-8.19871	,	0
44,2	,	133221	,	-25812	,	-23807	,	-9.39159	,	0
44,2	,	133237	,	-25807	,	-23812	,	-10.400517	,	0
44,2	,	133268	,	-25821	,	-23814	,	-11.161871	,	0
44,2	,	133284	,	-25822	,	-23819	,	-11.694936	,	0
44,2	,	133316	,	-25822	,	-23829	,	-12.076827	,	0
44,2	,	133333	,	-25828	,	-23793	,	-12.313986	,	0
44,2	,	133349	,	-25840	,	-23828	,	-12.431398	,	0
44,2	,	133381	,	-25831	,	-23808	,	-12.523981	,	0
44,2	,	133396	,	-25829	,	-23824	,	-12.53224	,	0
44,2	,	133413	,	-25827	,	-23829	,	-12.205097	,	0
44,2	,	133444	,	-25819	,	-23823	,	-11.315945	,	0
44,3	,	133460	,	-25799	,	-23814	,	-9.664221	,	0
44,3	,	133476	,	-25789	,	-23811	,	-6.979485	,	1
44,3	,	133509	,	-25786	,	-23803	,	-3.127658	,	3
44,3	,	133525	,	-25782	,	-23805	,	1.6216693	,	6
44,3	,	133556	,	-25774	,	-23818	,	6.695344	,	10
44,3	,	133572	,	-25768	,	-23790	,	11.530611	,	15
44,3	,	133588	,	-25769	,	-23801	,	15.698953	,	19
44,3	,	133620	,	-25775	,	-23795	,	18.808674	,	23
44,3	,	133636	,	-25760	,	-23806	,	20.558743	,	26
44,3	,	133653	,	-25758	,	-23792	,	20.99109	,	27
44,3	,	133685	,	-25772	,	-23794	,	20.374077	,	26
44,3	,	133700	,	-25748	,	-23798	,	18.942314	,	24
44,3	,	133732	,	-25755	,	-23788	,	17.025402	,	21
44,3	,	133748	,	-25750	,	-23794	,	15.013757	,	17
44,3	,	133764	,	-25758	,	-23790	,	13.09362	,	12
44,3	,	133796	,	-25743	,	-23818	,	11.308586	,	8
44,3	,	133812	,	-25750	,	-23784	,	9.741356	,	4
44,3	,	133828	,	-25746	,	-23784	,	8.460266	,	1
44,3	,	133860	,	-25746	,	-23786	,	7.437636	,	0
44,3	,	133876	,	-25747	,	-23787	,	6.6046896	,	0
44,3	,	133892	,	-25762	,	-23799	,	5.8118916	,	0
44,3	,	133924	,	-25754	,	-23786	,	4.8170047	,	0
44,3	,	133940	,	-25752	,	-23801	,	3.5331113	,	0
44,3	,	133972	,	-25759	,	-23790	,	2.1054757	,	0
44,3	,	133988	,	-25762	,	-23794	,	0.6635773	,	0
44,3	,	134004	,	-25777	,	-23802	,	-0.8322861	,	0
44,3	,	134036	,	-25776	,	-23809	,	-2.52954	,	0
44,3	,	134052	,	-25771	,	-23795	,	-4.443837	,	0
44,3	,	134068	,	-25776	,	-23795	,	-6.318653	,	0
44,3	,	134100	,	-25782	,	-23805	,	-7.869529	,	0
44,3	,	134116	,	-25787	,	-23798	,	-9.029193	,	0
44,3	,	134148	,	-25794	,	-23803	,	-9.90717	,	0
44,3	,	134164	,	-25790	,	-23800	,	-10.61965	,	0
44,3	,	134180	,	-25798	,	-23808	,	-11.17639	,	0
44,3	,	134212	,	-25804	,	-23797	,	-11.569967	,	0
44,3	,	134228	,	-25813	,	-23805	,	-11.901754	,	0
44,3	,	134260	,	-25814	,	-23802	,	-12.30835	,	0
44,3	,	134276	,	-25830	,	-23826	,	-12.87769	,	0
44,3	,	134292	,	-25824	,	-23805	,	-13.652096	,	0
44,3	,	134324	,	-25831	,	-23805	,	-14.546804	,	0
44,3	,	134340	,	-25839	,	-23830	,	-15.3811455	,	0
44,3	,	134356	,	-25841	,	-23818	,	-16.053886	,	0
44,3	,	134388	,	-25827	,	-23815	,	-16.449173	,	0
44,3	,	134404	,	-25813	,	-23807	,	-16.199425	,	0
44,3	,	134420	,	-25803	,	-23798	,	-14.776535	,	0
44,3	,	134452	,	-25783	,	-23809	,	-11.7924595	,	1
44,4	,	134468	,	-25775	,	-23796	,	-7.1499953	,	3
44,4	,	134500	,	-25777	,	-23797	,	-1.1551785	,	7
44,4	,	134516	,	-25768	,	-23795	,	5.453775	,	12
44,4	,	134532	,	-25757	,	-23783	,	11.850251	,	18
44,4	,	134564	,	-25748	,	-23777	,	17.48967	,	24
44,4	,	134580	,	-25747	,	-23772	,	22.086626	,	29
44,4	,	134596	,	-25746	,	-23779	,	25.415735	,	33
44,4	,	134628	,	-25749	,	-23782	,	27.253904	,	36
44,4	,	134644	,	-25742	,	-23776	,	27.495178	,	36
44,4	,	134676	,	-25743	,	-23778	,	26.277628	,	34
44,4	,	134692	,	-25743	,	-23773	,	23.927063	,	30
44,4	,	134708	,	-25747	,	-23767	,	20.789448	,	25
44,4	,	134740	,	-25733	,	-23778	,	17.226154	,	19
44,4	,	134756	,	-25738	,	-23774	,	13.680122	,	13
44,4	,	134772	,	-25723	,	-23770	,	10.590822	,	8
44,4	,	134804	,	-25737	,	-23771	,	8.241849	,	4
44,4	,	134820	,	-25730	,	-23762	,	6.6407633	,	1
44,4	,	134851	,	-25725	,	-23756	,	5.6271796	,	0
44,4	,	134868	,	-25734	,	-23768	,	5.057638	,	0
44,4	,	134884	,	-25728	,	-23767	,	4.754582	,	0
44,4	,	134916	,	-25731	,	-23767	,	4.5220566	,	0
44,4	,	134932	,	-25725	,	-23775	,	4.264224	,	0
44,4	,	134948	,	-25735	,	-23781	,	3.9456604	,	0
44,4	,	134980	,	-25733	,	-23754	,	3.4965262	,	0
44,4	,	134996	,	-25742	,	-23775	,	2.8102117	,	0
44,4	,	135011	,	-25754	,	-23781	,	1.7429111	,	0
44,4	,	135043	,	-25758	,	-23768	,	0.11739135	,	0
44,4	,	135060	,	-25754	,	-23778	,	-2.0822847	,	0
44,4	,	135092	,	-25756	,	-23764	,	-4.557629	,	0
44,4	,	135108	,	-25766	,	-23782	,	-6.910922	,	0
44,4	,	135124	,	-25760	,	-23788	,	-8.892579	,	0
44,4	,	135155	,	-25772	,	-23780	,	-10.382485	,	0
44,4	,	135171	,	-25770	,	-23786	,	-11.361187	,	0
44,4	,	135187	,	-25767	,	-23793	,	-11.854902	,	0
44,4	,	135219	,	-25776	,	-23769	,	-11.864145	,	0
44,4	,	135235	,	-25785	,	-23787	,	-11.509405	,	0
44,4	,	135268	,	-25792	,	-23799	,	-11.097679	,	0
44,4	,	135284	,	-25793	,	-23795	,	-10.917946	,	0
44,4	,	135299	,	-25809	,	-23790	,	-11.118759	,	0
44,4	,	135332	,	-25805	,	-23794	,	-11.750382	,	0
44,4	,	135348	,	-25800	,	-23793	,	-12.667521	,	0
44,4	,	135364	,	-25777	,	-23787	,	-13.357931	,	0
44,4	,	135396	,	-25761	,	-23782	,	-13.023649	,	0
44,4	,	135411	,	-25743	,	-23784	,	-10.925242	,	0
44,4	,	135428	,	-25729	,	-23786	,	-6.717571	,	2
44,4	,	135460	,	-25721	,	-23761	,	-0.5833845	,	6
44,5	,	135475	,	-25709	,	-23765	,	6.8308773	,	12
44,5	,	135507	,	-25714	,	-23768	,	14.590474	,	19
44,5	,	135523	,	-25698	,	-23772	,	21.710073	,	26
44,5	,	135539	,	-25690	,	-23762	,	27.482424	,	33
44,5	,	135571	,	-25696	,	-23765	,	31.565348	,	38
44,5	,	135587	,	-25692	,	-23772	,	33.752785	,	42
44,5	,	135603	,	-25700	,	-23759	,	33.92498	,	44
44,5	,	135635	,	-25699	,	-23745	,	32.138863	,	42
44,5	,	135651	,	-25693	,	-23750	,	28.694244	,	38
44,5	,	135683	,	-25682	,	-23755	,	24.218395	,	32
44,5	,	135699	,	-25682	,	-23732	,	19.537167	,	25
44,5	,	135715	,	-25675	,	-23755	,	15.3526	,	18
44,5	,	135747	,	-25685	,	-23752	,	12.01988	,	11
44,5	,	135763	,	-25675	,	-23740	,	9.545179	,	6
44,5	,	135779	,	-25663	,	-23748	,	7.8617134	,	2
44,5	,	135811	,	-25680	,	-23752	,	6.9536953	,	0
44,5	,	135827	,	-25685	,	-23748	,	6.5514035	,	0
44,5	,	135843	,	-25678	,	-23747	,	6.1624823	,	0
44,5	,	135875	,	-25682	,	-23754	,	5.50593	,	0
44,5	,	135891	,	-25676	,	-23749	,	4.6044307	,	0
44,5	,	135923	,	-25684	,	-23780	,	3.5851045	,	0
44,5	,	135939	,	-25686	,	-23738	,	2.5101478	,	0
44,5	,	135955	,	-25706	,	-23756	,	1.2732608	,	0
44,5	,	135987	,	-25699	,	-23762	,	-0.33255482	,	0
44,5	,	136003	,	-25702	,	-23769	,	-2.3339345	,	0
44,5	,	136019	,	-25713	,	-23774	,	-4.5206184	,	0
44,5	,	136051	,	-25707	,	-23760	,	-6.672056	,	0
44,5	,	136067	,	-25718	,	-23759	,	-8.60986	,	0
44,5	,	136099	,	-25717	,	-23763	,	-10.196353	,	0
44,5	,	136115	,	-25714	,	-23765	,	-11.331378	,	0
44,5	,	136131	,	-25734	,	-23767	,	-11.969055	,	0
44,5	,	136163	,	-25730	,	-23782	,	-12.257591	,	0
44,5	,	136179	,	-25725	,	-23756	,	-12.365541	,	0
44,5	,	136195	,	-25738	,	-23772	,	-12.277378	,	0
44,5	,	136227	,	-25747	,	-23778	,	-12.0481205	,	0
44,5	,	136243	,	-25744	,	-23776	,	-11.884871	,	0
44,5	,	136259	,	-25735	,	-23772	,	-11.812223	,	0
44,5	,	136291	,	-25717	,	-23768	,	-11.474932	,	0
44,5	,	136307	,	-25710	,	-23757	,	-10.30444	,	0
44,5	,	136339	,	-25692	,	-23752	,	-7.847012	,	1
44,5	,	136355	,	-25686	,	-23754	,	-3.9623547	,	3
44,5	,	136371	,	-25674	,	-23756	,	1.1440282	,	6
44,5	,	136403	,	-25681	,	-23769	,	6.9282017	,	11
44,5	,	136419	,	-25664	,	-23739	,	12.646005	,	16
44,5	,	136435	,	-25652	,	-23755	,	17.720028	,	21
44,6	,	136467	,	-25659	,	-23745	,	21.878267	,	26
44,6	,	136483	,	-25670	,	-23750	,	24.814354	,	30
44,6	,	136515	,	-25670	,	-23744	,	26.069378	,	32
44,6	,	136531	,	-25675	,	-23741	,	25.368366	,	32
44,6	,	136547	,	-25666	,	-23761	,	22.866169	,	30
44,6	,	136579	,	-25650	,	-23747	,	19.193657	,	27
44,6	,	136595	,	-25648	,	-23746	,	15.296712	,	22
44,6	,	136611	,	-25651	,	-23760	,	11.964216	,	17
44,6	,	136643	,	-25648	,	-23752	,	9.500425	,	12
44,6	,	136659	,	-25645	,	-23734	,	7.870407	,	7
44,6	,	136691	,	-25654	,	-23749	,	6.8973985	,	3
44,6	,	136707	,	-25652	,	-23749	,	6.2838025	,	1
44,6	,	136723	,	-25658	,	-23756	,	5.700904	,	0
44,6	,	136754	,	-25654	,	-23744	,	4.939684	,	0
44,6	,	136771	,	-25671	,	-23761	,	3.89132	,	0
44,6	,	136787	,	-25668	,	-23760	,	2.444031	,	0
44,6	,	136819	,	-25674	,	-23759	,	0.56275344	,	0
44,6	,	136835	,	-25673	,	-23763	,	-1.6053393	,	0
44,6	,	136851	,	-25666	,	-23767	,	-3.761354	,	0
44,6	,	136883	,	-25676	,	-23766	,	-5.562066	,	0
44,6	,	136899	,	-25680	,	-23753	,	-6.8422427	,	0
44,6	,	136930	,	-25685	,	-23770	,	-7.698159	,	0
44,6	,	136946	,	-25699	,	-23771	,	-8.367226	,	0
44,6	,	136963	,	-25704	,	-23767	,	-9.140469	,	0
44,6	,	136995	,	-25708	,	-23784	,	-10.220421	,	0
44,6	,	137011	,	-25711	,	-23781	,	-11.582021	,	0
44,6	,	137027	,	-25722	,	-23788	,	-13.063538	,	0
44,6	,	137059	,	-25717	,	-23780	,	-14.501327	,	0
44,6	,	137074	,	-25719	,	-23786	,	-15.681295	,	0
44,6	,	137106	,	-25721	,	-23791	,	-16.347706	,	0
44,6	,	137122	,	-25731	,	-23801	,	-16.395412	,	0
44,6	,	137139	,	-25731	,	-23788	,	-15.946656	,	0
44,6	,	137170	,	-25696	,	-23776	,	-15.0209	,	0
44,6	,	137186	,	-25679	,	-23771	,	-13.13819	,	0
44,6	,	137203	,	-25667	,	-23772	,	-9.621653	,	1
44,6	,	137235	,	-25665	,	-23770	,	-4.300149	,	4
44,6	,	137251	,	-25661	,	-23769	,	2.2837915	,	9
44,6	,	137266	,	-25653	,	-23768	,	9.20782	,	15
44,6	,	137298	,	-25655	,	-23762	,	15.572004	,	21
44,6	,	137314	,	-25644	,	-23770	,	20.704353	,	27
44,6	,	137347	,	-25643	,	-23764	,	24.255016	,	32
44,6	,	137363	,	-25650	,	-23756	,	26.123753	,	35
44,6	,	137379	,	-25652	,	-23763	,	26.266994	,	36
44,6	,	137411	,	-25651	,	-23753	,	24.731327	,	35
44,6	,	137426	,	-25650	,	-23769	,	21.80376	,	32
44,6	,	137443	,	-25640	,	-23762	,	18.023869	,	27
44,7	,	137474	,	-25632	,	-23770	,	14.108563	,	21
44,7	,	137490	,	-25635	,	-23751	,	10.733358	,	15
44,7	,	137522	,	-25640	,	-23771	,	8.207425	,	9
44,7	,	137538	,	-25647	,	-23742	,	6.3848953	,	4
44,7	,	137554	,	-25646	,	-23766	,	4.915763	,	1
44,7	,	137586	,	-25651	,	-23773	,	3.5277653	,	0
44,7	,	137602	,	-25647	,	-23760	,	2.1172252	,	0
44,7	,	137618	,	-25648	,	-23778	,	0.736253	,	0
44,7	,	137650	,	-25647	,	-23773	,	-0.47219884	,	0
44,7	,	137666	,	-25667	,	-23781	,	-1.4792528	,	0
44,7	,	137682	,	-25668	,	-23777	,	-2.5171092	,	0
44,7	,	137714	,	-25662	,	-23781	,	-3.806418	,	0
44,7	,	137730	,	-25676	,	-23787	,	-5.285804	,	0
44,7	,	137762	,	-25679	,	-23774	,	-6.8310556	,	0
44,7	,	137778	,	-25678	,	-23790	,	-8.389118	,	0
44,7	,	137794	,	-25676	,	-23794	,	-9.79763	,	0
44,7	,	137826	,	-25682	,	-23795	,	-10.811083	,	0
44,7	,	137842	,	-25691	,	-23782	,	-11.347182	,	0
44,7	,	137858	,	-25689	,	-23781	,	-11.532738	,	0
44,7	,	137890	,	-25705	,	-23801	,	-11.56015	,	0
