Data recorded on Mon Jul 24 12-17-50 CAT 2017
Time: 12:17:57
Time		Millis		IR PPG		Red PPG		Filtered		SSF
18,6	,	56112	,	-24866	,	-23171	,	-8.135209	,	0
18,6	,	56144	,	-24866	,	-23165	,	-5.5608783	,	0
18,6	,	56160	,	-24838	,	-23166	,	-0.94769	,	2
18,6	,	56176	,	-24859	,	-23169	,	5.16081	,	6
18,6	,	56208	,	-24857	,	-23157	,	11.799102	,	12
18,6	,	56224	,	-24857	,	-23157	,	17.691107	,	18
18,6	,	56240	,	-24867	,	-23153	,	21.833624	,	23
18,6	,	56272	,	-24853	,	-23157	,	23.748291	,	27
18,6	,	56288	,	-24859	,	-23165	,	23.515495	,	28
18,6	,	56320	,	-24843	,	-23172	,	21.6594	,	28
18,6	,	56336	,	-24837	,	-23147	,	18.951126	,	28
18,6	,	56352	,	-24851	,	-23162	,	16.11216	,	26
18,6	,	56384	,	-24858	,	-23159	,	13.402406	,	22
18,6	,	56400	,	-24828	,	-23153	,	10.819368	,	16
18,6	,	56416	,	-24841	,	-23157	,	8.607498	,	10
18,6	,	56448	,	-24847	,	-23154	,	6.99334	,	5
18,6	,	56464	,	-24845	,	-23158	,	5.813715	,	1
18,6	,	56480	,	-24827	,	-23156	,	4.887129	,	0
18,6	,	56512	,	-24840	,	-23147	,	4.2889996	,	0
18,6	,	56528	,	-24847	,	-23152	,	3.9989882	,	0
18,6	,	56560	,	-24847	,	-23173	,	3.7110672	,	0
18,6	,	56576	,	-24847	,	-23129	,	3.148988	,	0
18,6	,	56592	,	-24855	,	-23167	,	2.2441452	,	0
18,6	,	56624	,	-24853	,	-23155	,	1.0226614	,	0
18,6	,	56640	,	-24870	,	-23163	,	-0.49075496	,	0
18,6	,	56656	,	-24857	,	-23162	,	-2.2598171	,	0
18,6	,	56688	,	-24860	,	-23163	,	-4.08744	,	0
18,6	,	56704	,	-24853	,	-23174	,	-5.6061263	,	0
18,6	,	56736	,	-24862	,	-23173	,	-6.527037	,	0
18,6	,	56752	,	-24880	,	-23166	,	-6.9074335	,	0
18,6	,	56768	,	-24884	,	-23172	,	-7.176077	,	0
18,6	,	56800	,	-24870	,	-23169	,	-7.6863866	,	0
18,6	,	56816	,	-24870	,	-23168	,	-8.303127	,	0
18,6	,	56832	,	-24867	,	-23168	,	-8.619852	,	0
18,6	,	56864	,	-24850	,	-23164	,	-8.277351	,	0
18,6	,	56880	,	-24878	,	-23166	,	-7.1259146	,	0
18,6	,	56911	,	-24844	,	-23163	,	-5.336057	,	1
18,6	,	56927	,	-24834	,	-23162	,	-3.0222895	,	2
18,6	,	56944	,	-24841	,	-23145	,	-0.07896876	,	4
18,6	,	56976	,	-24815	,	-23145	,	3.434486	,	6
18,6	,	56992	,	-24799	,	-23140	,	7.4067984	,	9
18,6	,	57008	,	-24811	,	-23147	,	11.765424	,	12
18,6	,	57040	,	-24810	,	-23135	,	16.065449	,	16
18,6	,	57056	,	-24816	,	-23131	,	19.535578	,	20
18,6	,	57072	,	-24802	,	-23133	,	21.593596	,	23
18,6	,	57103	,	-24808	,	-23130	,	22.123604	,	24
18,6	,	57120	,	-24808	,	-23126	,	21.31184	,	23
18,7	,	57152	,	-24811	,	-23125	,	19.394554	,	21
18,7	,	57168	,	-24808	,	-23134	,	16.64455	,	19
18,7	,	57184	,	-24796	,	-23120	,	13.473042	,	16
18,7	,	57216	,	-24792	,	-23130	,	10.440571	,	13
18,7	,	57232	,	-24803	,	-23126	,	7.999521	,	9
18,7	,	57247	,	-24791	,	-23140	,	6.258129	,	5
18,7	,	57279	,	-24802	,	-23107	,	5.1113777	,	2
18,7	,	57296	,	-24793	,	-23130	,	4.3939075	,	0
18,7	,	57328	,	-24802	,	-23134	,	3.916289	,	0
18,7	,	57344	,	-24806	,	-23129	,	3.4688406	,	0
18,7	,	57360	,	-24805	,	-23124	,	2.8414347	,	0
18,7	,	57392	,	-24806	,	-23139	,	1.9582386	,	0
18,7	,	57408	,	-24815	,	-23132	,	0.8677943	,	0
18,7	,	57424	,	-24815	,	-23137	,	-0.40918255	,	0
18,7	,	57455	,	-24824	,	-23139	,	-1.8811522	,	0
18,7	,	57471	,	-24815	,	-23131	,	-3.4799042	,	0
18,7	,	57488	,	-24809	,	-23136	,	-4.946597	,	0
18,7	,	57519	,	-24819	,	-23127	,	-5.9379783	,	0
18,7	,	57535	,	-24821	,	-23143	,	-6.3503804	,	0
18,7	,	57567	,	-24833	,	-23137	,	-6.400416	,	0
18,7	,	57583	,	-24823	,	-23137	,	-6.3767223	,	0
18,7	,	57600	,	-24825	,	-23143	,	-6.366754	,	0
18,7	,	57632	,	-24844	,	-23137	,	-6.3578725	,	0
18,7	,	57647	,	-24825	,	-23137	,	-6.438301	,	0
18,7	,	57663	,	-24835	,	-23148	,	-6.5925035	,	0
18,7	,	57696	,	-24848	,	-23145	,	-6.728251	,	0
18,7	,	57712	,	-24841	,	-23160	,	-6.9232197	,	0
18,7	,	57743	,	-24839	,	-23132	,	-7.2007055	,	0
18,7	,	57760	,	-24847	,	-23146	,	-7.403804	,	0
18,7	,	57776	,	-24812	,	-23143	,	-7.286723	,	0
18,7	,	57807	,	-24800	,	-23144	,	-6.3482046	,	0
18,7	,	57823	,	-24788	,	-23135	,	-3.989195	,	0
18,7	,	57839	,	-24789	,	-23137	,	-0.0641737	,	2
18,7	,	57871	,	-24787	,	-23136	,	4.939661	,	5
18,7	,	57887	,	-24778	,	-23128	,	10.209605	,	10
18,7	,	57919	,	-24776	,	-23124	,	15.016259	,	15
18,7	,	57935	,	-24792	,	-23124	,	18.784575	,	19
18,7	,	57951	,	-24784	,	-23144	,	20.998772	,	22
18,7	,	57983	,	-24786	,	-23107	,	21.403223	,	24
18,7	,	58000	,	-24772	,	-23120	,	20.217361	,	24
18,7	,	58016	,	-24780	,	-23116	,	17.994587	,	24
18,7	,	58047	,	-24768	,	-23121	,	15.3132715	,	22
18,7	,	58063	,	-24770	,	-23121	,	12.638588	,	19
18,7	,	58095	,	-24770	,	-23114	,	10.28832	,	14
18,7	,	58111	,	-24766	,	-23121	,	8.390135	,	9
18,7	,	58127	,	-24759	,	-23112	,	6.9896884	,	5
18,8	,	58159	,	-24769	,	-23114	,	6.0999837	,	2
18,8	,	58175	,	-24771	,	-23121	,	5.559284	,	0
18,8	,	58192	,	-24765	,	-23124	,	5.097305	,	0
18,8	,	58224	,	-24772	,	-23125	,	4.552041	,	0
18,8	,	58239	,	-24766	,	-23115	,	3.8835537	,	0
18,8	,	58255	,	-24766	,	-23121	,	3.1399472	,	0
18,8	,	58287	,	-24777	,	-23109	,	2.3849418	,	0
18,8	,	58303	,	-24782	,	-23118	,	1.5315222	,	0
18,8	,	58335	,	-24772	,	-23121	,	0.4560032	,	0
18,8	,	58351	,	-24787	,	-23129	,	-0.7956445	,	0
18,8	,	58367	,	-24783	,	-23122	,	-2.1223917	,	0
18,8	,	58399	,	-24782	,	-23126	,	-3.426777	,	0
18,8	,	58415	,	-24798	,	-23119	,	-4.6043224	,	0
18,8	,	58431	,	-24793	,	-23131	,	-5.678911	,	0
18,8	,	58463	,	-24792	,	-23138	,	-6.6821446	,	0
18,8	,	58479	,	-24791	,	-23133	,	-7.470557	,	0
18,8	,	58511	,	-24805	,	-23134	,	-7.9238157	,	0
18,8	,	58527	,	-24824	,	-23136	,	-8.238839	,	0
18,8	,	58543	,	-24798	,	-23138	,	-8.734083	,	0
18,8	,	58575	,	-24810	,	-23132	,	-9.346185	,	0
18,8	,	58591	,	-24806	,	-23140	,	-9.734454	,	0
18,8	,	58607	,	-24808	,	-23133	,	-9.697128	,	0
18,8	,	58639	,	-24804	,	-23140	,	-9.18953	,	0
18,8	,	58655	,	-24787	,	-23110	,	-8.15097	,	0
18,8	,	58687	,	-24770	,	-23122	,	-6.344672	,	1
18,8	,	58703	,	-24772	,	-23121	,	-3.499939	,	2
18,8	,	58719	,	-24771	,	-23120	,	0.27717113	,	4
18,8	,	58751	,	-24761	,	-23118	,	4.4877453	,	7
18,8	,	58767	,	-24774	,	-23108	,	8.530331	,	11
18,8	,	58783	,	-24755	,	-23109	,	11.871718	,	15
18,8	,	58815	,	-24774	,	-23123	,	14.170391	,	18
18,8	,	58831	,	-24766	,	-23119	,	15.247462	,	20
18,8	,	58847	,	-24760	,	-23109	,	15.099062	,	21
18,8	,	58879	,	-24753	,	-23120	,	14.05405	,	20
18,8	,	58895	,	-24755	,	-23102	,	12.610811	,	19
18,8	,	58927	,	-24753	,	-23116	,	11.1247425	,	17
18,8	,	58943	,	-24752	,	-23111	,	9.750265	,	14
18,8	,	58959	,	-24748	,	-23103	,	8.548817	,	10
18,8	,	58991	,	-24756	,	-23109	,	7.529942	,	6
18,8	,	59007	,	-24746	,	-23107	,	6.6422276	,	3
18,8	,	59023	,	-24757	,	-23122	,	5.8236966	,	1
18,8	,	59055	,	-24747	,	-23110	,	5.0258627	,	0
18,8	,	59071	,	-24752	,	-23098	,	4.243208	,	0
18,8	,	59103	,	-24755	,	-23120	,	3.4948545	,	0
18,8	,	59119	,	-24763	,	-23109	,	2.7025127	,	0
18,9	,	59135	,	-24763	,	-23115	,	1.7101554	,	0
18,9	,	59167	,	-24767	,	-23118	,	0.43726766	,	0
18,9	,	59183	,	-24774	,	-23113	,	-1.0934345	,	0
18,9	,	59199	,	-24773	,	-23122	,	-2.8140879	,	0
18,9	,	59231	,	-24770	,	-23119	,	-4.559798	,	0
18,9	,	59247	,	-24766	,	-23121	,	-6.025192	,	0
18,9	,	59263	,	-24786	,	-23120	,	-6.9910913	,	0
18,9	,	59295	,	-24793	,	-23123	,	-7.6177607	,	0
18,9	,	59311	,	-24780	,	-23125	,	-8.221767	,	0
18,9	,	59343	,	-24783	,	-23147	,	-8.794991	,	0
18,9	,	59359	,	-24803	,	-23116	,	-9.175094	,	0
18,9	,	59375	,	-24791	,	-23129	,	-9.424309	,	0
18,9	,	59407	,	-24785	,	-23128	,	-9.566696	,	0
18,9	,	59423	,	-24766	,	-23116	,	-9.274663	,	0
18,9	,	59439	,	-24755	,	-23113	,	-8.030579	,	0
18,9	,	59471	,	-24757	,	-23117	,	-5.51067	,	1
18,9	,	59486	,	-24748	,	-23115	,	-1.8548746	,	3
18,9	,	59519	,	-24739	,	-23109	,	2.4897678	,	6
18,9	,	59535	,	-24751	,	-23104	,	6.990381	,	10
18,9	,	59551	,	-24741	,	-23111	,	11.027089	,	14
18,9	,	59583	,	-24734	,	-23118	,	14.116106	,	18
18,9	,	59599	,	-24754	,	-23107	,	16.049465	,	21
18,9	,	59615	,	-24728	,	-23111	,	16.746557	,	22
18,9	,	59647	,	-24737	,	-23106	,	16.35602	,	22
18,9	,	59663	,	-24740	,	-23106	,	15.19549	,	21
18,9	,	59679	,	-24741	,	-23104	,	13.454472	,	19
18,9	,	59710	,	-24728	,	-23106	,	11.320871	,	16
18,9	,	59726	,	-24722	,	-23106	,	9.1965065	,	12
18,9	,	59758	,	-24745	,	-23101	,	7.424009	,	8
18,9	,	59775	,	-24733	,	-23102	,	5.9541807	,	4
18,9	,	59791	,	-24731	,	-23113	,	4.622396	,	1
18,9	,	59823	,	-24735	,	-23092	,	3.4572933	,	0
18,9	,	59839	,	-24728	,	-23101	,	2.5349221	,	0
18,9	,	59855	,	-24732	,	-23111	,	1.886806	,	0
18,9	,	59886	,	-24723	,	-23110	,	1.5364151	,	0
18,9	,	59902	,	-24734	,	-23113	,	1.4685055	,	0
18,9	,	59934	,	-24749	,	-23113	,	1.4744159	,	0
18,9	,	59951	,	-24745	,	-23110	,	1.1480033	,	0
18,9	,	59967	,	-24757	,	-23111	,	0.20375937	,	0
18,9	,	59999	,	-24756	,	-23113	,	-1.3784051	,	0
18,9	,	60014	,	-24759	,	-23111	,	-3.427722	,	0
18,9	,	60031	,	-24761	,	-23137	,	-5.6404653	,	0
18,9	,	60062	,	-24760	,	-23098	,	-7.6794662	,	0
18,9	,	60079	,	-24772	,	-23116	,	-9.307655	,	0
18,9	,	60094	,	-24770	,	-23112	,	-10.483068	,	0
18,9	,	60126	,	-24777	,	-23114	,	-11.28018	,	0
18,10	,	60142	,	-24783	,	-23112	,	-11.791245	,	0
18,10	,	60174	,	-24777	,	-23121	,	-12.090996	,	0
18,10	,	60191	,	-24782	,	-23122	,	-12.150812	,	0
18,10	,	60207	,	-24781	,	-23127	,	-11.888557	,	0
18,10	,	60239	,	-24777	,	-23121	,	-11.261769	,	0
18,10	,	60255	,	-24774	,	-23122	,	-10.230469	,	0
18,10	,	60270	,	-24758	,	-23121	,	-8.696716	,	1
18,10	,	60302	,	-24753	,	-23102	,	-6.4916697	,	2
18,10	,	60318	,	-24729	,	-23102	,	-3.4352207	,	4
18,10	,	60350	,	-24724	,	-23109	,	0.5880065	,	7
18,10	,	60367	,	-24708	,	-23107	,	5.519646	,	11
18,10	,	60383	,	-24718	,	-23099	,	10.985966	,	15
18,10	,	60415	,	-24721	,	-23100	,	16.240477	,	20
18,10	,	60430	,	-24709	,	-23094	,	20.434196	,	25
18,10	,	60446	,	-24725	,	-23097	,	23.018839	,	29
18,10	,	60478	,	-24712	,	-23105	,	23.796078	,	30
18,10	,	60494	,	-24726	,	-23105	,	22.835499	,	29
18,10	,	60526	,	-24719	,	-23090	,	20.418844	,	27
18,10	,	60543	,	-24716	,	-23093	,	16.989872	,	24
18,10	,	60558	,	-24722	,	-23101	,	13.106516	,	20
18,10	,	60590	,	-24726	,	-23095	,	9.226305	,	16
18,10	,	60606	,	-24714	,	-23099	,	5.6488795	,	11
18,10	,	60622	,	-24716	,	-23102	,	2.676643	,	6
18,10	,	60654	,	-24726	,	-23102	,	0.50710106	,	2
18,10	,	60670	,	-24726	,	-23100	,	-0.9624567	,	0
18,10	,	60686	,	-24713	,	-23105	,	-1.9168241	,	0
18,10	,	60718	,	-24725	,	-23099	,	-2.3855114	,	0
18,10	,	60734	,	-24718	,	-23116	,	-2.4040477	,	0
18,10	,	60766	,	-24723	,	-23088	,	-2.112084	,	0
18,10	,	60782	,	-24735	,	-23102	,	-1.7191658	,	0
18,10	,	60798	,	-24736	,	-23103	,	-1.532546	,	0
18,10	,	60830	,	-24745	,	-23109	,	-1.8332281	,	0
18,10	,	60846	,	-24745	,	-23102	,	-2.7252681	,	0
18,10	,	60862	,	-24739	,	-23108	,	-4.0736346	,	0
18,10	,	60894	,	-24746	,	-23115	,	-5.5390253	,	0
18,10	,	60910	,	-24747	,	-23115	,	-6.809271	,	0
18,10	,	60942	,	-24748	,	-23123	,	-7.7342796	,	0
18,10	,	60958	,	-24751	,	-23116	,	-8.266324	,	0
18,10	,	60974	,	-24761	,	-23124	,	-8.471948	,	0
18,10	,	61006	,	-24771	,	-23111	,	-8.58602	,	0
18,10	,	61022	,	-24765	,	-23117	,	-8.868596	,	0
18,10	,	61038	,	-24783	,	-23113	,	-9.420153	,	0
18,10	,	61070	,	-24775	,	-23112	,	-10.218016	,	0
18,10	,	61086	,	-24772	,	-23121	,	-11.095264	,	0
18,10	,	61102	,	-24787	,	-23121	,	-11.779289	,	0
18,11	,	61134	,	-24778	,	-23123	,	-12.140753	,	0
18,11	,	61150	,	-24764	,	-23122	,	-12.072276	,	0
18,11	,	61182	,	-24747	,	-23115	,	-11.203251	,	0
18,11	,	61198	,	-24756	,	-23121	,	-9.151403	,	0
18,11	,	61214	,	-24736	,	-23092	,	-5.91813	,	2
18,11	,	61246	,	-24735	,	-23096	,	-1.7919412	,	5
18,11	,	61262	,	-24725	,	-23095	,	2.869254	,	9
18,11	,	61278	,	-24729	,	-23098	,	7.615013	,	13
18,11	,	61310	,	-24723	,	-23097	,	11.914716	,	17
18,11	,	61326	,	-24718	,	-23095	,	15.332164	,	21
18,11	,	61358	,	-24721	,	-23091	,	17.643908	,	24
18,11	,	61374	,	-24707	,	-23098	,	18.823803	,	26
18,11	,	61390	,	-24705	,	-23089	,	19.061531	,	27
18,11	,	61422	,	-24705	,	-23093	,	18.658665	,	25
18,11	,	61438	,	-24707	,	-23108	,	17.792074	,	22
18,11	,	61454	,	-24714	,	-23075	,	16.460478	,	18
18,11	,	61486	,	-24707	,	-23094	,	14.621373	,	14
18,11	,	61502	,	-24695	,	-23094	,	12.430696	,	10
18,11	,	61518	,	-24720	,	-23092	,	10.18787	,	6
18,11	,	61550	,	-24695	,	-23095	,	8.04314	,	3
18,11	,	61566	,	-24717	,	-23090	,	6.058691	,	1
18,11	,	61598	,	-24705	,	-23092	,	4.281068	,	0
18,11	,	61614	,	-24713	,	-23084	,	2.6915486	,	0
18,11	,	61630	,	-24717	,	-23088	,	1.2592711	,	0
18,11	,	61662	,	-24710	,	-23090	,	-0.04152608	,	0
18,11	,	61678	,	-24717	,	-23099	,	-1.1785693	,	0
18,11	,	61694	,	-24716	,	-23087	,	-2.0944457	,	0
18,11	,	61726	,	-24711	,	-23097	,	-2.7621198	,	0
18,11	,	61742	,	-24724	,	-23097	,	-3.1793852	,	0
18,11	,	61774	,	-24713	,	-23098	,	-3.4120762	,	0
18,11	,	61790	,	-24725	,	-23095	,	-3.534741	,	0
18,11	,	61806	,	-24734	,	-23097	,	-3.6600564	,	0
18,11	,	61838	,	-24746	,	-23095	,	-4.06415	,	0
18,11	,	61854	,	-24745	,	-23105	,	-5.030139	,	0
18,11	,	61870	,	-24740	,	-23099	,	-6.5334477	,	0
18,11	,	61902	,	-24737	,	-23113	,	-8.165616	,	0
18,11	,	61918	,	-24749	,	-23096	,	-9.454817	,	0
18,11	,	61934	,	-24744	,	-23107	,	-10.201807	,	0
18,11	,	61966	,	-24750	,	-23117	,	-10.425504	,	0
18,11	,	61981	,	-24767	,	-23122	,	-10.292963	,	0
18,11	,	62014	,	-24769	,	-23118	,	-10.1704445	,	0
18,11	,	62030	,	-24775	,	-23117	,	-10.399319	,	0
18,11	,	62046	,	-24770	,	-23118	,	-11.019932	,	0
18,11	,	62078	,	-24772	,	-23110	,	-11.785204	,	0
18,11	,	62094	,	-24754	,	-23118	,	-12.27578	,	0
18,11	,	62110	,	-24760	,	-23119	,	-12.040133	,	0
18,12	,	62142	,	-24743	,	-23120	,	-10.796333	,	0
18,12	,	62158	,	-24729	,	-23082	,	-8.421084	,	1
18,12	,	62190	,	-24717	,	-23105	,	-4.8220954	,	3
18,12	,	62206	,	-24693	,	-23090	,	0.016473293	,	6
18,12	,	62222	,	-24711	,	-23091	,	5.8466005	,	10
18,12	,	62253	,	-24700	,	-23102	,	11.956815	,	15
18,12	,	62269	,	-24706	,	-23092	,	17.383375	,	21
18,12	,	62286	,	-24694	,	-23092	,	21.405344	,	26
18,12	,	62318	,	-24694	,	-23090	,	23.756777	,	30
18,12	,	62334	,	-24703	,	-23093	,	24.466806	,	32
18,12	,	62366	,	-24701	,	-23089	,	23.613277	,	31
18,12	,	62382	,	-24698	,	-23104	,	21.37513	,	29
18,12	,	62397	,	-24706	,	-23079	,	18.13192	,	26
18,12	,	62429	,	-24688	,	-23090	,	14.385448	,	22
18,12	,	62445	,	-24700	,	-23086	,	10.689161	,	17
18,12	,	62461	,	-24685	,	-23082	,	7.5053577	,	11
18,12	,	62494	,	-24685	,	-23085	,	5.1320667	,	6
18,12	,	62510	,	-24681	,	-23082	,	3.7287865	,	2
18,12	,	62526	,	-24686	,	-23081	,	3.2346401	,	0
18,12	,	62557	,	-24695	,	-23092	,	3.31357	,	0
18,12	,	62573	,	-24698	,	-23091	,	3.458832	,	0
18,12	,	62605	,	-24691	,	-23105	,	3.2774453	,	0
18,12	,	62621	,	-24700	,	-23081	,	2.679132	,	0
18,12	,	62637	,	-24694	,	-23091	,	1.7530805	,	0
18,12	,	62670	,	-24715	,	-23096	,	0.56820655	,	0
18,12	,	62686	,	-24707	,	-23090	,	-0.89915144	,	0
18,12	,	62702	,	-24713	,	-23106	,	-2.6200109	,	0
18,12	,	62733	,	-24708	,	-23086	,	-4.3843255	,	0
18,12	,	62749	,	-24734	,	-23096	,	-6.014456	,	0
18,12	,	62781	,	-24710	,	-23098	,	-7.5029483	,	0
18,12	,	62797	,	-24729	,	-23099	,	-8.782272	,	0
18,12	,	62813	,	-24725	,	-23096	,	-9.719881	,	0
18,12	,	62846	,	-24727	,	-23114	,	-10.28335	,	0
18,12	,	62862	,	-24732	,	-23083	,	-10.480404	,	0
18,12	,	62878	,	-24742	,	-23102	,	-10.396999	,	0
18,12	,	62909	,	-24733	,	-23102	,	-10.198099	,	0
18,12	,	62925	,	-24745	,	-23109	,	-9.956426	,	0
18,12	,	62941	,	-24746	,	-23114	,	-9.699226	,	0
18,12	,	62973	,	-24754	,	-23107	,	-9.523031	,	0
18,12	,	62989	,	-24751	,	-23113	,	-9.508146	,	0
18,12	,	63021	,	-24757	,	-23113	,	-9.625575	,	0
18,12	,	63037	,	-24736	,	-23110	,	-9.689834	,	0
18,12	,	63053	,	-24730	,	-23106	,	-9.296698	,	0
18,12	,	63085	,	-24726	,	-23112	,	-8.006433	,	0
18,12	,	63101	,	-24723	,	-23097	,	-5.689601	,	1
18,12	,	63117	,	-24709	,	-23101	,	-2.5248165	,	3
18,13	,	63149	,	-24698	,	-23099	,	1.2743125	,	6
18,13	,	63165	,	-24699	,	-23100	,	5.501278	,	9
18,13	,	63197	,	-24707	,	-23096	,	9.730951	,	13
18,13	,	63213	,	-24695	,	-23092	,	13.346128	,	17
18,13	,	63229	,	-24702	,	-23087	,	15.887428	,	20
18,13	,	63261	,	-24694	,	-23087	,	17.188768	,	22
18,13	,	63277	,	-24694	,	-23082	,	17.31326	,	23
18,13	,	63293	,	-24710	,	-23092	,	16.41579	,	22
18,13	,	63325	,	-24702	,	-23077	,	14.582761	,	20
18,13	,	63341	,	-24690	,	-23087	,	12.035973	,	17
18,13	,	63357	,	-24699	,	-23089	,	9.280094	,	14
18,13	,	63389	,	-24678	,	-23086	,	6.837864	,	10
18,13	,	63405	,	-24694	,	-23083	,	5.0615664	,	6
18,13	,	63437	,	-24686	,	-23086	,	4.0253735	,	3
18,13	,	63453	,	-24682	,	-23086	,	3.5754294	,	1
18,13	,	63469	,	-24681	,	-23091	,	3.574239	,	0
18,13	,	63501	,	-24693	,	-23091	,	3.8620932	,	0
18,13	,	63517	,	-24679	,	-23084	,	4.1825757	,	0
18,13	,	63533	,	-24689	,	-23108	,	4.363749	,	0
18,13	,	63565	,	-24695	,	-23079	,	4.299814	,	0
18,13	,	63581	,	-24700	,	-23102	,	3.8071232	,	0
18,13	,	63613	,	-24703	,	-23094	,	2.737957	,	0
18,13	,	63629	,	-24710	,	-23086	,	1.0958488	,	0
18,13	,	63645	,	-24705	,	-23087	,	-0.9755024	,	0
18,13	,	63677	,	-24702	,	-23096	,	-3.157241	,	0
18,13	,	63693	,	-24711	,	-23093	,	-5.0594497	,	0
18,13	,	63709	,	-24720	,	-23096	,	-6.5204163	,	0
18,13	,	63741	,	-24724	,	-23099	,	-7.674107	,	0
18,13	,	63757	,	-24713	,	-23101	,	-8.642288	,	0
18,13	,	63773	,	-24727	,	-23112	,	-9.355322	,	0
18,13	,	63805	,	-24726	,	-23093	,	-9.756379	,	0
18,13	,	63821	,	-24728	,	-23102	,	-9.9022255	,	0
18,13	,	63853	,	-24733	,	-23108	,	-9.850889	,	0
18,13	,	63869	,	-24747	,	-23113	,	-9.724428	,	0
18,13	,	63885	,	-24735	,	-23110	,	-9.702547	,	0
18,13	,	63917	,	-24716	,	-23104	,	-9.664987	,	0
18,13	,	63933	,	-24704	,	-23085	,	-9.04978	,	0
18,13	,	63949	,	-24695	,	-23095	,	-7.26293	,	0
18,13	,	63981	,	-24689	,	-23082	,	-4.099798	,	1
18,13	,	63997	,	-24689	,	-23093	,	0.16724253	,	4
18,13	,	64029	,	-24679	,	-23082	,	4.954468	,	8
18,13	,	64045	,	-24682	,	-23087	,	9.631467	,	12
18,13	,	64061	,	-24691	,	-23094	,	13.596755	,	16
18,13	,	64093	,	-24701	,	-23092	,	16.221926	,	19
18,13	,	64109	,	-24691	,	-23095	,	17.054228	,	21
18,13	,	64125	,	-24700	,	-23093	,	16.100887	,	21
18,14	,	64157	,	-24698	,	-23095	,	13.742184	,	21
18,14	,	64173	,	-24680	,	-23085	,	10.581082	,	20
18,14	,	64189	,	-24678	,	-23088	,	7.426467	,	17
18,14	,	64221	,	-24686	,	-23089	,	4.9567432	,	13
18,14	,	64237	,	-24692	,	-23096	,	3.312643	,	9
18,14	,	64269	,	-24692	,	-23068	,	2.2163682	,	5
18,14	,	64285	,	-24683	,	-23092	,	1.409167	,	2
18,14	,	64301	,	-24677	,	-23091	,	0.8961482	,	0
18,14	,	64332	,	-24687	,	-23088	,	0.7840872	,	0
18,14	,	64349	,	-24699	,	-23085	,	0.9309927	,	0
18,14	,	64365	,	-24704	,	-23094	,	0.9036222	,	0
18,14	,	64397	,	-24686	,	-23096	,	0.40313274	,	0
18,14	,	64413	,	-24704	,	-23094	,	-0.46414924	,	0
18,14	,	64445	,	-24686	,	-23091	,	-1.4247782	,	0
18,14	,	64461	,	-24684	,	-23086	,	-2.1727746	,	0
18,14	,	64477	,	-24702	,	-23098	,	-2.4759402	,	0
18,14	,	64509	,	-24705	,	-23096	,	-2.4888752	,	0
18,14	,	64525	,	-24716	,	-23097	,	-2.6506867	,	0
18,14	,	64540	,	-24707	,	-23096	,	-3.2581325	,	0
18,14	,	64573	,	-24708	,	-23108	,	-4.241897	,	0
18,14	,	64589	,	-24717	,	-23093	,	-5.321825	,	0
18,14	,	64621	,	-24726	,	-23102	,	-6.3652534	,	0
18,14	,	64636	,	-24730	,	-23111	,	-7.458083	,	0
18,14	,	64653	,	-24729	,	-23105	,	-8.666411	,	0
18,14	,	64684	,	-24729	,	-23107	,	-9.868762	,	0
18,14	,	64701	,	-24720	,	-23109	,	-10.782136	,	0
18,14	,	64717	,	-24708	,	-23086	,	-11.02387	,	0
18,14	,	64749	,	-24711	,	-23090	,	-10.245508	,	0
18,14	,	64764	,	-24686	,	-23086	,	-8.281666	,	0
18,14	,	64781	,	-24688	,	-23083	,	-5.114343	,	1
18,14	,	64812	,	-24672	,	-23070	,	-0.8863373	,	4
18,14	,	64829	,	-24679	,	-23081	,	4.00298	,	8
18,14	,	64860	,	-24672	,	-23076	,	8.937421	,	12
18,14	,	64877	,	-24688	,	-23078	,	13.198885	,	16
18,14	,	64893	,	-24693	,	-23079	,	16.071321	,	20
18,14	,	64924	,	-24680	,	-23078	,	17.103752	,	22
18,14	,	64940	,	-24676	,	-23103	,	16.44822	,	23
18,14	,	64956	,	-24666	,	-23063	,	14.762506	,	23
18,14	,	64988	,	-24672	,	-23082	,	12.752249	,	22
18,14	,	65004	,	-24668	,	-23079	,	10.84477	,	19
18,14	,	65037	,	-24670	,	-23078	,	9.179849	,	15
18,14	,	65053	,	-24656	,	-23079	,	7.8234997	,	11
18,14	,	65069	,	-24663	,	-23082	,	6.8832765	,	7
18,14	,	65100	,	-24669	,	-23077	,	6.336589	,	3
18,14	,	65116	,	-24665	,	-23081	,	5.9469166	,	1
18,15	,	65132	,	-24661	,	-23075	,	5.5182095	,	0
18,15	,	65164	,	-24674	,	-23081	,	4.986083	,	0
18,15	,	65180	,	-24663	,	-23081	,	4.283542	,	0
18,15	,	65196	,	-24669	,	-23070	,	3.4079194	,	0
18,15	,	65229	,	-24693	,	-23088	,	2.3449283	,	0
18,15	,	65245	,	-24683	,	-23092	,	0.89133596	,	0
18,15	,	65276	,	-24689	,	-23092	,	-1.0514083	,	0
18,15	,	65292	,	-24697	,	-23085	,	-3.3016865	,	0
18,15	,	65308	,	-24684	,	-23089	,	-5.584718	,	0
18,15	,	65340	,	-24690	,	-23088	,	-7.5459657	,	0
18,15	,	65356	,	-24699	,	-23089	,	-8.893658	,	0
18,15	,	65372	,	-24706	,	-23094	,	-9.669207	,	0
18,15	,	65404	,	-24702	,	-23099	,	-10.103737	,	0
18,15	,	65420	,	-24695	,	-23085	,	-10.264624	,	0
18,15	,	65453	,	-24709	,	-23093	,	-10.065115	,	0
18,15	,	65469	,	-24683	,	-23093	,	-9.44051	,	0
18,15	,	65484	,	-24673	,	-23086	,	-8.183945	,	0
18,15	,	65517	,	-24675	,	-23084	,	-5.984375	,	1
18,15	,	65532	,	-24663	,	-23074	,	-2.8292522	,	3
18,15	,	65548	,	-24663	,	-23074	,	0.97131395	,	6
18,15	,	65580	,	-24658	,	-23072	,	4.9872694	,	9
18,15	,	65596	,	-24639	,	-23065	,	8.8456	,	13
18,15	,	65612	,	-24646	,	-23069	,	12.3575115	,	16
18,15	,	65644	,	-24633	,	-23083	,	15.382961	,	19
18,15	,	65660	,	-24632	,	-23050	,	17.767363	,	22
18,15	,	65692	,	-24637	,	-23061	,	19.381332	,	24
18,15	,	65708	,	-24631	,	-23063	,	20.075382	,	24
18,15	,	65724	,	-24644	,	-23065	,	19.732304	,	22
18,15	,	65756	,	-24634	,	-23062	,	18.344631	,	19
18,15	,	65772	,	-24628	,	-23065	,	16.131035	,	16
18,15	,	65788	,	-24635	,	-23065	,	13.521369	,	12
18,15	,	65820	,	-24627	,	-23058	,	10.892871	,	9
18,15	,	65836	,	-24632	,	-23060	,	8.477679	,	6
18,15	,	65868	,	-24638	,	-23066	,	6.3658442	,	3
18,15	,	65884	,	-24607	,	-23062	,	4.631222	,	1
18,15	,	65900	,	-24624	,	-23048	,	3.5340393	,	0
18,15	,	65932	,	-24634	,	-23064	,	3.1510878	,	0
18,15	,	65948	,	-24639	,	-23066	,	3.0428772	,	0
18,15	,	65964	,	-24625	,	-23068	,	2.7338972	,	0
18,15	,	65996	,	-24628	,	-23063	,	2.1775866	,	0
18,15	,	66012	,	-24644	,	-23062	,	1.4982498	,	0
18,15	,	66028	,	-24651	,	-23063	,	0.5737828	,	0
18,15	,	66060	,	-24642	,	-23068	,	-0.78789353	,	0
18,15	,	66076	,	-24655	,	-23058	,	-2.509001	,	0
18,15	,	66108	,	-24656	,	-23068	,	-4.384744	,	0
18,15	,	66124	,	-24645	,	-23062	,	-6.204874	,	0
18,16	,	66140	,	-24659	,	-23078	,	-7.6934867	,	0
18,16	,	66172	,	-24674	,	-23069	,	-8.772448	,	0
18,16	,	66188	,	-24668	,	-23072	,	-9.670687	,	0
18,16	,	66204	,	-24666	,	-23077	,	-10.508444	,	0
18,16	,	66236	,	-24668	,	-23058	,	-11.116491	,	0
18,16	,	66252	,	-24672	,	-23079	,	-11.309567	,	0
18,16	,	66284	,	-24673	,	-23074	,	-11.068155	,	0
18,16	,	66300	,	-24676	,	-23078	,	-10.489683	,	0
18,16	,	66316	,	-24648	,	-23069	,	-9.572897	,	0
18,16	,	66348	,	-24641	,	-23082	,	-8.007812	,	0
18,16	,	66364	,	-24620	,	-23048	,	-5.343656	,	1
18,16	,	66380	,	-24621	,	-23050	,	-1.3773274	,	3
18,16	,	66412	,	-24596	,	-23062	,	3.7159147	,	6
18,16	,	66428	,	-24617	,	-23061	,	9.437683	,	11
18,16	,	66444	,	-24603	,	-23054	,	14.990295	,	16
18,16	,	66476	,	-24585	,	-23042	,	19.64908	,	21
18,16	,	66492	,	-24602	,	-23052	,	23.109108	,	25
18,16	,	66523	,	-24574	,	-23043	,	25.28001	,	28
18,16	,	66540	,	-24593	,	-23045	,	26.178177	,	30
18,16	,	66556	,	-24589	,	-23054	,	25.862701	,	29
18,16	,	66588	,	-24593	,	-23057	,	24.330439	,	27
18,16	,	66604	,	-24587	,	-23040	,	21.708912	,	24
18,16	,	66620	,	-24588	,	-23035	,	18.353745	,	19
18,16	,	66652	,	-24571	,	-23034	,	14.782071	,	14
18,16	,	66668	,	-24578	,	-23032	,	11.563104	,	9
18,16	,	66700	,	-24579	,	-23033	,	9.036266	,	5
18,16	,	66716	,	-24586	,	-23038	,	7.1462126	,	2
18,16	,	66732	,	-24587	,	-23031	,	5.6186967	,	0
18,16	,	66764	,	-24578	,	-23033	,	4.251504	,	0
18,16	,	66780	,	-24581	,	-23041	,	3.0584016	,	0
18,16	,	66796	,	-24595	,	-23039	,	2.0641034	,	0
18,16	,	66828	,	-24579	,	-23029	,	1.1496416	,	0
18,16	,	66843	,	-24590	,	-23038	,	0.26956677	,	0
18,16	,	66875	,	-24585	,	-23037	,	-0.50845873	,	0
18,16	,	66892	,	-24590	,	-23036	,	-1.1553729	,	0
18,16	,	66907	,	-24602	,	-23037	,	-1.7384093	,	0
18,16	,	66939	,	-24606	,	-23038	,	-2.4593089	,	0
18,16	,	66956	,	-24600	,	-23044	,	-3.4745097	,	0
18,16	,	66972	,	-24610	,	-23045	,	-4.699561	,	0
18,16	,	67004	,	-24601	,	-23048	,	-5.919547	,	0
18,16	,	67020	,	-24615	,	-23044	,	-6.950377	,	0
18,16	,	67035	,	-24604	,	-23055	,	-7.695755	,	0
18,16	,	67068	,	-24620	,	-23037	,	-8.1386	,	0
18,16	,	67083	,	-24630	,	-23046	,	-8.414102	,	0
18,16	,	67115	,	-24627	,	-23052	,	-8.790354	,	0
18,17	,	67131	,	-24634	,	-23058	,	-9.399253	,	0
18,17	,	67148	,	-24641	,	-23055	,	-10.199605	,	0
18,17	,	67179	,	-24630	,	-23052	,	-11.073005	,	0
18,17	,	67196	,	-24614	,	-23051	,	-11.659851	,	0
18,17	,	67211	,	-24612	,	-23039	,	-11.387479	,	0
18,17	,	67243	,	-24592	,	-23041	,	-9.813391	,	0
18,17	,	67259	,	-24579	,	-23045	,	-6.738051	,	1
18,17	,	67292	,	-24566	,	-23045	,	-2.155105	,	4
18,17	,	67308	,	-24574	,	-23024	,	3.5926003	,	8
18,17	,	67324	,	-24571	,	-23030	,	9.701807	,	13
18,17	,	67355	,	-24563	,	-23019	,	15.227556	,	19
18,17	,	67371	,	-24540	,	-23026	,	19.631983	,	24
18,17	,	67387	,	-24555	,	-23025	,	22.8638	,	28
18,17	,	67419	,	-24547	,	-23018	,	24.911488	,	31
18,17	,	67435	,	-24551	,	-23015	,	25.648117	,	33
18,17	,	67452	,	-24538	,	-23021	,	25.093311	,	32
18,17	,	67483	,	-24550	,	-23022	,	23.481056	,	29
18,17	,	67500	,	-24559	,	-23025	,	21.005344	,	25
18,17	,	67531	,	-24545	,	-23009	,	17.773994	,	20
18,17	,	67547	,	-24543	,	-23009	,	14.114953	,	14
18,17	,	67564	,	-24533	,	-23021	,	10.612413	,	9
18,17	,	67595	,	-24529	,	-23015	,	7.8264475	,	5
18,17	,	67612	,	-24537	,	-23019	,	6.0385776	,	2
18,17	,	67628	,	-24549	,	-23018	,	5.0636234	,	0
18,17	,	67659	,	-24544	,	-23012	,	4.395827	,	0
18,17	,	67675	,	-24556	,	-23021	,	3.6007676	,	0
18,17	,	67707	,	-24553	,	-23020	,	2.4612522	,	0
18,17	,	67723	,	-24562	,	-23015	,	0.9285414	,	0
18,17	,	67740	,	-24562	,	-23029	,	-0.92469287	,	0
18,17	,	67771	,	-24558	,	-23003	,	-2.9119368	,	0
18,17	,	67787	,	-24563	,	-23023	,	-4.7416825	,	0
18,17	,	67803	,	-24571	,	-23026	,	-6.202967	,	0
18,17	,	67835	,	-24574	,	-23030	,	-7.3124647	,	0
18,17	,	67851	,	-24574	,	-23024	,	-8.175512	,	0
18,17	,	67867	,	-24577	,	-23029	,	-8.824657	,	0
18,17	,	67899	,	-24584	,	-23032	,	-9.265319	,	0
18,17	,	67915	,	-24574	,	-23028	,	-9.515556	,	0
18,17	,	67947	,	-24578	,	-23039	,	-9.508635	,	0
18,17	,	67963	,	-24589	,	-23039	,	-9.188904	,	0
18,17	,	67979	,	-24588	,	-23048	,	-8.69832	,	0
18,17	,	68011	,	-24588	,	-23022	,	-8.224293	,	0
18,17	,	68027	,	-24616	,	-23045	,	-7.932813	,	0
18,17	,	68043	,	-24599	,	-23037	,	-8.069398	,	0
18,17	,	68075	,	-24614	,	-23038	,	-8.714695	,	0
18,17	,	68091	,	-24582	,	-23039	,	-9.54688	,	0
18,17	,	68123	,	-24582	,	-23032	,	-9.915442	,	0
18,18	,	68139	,	-24567	,	-23031	,	-9.151589	,	0
18,18	,	68155	,	-24544	,	-23018	,	-6.8446097	,	0
18,18	,	68187	,	-24564	,	-23016	,	-2.9737067	,	2
18,18	,	68203	,	-24557	,	-23017	,	1.8756456	,	5
18,18	,	68219	,	-24549	,	-23014	,	6.773778	,	9
18,18	,	68251	,	-24537	,	-23025	,	11.099107	,	13
18,18	,	68267	,	-24531	,	-23021	,	14.675899	,	17
18,18	,	68283	,	-24522	,	-23014	,	17.535429	,	20
18,18	,	68315	,	-24521	,	-23006	,	19.732029	,	22
18,18	,	68331	,	-24524	,	-23015	,	21.221935	,	24
18,18	,	68363	,	-24531	,	-23007	,	21.807278	,	25
18,18	,	68379	,	-24532	,	-23014	,	21.245155	,	23
18,18	,	68395	,	-24532	,	-23015	,	19.468552	,	20
18,18	,	68427	,	-24523	,	-23011	,	16.727646	,	16
18,18	,	68443	,	-24530	,	-23023	,	13.498217	,	12
18,18	,	68459	,	-24533	,	-22997	,	10.194719	,	8
18,18	,	68491	,	-24509	,	-23013	,	7.1464267	,	5
18,18	,	68507	,	-24517	,	-23010	,	4.7767854	,	3
18,18	,	68539	,	-24517	,	-23008	,	3.3613472	,	1
18,18	,	68555	,	-24528	,	-23011	,	2.7302926	,	0
18,18	,	68571	,	-24521	,	-23015	,	2.4672296	,	0
18,18	,	68603	,	-24534	,	-23010	,	2.2107463	,	0
18,18	,	68619	,	-24528	,	-23009	,	1.7333537	,	0
18,18	,	68635	,	-24536	,	-23011	,	0.94836783	,	0
18,18	,	68667	,	-24536	,	-23016	,	-0.114147544	,	0
18,18	,	68683	,	-24539	,	-23034	,	-1.3685273	,	0
18,18	,	68714	,	-24539	,	-23015	,	-2.6878135	,	0
18,18	,	68731	,	-24548	,	-23019	,	-3.9556227	,	0
18,18	,	68747	,	-24542	,	-23027	,	-5.1068516	,	0
18,18	,	68779	,	-24545	,	-23022	,	-6.0501738	,	0
18,18	,	68795	,	-24570	,	-23035	,	-6.7883396	,	0
18,18	,	68811	,	-24563	,	-23033	,	-7.578556	,	0
18,18	,	68843	,	-24573	,	-23034	,	-8.649965	,	0
18,18	,	68859	,	-24565	,	-23031	,	-9.932989	,	0
18,18	,	68875	,	-24556	,	-23039	,	-11.083258	,	0
18,18	,	68906	,	-24574	,	-23043	,	-11.701313	,	0
18,18	,	68923	,	-24572	,	-23033	,	-11.705208	,	0
18,18	,	68955	,	-24596	,	-23043	,	-11.405789	,	0
18,18	,	68971	,	-24592	,	-23046	,	-11.257963	,	0
18,18	,	68987	,	-24585	,	-23041	,	-11.48106	,	0
18,18	,	69018	,	-24577	,	-23046	,	-11.807377	,	0
18,18	,	69035	,	-24562	,	-23035	,	-11.664949	,	0
18,18	,	69051	,	-24552	,	-23029	,	-10.484407	,	0
18,18	,	69083	,	-24538	,	-23030	,	-7.9016404	,	1
18,18	,	69099	,	-24528	,	-23026	,	-3.8676624	,	3
18,19	,	69131	,	-24532	,	-23022	,	1.2968655	,	7
18,19	,	69147	,	-24535	,	-23034	,	6.8654003	,	12
18,19	,	69162	,	-24534	,	-23015	,	11.908197	,	17
18,19	,	69195	,	-24531	,	-23027	,	15.692368	,	22
18,19	,	69211	,	-24535	,	-23030	,	17.871405	,	25
18,19	,	69227	,	-24552	,	-23031	,	18.31728	,	27
18,19	,	69259	,	-24550	,	-23029	,	16.970108	,	27
18,19	,	69275	,	-24546	,	-23030	,	14.033146	,	26
18,19	,	69291	,	-24549	,	-23037	,	10.099163	,	24
18,19	,	69322	,	-24534	,	-23041	,	5.947209	,	20
18,19	,	69338	,	-24523	,	-23032	,	2.3970656	,	15
18,19	,	69371	,	-24538	,	-23040	,	0.08239794	,	10
18,19	,	69387	,	-24530	,	-23047	,	-0.9007244	,	5
18,19	,	69402	,	-24529	,	-23019	,	-0.86219776	,	2
18,19	,	69434	,	-24532	,	-23035	,	-0.16211177	,	0
18,19	,	69450	,	-24535	,	-23042	,	0.8327872	,	0
18,19	,	69466	,	-24528	,	-23043	,	1.7885202	,	0
18,19	,	69499	,	-24538	,	-23038	,	2.5046246	,	0
18,19	,	69515	,	-24543	,	-23044	,	2.8171926	,	0
18,19	,	69547	,	-24542	,	-23038	,	2.5629058	,	0
18,19	,	69563	,	-24543	,	-23044	,	1.7433932	,	0
18,19	,	69579	,	-24552	,	-23046	,	0.51111245	,	0
18,19	,	69611	,	-24555	,	-23044	,	-1.017433	,	0
18,19	,	69627	,	-24538	,	-23043	,	-2.6803129	,	0
18,19	,	69643	,	-24557	,	-23048	,	-4.1626983	,	0
18,19	,	69674	,	-24558	,	-23050	,	-5.288449	,	0
18,19	,	69690	,	-24573	,	-23057	,	-6.206066	,	0
18,19	,	69706	,	-24568	,	-23059	,	-7.159629	,	0
18,19	,	69738	,	-24580	,	-23068	,	-8.263826	,	0
18,19	,	69754	,	-24597	,	-23063	,	-9.585063	,	0
18,19	,	69786	,	-24571	,	-23068	,	-11.1351185	,	0
18,19	,	69802	,	-24582	,	-23069	,	-12.5864725	,	0
18,19	,	69819	,	-24586	,	-23073	,	-13.481884	,	0
18,19	,	69851	,	-24582	,	-23071	,	-13.662483	,	0
18,19	,	69866	,	-24576	,	-23045	,	-13.128317	,	0
18,19	,	69883	,	-24553	,	-23045	,	-11.751404	,	0
18,19	,	69914	,	-24542	,	-23042	,	-9.237098	,	1
18,19	,	69930	,	-24538	,	-23041	,	-5.385618	,	3
18,19	,	69962	,	-24526	,	-23040	,	-0.38022232	,	6
18,19	,	69978	,	-24543	,	-23036	,	5.1895285	,	11
18,19	,	69994	,	-24555	,	-23040	,	10.352295	,	16
18,19	,	70026	,	-24536	,	-23044	,	14.111752	,	21
18,19	,	70042	,	-24546	,	-23044	,	16.052837	,	24
18,19	,	70058	,	-24546	,	-23043	,	16.291885	,	25
18,19	,	70090	,	-24533	,	-23051	,	15.158302	,	25
18,19	,	70106	,	-24545	,	-23030	,	13.14827	,	24
18,20	,	70138	,	-24538	,	-23044	,	10.733469	,	22
18,20	,	70154	,	-24535	,	-23044	,	8.25709	,	19
18,20	,	70170	,	-24541	,	-23044	,	6.0081477	,	14
18,20	,	70202	,	-24536	,	-23040	,	4.1477633	,	9
18,20	,	70218	,	-24546	,	-23042	,	2.6707666	,	4
18,20	,	70234	,	-24546	,	-23046	,	1.4519756	,	1
18,20	,	70266	,	-24528	,	-23049	,	0.42855358	,	0
18,20	,	70282	,	-24538	,	-23045	,	-0.24014139	,	0
18,20	,	70314	,	-24556	,	-23056	,	-0.5184935	,	0
18,20	,	70330	,	-24554	,	-23035	,	-0.7680861	,	0
18,20	,	70346	,	-24568	,	-23054	,	-1.4169466	,	0
18,20	,	70378	,	-24559	,	-23049	,	-2.6309159	,	0
18,20	,	70394	,	-24574	,	-23056	,	-4.301793	,	0
18,20	,	70410	,	-24580	,	-23053	,	-6.25728	,	0
18,20	,	70442	,	-24578	,	-23057	,	-8.376094	,	0
18,20	,	70458	,	-24586	,	-23061	,	-10.468292	,	0
18,20	,	70474	,	-24569	,	-23063	,	-12.226517	,	0
18,20	,	70506	,	-24591	,	-23070	,	-13.343399	,	0
18,20	,	70522	,	-24587	,	-23076	,	-13.752729	,	0
18,20	,	70554	,	-24568	,	-23060	,	-13.524546	,	0
18,20	,	70570	,	-24600	,	-23071	,	-12.6598	,	0
18,20	,	70586	,	-24614	,	-23074	,	-11.497103	,	0
18,20	,	70618	,	-24606	,	-23080	,	-10.715901	,	1
18,20	,	70634	,	-24612	,	-23082	,	-10.6394205	,	1
18,20	,	70650	,	-24615	,	-23076	,	-11.109242	,	1
18,20	,	70682	,	-24598	,	-23075	,	-11.757282	,	1
18,20	,	70698	,	-24594	,	-23071	,	-12.039825	,	1
18,20	,	70730	,	-24573	,	-23063	,	-11.34678	,	1
18,20	,	70746	,	-24562	,	-23059	,	-9.1981735	,	1
18,20	,	70762	,	-24559	,	-23071	,	-5.4320774	,	3
18,20	,	70794	,	-24560	,	-23032	,	-0.40694284	,	6
18,20	,	70810	,	-24554	,	-23050	,	5.101033	,	10
18,20	,	70826	,	-24533	,	-23039	,	10.379948	,	15
18,20	,	70858	,	-24550	,	-23049	,	15.021692	,	20
18,20	,	70874	,	-24540	,	-23043	,	18.664284	,	24
18,20	,	70890	,	-24545	,	-23042	,	20.936932	,	27
18,20	,	70922	,	-24549	,	-23049	,	21.6491	,	29
18,20	,	70938	,	-24543	,	-23041	,	20.82789	,	29
18,20	,	70970	,	-24545	,	-23036	,	18.740622	,	27
18,20	,	70986	,	-24545	,	-23037	,	15.815035	,	24
18,20	,	71002	,	-24542	,	-23050	,	12.490083	,	19
18,20	,	71034	,	-24529	,	-23029	,	9.236641	,	14
18,20	,	71050	,	-24537	,	-23038	,	6.528564	,	9
18,20	,	71066	,	-24540	,	-23039	,	4.587591	,	5
18,20	,	71098	,	-24540	,	-23034	,	3.296187	,	2
18,20	,	71114	,	-24546	,	-23043	,	2.4020317	,	0
18,21	,	71146	,	-24545	,	-23039	,	1.6635578	,	0
18,21	,	71162	,	-24558	,	-23042	,	0.8671472	,	0
18,21	,	71178	,	-24556	,	-23049	,	-0.17043352	,	0
18,21	,	71210	,	-24556	,	-23042	,	-1.4996057	,	0
18,21	,	71226	,	-24544	,	-23049	,	-2.9074283	,	0
18,21	,	71241	,	-24555	,	-23040	,	-4.0360107	,	0
18,21	,	71274	,	-24573	,	-23056	,	-4.7780857	,	0
18,21	,	71290	,	-24584	,	-23062	,	-5.48687	,	0
18,21	,	71306	,	-24580	,	-23056	,	-6.607139	,	0
18,21	,	71338	,	-24581	,	-23053	,	-8.192762	,	0
18,21	,	71354	,	-24575	,	-23058	,	-9.886356	,	0
18,21	,	71386	,	-24584	,	-23060	,	-11.236444	,	0
18,21	,	71402	,	-24570	,	-23068	,	-11.936696	,	0
18,21	,	71418	,	-24591	,	-23066	,	-11.891648	,	0
18,21	,	71450	,	-24587	,	-23067	,	-11.278412	,	0
18,21	,	71466	,	-24589	,	-23079	,	-10.414717	,	0
18,21	,	71482	,	-24589	,	-23052	,	-9.49461	,	0
18,21	,	71514	,	-24608	,	-23075	,	-8.663895	,	0
18,21	,	71530	,	-24589	,	-23065	,	-8.100809	,	0
18,21	,	71561	,	-24572	,	-23064	,	-7.6611924	,	0
18,21	,	71578	,	-24572	,	-23051	,	-6.7960896	,	0
18,21	,	71594	,	-24567	,	-23057	,	-5.090171	,	0
18,21	,	71625	,	-24552	,	-23047	,	-2.5071778	,	1
18,21	,	71641	,	-24554	,	-23045	,	0.8084667	,	3
18,21	,	71658	,	-24561	,	-23046	,	4.4926105	,	6
18,21	,	71690	,	-24540	,	-23051	,	8.00252	,	9
18,21	,	71706	,	-24529	,	-23057	,	11.067652	,	12
18,21	,	71737	,	-24537	,	-23028	,	13.733787	,	15
18,21	,	71754	,	-24536	,	-23042	,	15.902946	,	17
18,21	,	71769	,	-24536	,	-23040	,	17.274277	,	19
18,21	,	71801	,	-24536	,	-23048	,	17.640646	,	20
18,21	,	71817	,	-24532	,	-23039	,	17.015024	,	19
18,21	,	71833	,	-24532	,	-23040	,	15.596317	,	17
18,21	,	71865	,	-24537	,	-23035	,	13.640899	,	14
18,21	,	71881	,	-24512	,	-23036	,	11.455048	,	11
18,21	,	71898	,	-24530	,	-23040	,	9.448884	,	8
18,21	,	71929	,	-24523	,	-23045	,	7.86792	,	5
18,21	,	71945	,	-24543	,	-23026	,	6.5818844	,	3
18,21	,	71977	,	-24540	,	-23038	,	5.2436953	,	1
18,21	,	71993	,	-24546	,	-23034	,	3.570064	,	0
18,21	,	72010	,	-24547	,	-23043	,	1.5183709	,	0
18,21	,	72041	,	-24551	,	-23039	,	-0.77075195	,	0
18,21	,	72057	,	-24545	,	-23038	,	-3.0585742	,	0
18,21	,	72073	,	-24551	,	-23040	,	-5.046596	,	0
18,21	,	72105	,	-24562	,	-23042	,	-6.5643096	,	0
18,21	,	72122	,	-24571	,	-23049	,	-7.7399416	,	0
18,22	,	72153	,	-24558	,	-23045	,	-8.783509	,	0
18,22	,	72169	,	-24559	,	-23052	,	-9.620505	,	0
18,22	,	72185	,	-24565	,	-23038	,	-10.002557	,	0
18,22	,	72217	,	-24571	,	-23054	,	-9.894615	,	0
18,22	,	72233	,	-24569	,	-23059	,	-9.486864	,	0
18,22	,	72249	,	-24569	,	-23052	,	-8.933286	,	0
18,22	,	72281	,	-24586	,	-23063	,	-8.344406	,	0
18,22	,	72297	,	-24594	,	-23069	,	-7.981722	,	0
18,22	,	72313	,	-24579	,	-23059	,	-8.078215	,	0
18,22	,	72346	,	-24582	,	-23069	,	-8.47128	,	0
18,22	,	72362	,	-24594	,	-23068	,	-8.82139	,	0
18,22	,	72393	,	-24591	,	-23071	,	-9.024981	,	0
18,22	,	72409	,	-24593	,	-23085	,	-9.10952	,	0
18,22	,	72425	,	-24571	,	-23048	,	-8.934111	,	0
18,22	,	72457	,	-24565	,	-23056	,	-8.114179	,	0
18,22	,	72473	,	-24546	,	-23057	,	-6.2113295	,	0
18,22	,	72489	,	-24535	,	-23043	,	-2.9675126	,	1
18,22	,	72521	,	-24535	,	-23041	,	1.5445094	,	4
18,22	,	72537	,	-24528	,	-23050	,	6.8386736	,	8
18,22	,	72569	,	-24536	,	-23045	,	12.139837	,	13
18,22	,	72585	,	-24523	,	-23041	,	16.667795	,	18
18,22	,	72601	,	-24519	,	-23033	,	19.948145	,	22
18,22	,	72633	,	-24506	,	-23033	,	21.95399	,	25
18,22	,	72649	,	-24524	,	-23034	,	22.85428	,	27
18,22	,	72665	,	-24526	,	-23046	,	22.635643	,	27
18,22	,	72697	,	-24520	,	-23038	,	21.182854	,	26
18,22	,	72713	,	-24515	,	-23034	,	18.675953	,	23
18,22	,	72729	,	-24525	,	-23037	,	15.560267	,	19
18,22	,	72761	,	-24533	,	-23037	,	12.153245	,	14
18,22	,	72777	,	-24511	,	-23031	,	8.653011	,	9
18,22	,	72809	,	-24501	,	-23035	,	5.5259557	,	5
18,22	,	72825	,	-24518	,	-23028	,	3.3318686	,	2
18,22	,	72841	,	-24514	,	-23038	,	2.1442542	,	0
18,22	,	72873	,	-24519	,	-23046	,	1.6086972	,	0
18,22	,	72889	,	-24524	,	-23024	,	1.3372753	,	0
18,22	,	72905	,	-24528	,	-23040	,	1.0062414	,	0
18,22	,	72937	,	-24540	,	-23051	,	0.3391065	,	0
18,22	,	72953	,	-24541	,	-23043	,	-0.86019295	,	0
18,22	,	72985	,	-24547	,	-23055	,	-2.6184037	,	0
18,22	,	73001	,	-24545	,	-23049	,	-4.7520237	,	0
18,22	,	73017	,	-24544	,	-23056	,	-6.9259915	,	0
18,22	,	73049	,	-24548	,	-23047	,	-8.769717	,	0
18,22	,	73065	,	-24544	,	-23051	,	-10.012903	,	0
18,22	,	73081	,	-24559	,	-23054	,	-10.580743	,	0
18,22	,	73113	,	-24552	,	-23076	,	-10.609526	,	0
18,23	,	73129	,	-24555	,	-23044	,	-10.278019	,	0
18,23	,	73145	,	-24580	,	-23069	,	-9.7868595	,	0
18,23	,	73177	,	-24560	,	-23058	,	-9.44294	,	0
18,23	,	73193	,	-24570	,	-23067	,	-9.357815	,	0
18,23	,	73225	,	-24580	,	-23068	,	-9.417427	,	0
18,23	,	73241	,	-24585	,	-23074	,	-9.643915	,	0
18,23	,	73257	,	-24592	,	-23072	,	-10.161867	,	0
18,23	,	73289	,	-24584	,	-23066	,	-10.9429245	,	0
18,23	,	73305	,	-24559	,	-23057	,	-11.600316	,	0
18,23	,	73321	,	-24568	,	-23055	,	-11.474119	,	0
18,23	,	73353	,	-24543	,	-23044	,	-10.080691	,	0
18,23	,	73369	,	-24547	,	-23049	,	-7.298048	,	1
18,23	,	73401	,	-24525	,	-23036	,	-3.2630405	,	3
18,23	,	73417	,	-24523	,	-23037	,	1.7152362	,	7
18,23	,	73433	,	-24522	,	-23036	,	7.1655817	,	11
18,23	,	73465	,	-24535	,	-23046	,	12.355851	,	16
18,23	,	73481	,	-24527	,	-23037	,	16.435316	,	21
18,23	,	73497	,	-24524	,	-23052	,	18.874128	,	25
18,23	,	73529	,	-24533	,	-23041	,	19.60713	,	27
18,23	,	73545	,	-24530	,	-23045	,	18.788338	,	27
18,23	,	73561	,	-24520	,	-23056	,	16.734232	,	26
18,23	,	73593	,	-24524	,	-23033	,	13.983678	,	24
18,23	,	73609	,	-24519	,	-23037	,	11.090747	,	20
18,23	,	73641	,	-24507	,	-23032	,	8.503597	,	16
18,23	,	73657	,	-24507	,	-23039	,	6.6179113	,	11
18,23	,	73673	,	-24522	,	-23040	,	5.5685406	,	6
18,23	,	73705	,	-24515	,	-23048	,	5.0653086	,	2
18,23	,	73721	,	-24522	,	-23050	,	4.6924343	,	0
18,23	,	73737	,	-24527	,	-23044	,	4.159386	,	0
18,23	,	73768	,	-24517	,	-23043	,	3.3274274	,	0
18,23	,	73784	,	-24535	,	-23037	,	2.2114651	,	0
18,23	,	73817	,	-24530	,	-23062	,	0.84556425	,	0
18,23	,	73833	,	-24532	,	-23048	,	-0.718979	,	0
18,23	,	73849	,	-24531	,	-23057	,	-2.2966943	,	0
18,23	,	73881	,	-24530	,	-23058	,	-3.652199	,	0
18,23	,	73897	,	-24536	,	-23055	,	-4.6305966	,	0
18,23	,	73913	,	-24557	,	-23063	,	-5.3146243	,	0
18,23	,	73945	,	-24543	,	-23058	,	-6.0028815	,	0
18,23	,	73960	,	-24554	,	-23069	,	-6.8468857	,	0
18,23	,	73976	,	-24550	,	-23068	,	-7.7386546	,	0
18,23	,	74009	,	-24563	,	-23070	,	-8.551425	,	0
18,23	,	74025	,	-24553	,	-23070	,	-9.223284	,	0
18,23	,	74056	,	-24565	,	-23074	,	-9.6870985	,	0
18,23	,	74072	,	-24566	,	-23075	,	-9.926798	,	0
18,23	,	74088	,	-24566	,	-23065	,	-10.0084305	,	0
18,23	,	74120	,	-24550	,	-23067	,	-9.8785095	,	0
18,24	,	74136	,	-24539	,	-23052	,	-9.216244	,	0
18,24	,	74152	,	-24532	,	-23058	,	-7.6110034	,	0
18,24	,	74185	,	-24522	,	-23061	,	-4.8576145	,	1
18,24	,	74201	,	-24523	,	-23050	,	-1.0905175	,	3
18,24	,	74233	,	-24503	,	-23056	,	3.3164074	,	6
18,24	,	74248	,	-24510	,	-23043	,	7.943012	,	10
18,24	,	74264	,	-24503	,	-23034	,	12.334044	,	14
18,24	,	74296	,	-24518	,	-23046	,	15.9373	,	18
18,24	,	74312	,	-24523	,	-23057	,	18.164814	,	21
18,24	,	74328	,	-24526	,	-23058	,	18.575706	,	23
18,24	,	74360	,	-24512	,	-23053	,	17.184557	,	23
18,24	,	74377	,	-24513	,	-23055	,	14.547083	,	22
18,24	,	74408	,	-24511	,	-23048	,	11.410439	,	20
18,24	,	74425	,	-24510	,	-23052	,	8.357959	,	17
18,24	,	74440	,	-24500	,	-23052	,	5.7876472	,	13
18,24	,	74472	,	-24522	,	-23043	,	3.895875	,	9
18,24	,	74488	,	-24521	,	-23049	,	2.5146163	,	5
18,24	,	74504	,	-24503	,	-23064	,	1.3740783	,	2
18,24	,	74536	,	-24512	,	-23038	,	0.51347995	,	0
18,24	,	74553	,	-24515	,	-23051	,	0.043144822	,	0
18,24	,	74569	,	-24528	,	-23051	,	-0.21861511	,	0
18,24	,	74600	,	-24528	,	-23051	,	-0.6326227	,	0
18,24	,	74616	,	-24525	,	-23049	,	-1.4103839	,	0
18,24	,	74648	,	-24533	,	-23057	,	-2.4897437	,	0
18,24	,	74664	,	-24529	,	-23057	,	-3.6981306	,	0
18,24	,	74680	,	-24534	,	-23064	,	-4.8616605	,	0
18,24	,	74712	,	-24542	,	-23057	,	-5.8679714	,	0
18,24	,	74729	,	-24548	,	-23075	,	-6.768736	,	0
18,24	,	74745	,	-24542	,	-23065	,	-7.6537433	,	0
18,24	,	74777	,	-24550	,	-23067	,	-8.467951	,	0
18,24	,	74792	,	-24553	,	-23068	,	-9.115	,	0
18,24	,	74824	,	-24566	,	-23064	,	-9.636301	,	0
18,24	,	74840	,	-24570	,	-23067	,	-10.206795	,	0
18,24	,	74856	,	-24563	,	-23072	,	-10.925064	,	0
18,24	,	74888	,	-24553	,	-23070	,	-11.568851	,	0
18,24	,	74904	,	-24564	,	-23069	,	-11.737331	,	0
18,24	,	74920	,	-24543	,	-23068	,	-11.1683445	,	0
18,24	,	74952	,	-24535	,	-23067	,	-9.673936	,	0
18,24	,	74968	,	-24523	,	-23069	,	-7.056136	,	1
18,24	,	74984	,	-24509	,	-23038	,	-3.2610464	,	3
18,24	,	75016	,	-24514	,	-23047	,	1.4990125	,	6
18,24	,	75032	,	-24512	,	-23044	,	6.669841	,	10
18,24	,	75064	,	-24492	,	-23041	,	11.579095	,	15
18,24	,	75080	,	-24498	,	-23051	,	15.8049	,	19
18,24	,	75096	,	-24497	,	-23045	,	19.08347	,	23
18,25	,	75128	,	-24507	,	-23048	,	21.09438	,	26
18,25	,	75144	,	-24502	,	-23049	,	21.572296	,	28
18,25	,	75160	,	-24508	,	-23045	,	20.493444	,	27
18,25	,	75192	,	-24498	,	-23044	,	18.130016	,	25
18,25	,	75208	,	-24502	,	-23065	,	14.978371	,	22
18,25	,	75240	,	-24505	,	-23031	,	11.546751	,	18
18,25	,	75256	,	-24498	,	-23047	,	8.206922	,	13
18,25	,	75272	,	-24503	,	-23040	,	5.24295	,	9
18,25	,	75304	,	-24494	,	-23042	,	2.8758688	,	5
18,25	,	75320	,	-24512	,	-23044	,	1.1720765	,	2
18,25	,	75336	,	-24505	,	-23047	,	-0.025413513	,	0
18,25	,	75368	,	-24506	,	-23046	,	-0.92614853	,	0
18,25	,	75384	,	-24492	,	-23042	,	-1.5333071	,	0
18,25	,	75400	,	-24515	,	-23044	,	-1.7643077	,	0
18,25	,	75432	,	-24532	,	-23061	,	-1.8734837	,	0
18,25	,	75448	,	-24524	,	-23060	,	-2.397143	,	0
18,25	,	75480	,	-24527	,	-23054	,	-3.5594494	,	0
18,25	,	75496	,	-24531	,	-23062	,	-5.1397276	,	0
18,25	,	75512	,	-24535	,	-23057	,	-6.8415656	,	0
18,25	,	75544	,	-24518	,	-23055	,	-8.372179	,	0
18,25	,	75560	,	-24539	,	-23055	,	-9.4058485	,	0
18,25	,	75576	,	-24524	,	-23068	,	-9.78731	,	0
18,25	,	75608	,	-24548	,	-23066	,	-9.623284	,	0
18,25	,	75624	,	-24551	,	-23068	,	-9.245279	,	0
18,25	,	75656	,	-24544	,	-23073	,	-9.017761	,	0
18,25	,	75672	,	-24553	,	-23082	,	-9.027239	,	0
18,25	,	75688	,	-24563	,	-23063	,	-9.214058	,	0
18,25	,	75720	,	-24574	,	-23078	,	-9.668326	,	0
18,25	,	75736	,	-24582	,	-23079	,	-10.571984	,	0
18,25	,	75752	,	-24569	,	-23082	,	-11.913515	,	0
18,25	,	75784	,	-24561	,	-23071	,	-13.262043	,	0
18,25	,	75800	,	-24541	,	-23067	,	-13.871685	,	0
18,25	,	75816	,	-24527	,	-23063	,	-12.987425	,	0
18,25	,	75848	,	-24513	,	-23056	,	-10.12429	,	0
18,25	,	75864	,	-24518	,	-23051	,	-5.334562	,	2
18,25	,	75896	,	-24506	,	-23055	,	0.7331953	,	6
18,25	,	75912	,	-24509	,	-23064	,	7.147382	,	12
18,25	,	75928	,	-24494	,	-23028	,	13.079562	,	18
18,25	,	75960	,	-24500	,	-23045	,	17.964815	,	23
18,25	,	75976	,	-24485	,	-23042	,	21.494007	,	27
18,25	,	75992	,	-24479	,	-23039	,	23.64722	,	30
18,25	,	76024	,	-24484	,	-23044	,	24.613758	,	32
18,25	,	76040	,	-24490	,	-23035	,	24.48788	,	32
18,25	,	76071	,	-24494	,	-23040	,	23.195866	,	30
18,25	,	76087	,	-24488	,	-23035	,	20.757225	,	26
18,25	,	76104	,	-24486	,	-23030	,	17.470585	,	20
18,26	,	76136	,	-24470	,	-23038	,	13.896899	,	14
18,26	,	76152	,	-24477	,	-23042	,	10.676785	,	9
18,26	,	76168	,	-24469	,	-23029	,	8.231094	,	5
18,26	,	76200	,	-24467	,	-23037	,	6.6725965	,	2
18,26	,	76216	,	-24486	,	-23031	,	5.847453	,	0
18,26	,	76248	,	-24474	,	-23033	,	5.349927	,	0
18,26	,	76263	,	-24487	,	-23033	,	4.7777805	,	0
18,26	,	76279	,	-24489	,	-23032	,	3.8961344	,	0
18,26	,	76312	,	-24496	,	-23036	,	2.5606678	,	0
18,26	,	76328	,	-24496	,	-23042	,	0.7502229	,	0
18,26	,	76344	,	-24502	,	-23035	,	-1.4003204	,	0
18,26	,	76376	,	-24502	,	-23050	,	-3.6704917	,	0
18,26	,	76392	,	-24506	,	-23036	,	-5.825321	,	0
18,26	,	76408	,	-24519	,	-23050	,	-7.7274733	,	0
18,26	,	76439	,	-24516	,	-23039	,	-9.395084	,	0
18,26	,	76455	,	-24521	,	-23046	,	-10.844244	,	0
18,26	,	76488	,	-24528	,	-23052	,	-12.014784	,	0
18,26	,	76504	,	-24525	,	-23049	,	-12.864654	,	0
18,26	,	76520	,	-24534	,	-23051	,	-13.376049	,	0
18,26	,	76552	,	-24543	,	-23057	,	-13.606293	,	0
18,26	,	76568	,	-24528	,	-23055	,	-13.651844	,	0
18,26	,	76583	,	-24541	,	-23070	,	-13.461325	,	0
18,26	,	76615	,	-24546	,	-23078	,	-12.979655	,	0
18,26	,	76631	,	-24552	,	-23057	,	-12.365609	,	0
18,26	,	76663	,	-24546	,	-23067	,	-11.802729	,	0
18,26	,	76680	,	-24535	,	-23062	,	-11.217236	,	0
18,26	,	76696	,	-24513	,	-23049	,	-10.1999035	,	0
18,26	,	76728	,	-24509	,	-23047	,	-8.198668	,	1
18,26	,	76743	,	-24496	,	-23043	,	-4.8979425	,	3
18,26	,	76760	,	-24484	,	-23031	,	-0.3705349	,	6
18,26	,	76792	,	-24471	,	-23038	,	5.0802693	,	10
18,26	,	76807	,	-24476	,	-23040	,	10.981514	,	15
18,26	,	76824	,	-24464	,	-23035	,	16.677896	,	20
18,26	,	76855	,	-24475	,	-23042	,	21.477493	,	25
18,26	,	76871	,	-24469	,	-23032	,	24.796791	,	29
18,26	,	76903	,	-24471	,	-23029	,	26.288649	,	32
18,26	,	76919	,	-24478	,	-23030	,	25.90971	,	32
18,26	,	76935	,	-24471	,	-23024	,	23.85329	,	30
18,26	,	76968	,	-24465	,	-23031	,	20.571247	,	27
18,26	,	76983	,	-24457	,	-23026	,	16.76846	,	23
18,26	,	76999	,	-24473	,	-23022	,	13.093966	,	18
18,26	,	77031	,	-24456	,	-23023	,	9.873624	,	13
18,26	,	77048	,	-24454	,	-23017	,	7.291169	,	8
18,26	,	77079	,	-24456	,	-23035	,	5.524629	,	4
18,26	,	77095	,	-24445	,	-23016	,	4.6069765	,	1
18,26	,	77111	,	-24463	,	-23026	,	4.382353	,	0
18,27	,	77143	,	-24472	,	-23028	,	4.4274225	,	0
18,27	,	77159	,	-24473	,	-23026	,	4.146125	,	0
18,27	,	77175	,	-24476	,	-23028	,	3.1803262	,	0
18,27	,	77207	,	-24466	,	-23030	,	1.6035597	,	0
18,27	,	77223	,	-24480	,	-23034	,	-0.2561252	,	0
18,27	,	77239	,	-24477	,	-23033	,	-2.1184525	,	0
18,27	,	77271	,	-24481	,	-23033	,	-3.8330245	,	0
18,27	,	77287	,	-24479	,	-23035	,	-5.2673817	,	0
18,27	,	77319	,	-24483	,	-23053	,	-6.3076816	,	0
18,27	,	77335	,	-24485	,	-23029	,	-6.9273906	,	0
18,27	,	77351	,	-24499	,	-23044	,	-7.2476244	,	0
18,27	,	77383	,	-24498	,	-23037	,	-7.524097	,	0
18,27	,	77399	,	-24505	,	-23038	,	-7.974139	,	0
18,27	,	77415	,	-24499	,	-23037	,	-8.613049	,	0
18,27	,	77447	,	-24526	,	-23054	,	-9.371278	,	0
18,27	,	77463	,	-24514	,	-23050	,	-10.294043	,	0
18,27	,	77495	,	-24521	,	-23052	,	-11.375702	,	0
18,27	,	77511	,	-24529	,	-23062	,	-12.444778	,	0
18,27	,	77527	,	-24522	,	-23057	,	-13.3386135	,	0
18,27	,	77559	,	-24525	,	-23059	,	-13.888245	,	0
18,27	,	77575	,	-24533	,	-23060	,	-13.946386	,	0
18,27	,	77591	,	-24517	,	-23053	,	-13.481724	,	0
18,27	,	77623	,	-24503	,	-23051	,	-12.352759	,	0
18,27	,	77639	,	-24493	,	-23050	,	-10.222136	,	1
18,27	,	77655	,	-24468	,	-23045	,	-6.7869315	,	3
18,27	,	77687	,	-24469	,	-23038	,	-1.9659123	,	6
18,27	,	77703	,	-24474	,	-23034	,	3.8600416	,	10
18,27	,	77735	,	-24450	,	-23036	,	9.906387	,	15
18,27	,	77751	,	-24470	,	-23036	,	15.420347	,	21
18,27	,	77767	,	-24461	,	-23049	,	19.754503	,	26
18,27	,	77799	,	-24454	,	-23025	,	22.439865	,	30
18,27	,	77815	,	-24473	,	-23037	,	23.36428	,	32
18,27	,	77831	,	-24456	,	-23037	,	22.615318	,	31
18,27	,	77863	,	-24456	,	-23035	,	20.506792	,	29
18,27	,	77879	,	-24455	,	-23032	,	17.610077	,	26
18,27	,	77911	,	-24459	,	-23033	,	14.435755	,	22
18,27	,	77927	,	-24449	,	-23027	,	11.322283	,	17
18,27	,	77943	,	-24443	,	-23029	,	8.602306	,	11
18,27	,	77975	,	-24451	,	-23034	,	6.5635557	,	6
18,27	,	77991	,	-24443	,	-23026	,	5.24839	,	2
18,27	,	78007	,	-24455	,	-23040	,	4.4767337	,	0
18,27	,	78039	,	-24461	,	-23017	,	3.9282389	,	0
18,27	,	78055	,	-24461	,	-23036	,	3.2241166	,	0
18,27	,	78086	,	-24467	,	-23041	,	2.13638	,	0
18,27	,	78103	,	-24451	,	-23039	,	0.7311244	,	0
18,27	,	78119	,	-24464	,	-23048	,	-0.69318104	,	0
18,28	,	78151	,	-24461	,	-23040	,	-1.8867068	,	0
18,28	,	78167	,	-24478	,	-23034	,	-2.8620903	,	0
18,28	,	78183	,	-24486	,	-23036	,	-3.8663938	,	0
18,28	,	78215	,	-24492	,	-23033	,	-5.2053413	,	0
18,28	,	78231	,	-24484	,	-23046	,	-6.9491215	,	0
18,28	,	78247	,	-24488	,	-23039	,	-8.810389	,	0
18,28	,	78279	,	-24477	,	-23047	,	-10.328679	,	0
18,28	,	78295	,	-24489	,	-23048	,	-11.130367	,	0
18,28	,	78327	,	-24507	,	-23055	,	-11.22075	,	0
18,28	,	78343	,	-24513	,	-23051	,	-11.060252	,	0
18,28	,	78358	,	-24515	,	-23055	,	-11.1544	,	0
18,28	,	78391	,	-24503	,	-23050	,	-11.595064	,	0
18,28	,	78407	,	-24512	,	-23056	,	-12.069881	,	0
18,28	,	78423	,	-24520	,	-23057	,	-12.293976	,	0
18,28	,	78454	,	-24519	,	-23064	,	-12.265204	,	0
18,28	,	78471	,	-24523	,	-23061	,	-12.07722	,	0
18,28	,	78503	,	-24512	,	-23051	,	-11.714115	,	0
18,28	,	78519	,	-24485	,	-23048	,	-10.893396	,	0
18,28	,	78535	,	-24474	,	-23050	,	-9.033922	,	0
18,28	,	78566	,	-24468	,	-23041	,	-5.6729856	,	1
18,28	,	78583	,	-24478	,	-23040	,	-0.97288036	,	4
18,28	,	78599	,	-24465	,	-23034	,	4.313468	,	8
18,28	,	78630	,	-24480	,	-23043	,	9.287842	,	13
18,28	,	78647	,	-24464	,	-23043	,	13.239396	,	17
18,28	,	78663	,	-24476	,	-23043	,	15.783396	,	20
18,28	,	78695	,	-24474	,	-23038	,	16.810238	,	22
18,28	,	78711	,	-24472	,	-23057	,	16.384369	,	23
18,28	,	78742	,	-24464	,	-23027	,	14.813629	,	23
18,28	,	78758	,	-24464	,	-23046	,	12.617773	,	22
18,28	,	78774	,	-24481	,	-23049	,	10.211893	,	19
18,28	,	78806	,	-24465	,	-23044	,	7.744146	,	15
18,28	,	78823	,	-24469	,	-23041	,	5.3599358	,	10
18,28	,	78839	,	-24466	,	-23046	,	3.3120027	,	6
18,28	,	78871	,	-24487	,	-23044	,	1.6691289	,	3
18,28	,	78887	,	-24469	,	-23050	,	0.26286316	,	1
18,28	,	78918	,	-24480	,	-23048	,	-0.99427867	,	0
18,28	,	78934	,	-24479	,	-23042	,	-2.051466	,	0
18,28	,	78950	,	-24497	,	-23056	,	-2.9758537	,	0
18,28	,	78982	,	-24496	,	-23039	,	-3.9975939	,	0
18,28	,	78998	,	-24495	,	-23053	,	-5.2583976	,	0
18,28	,	79014	,	-24490	,	-23059	,	-6.6004386	,	0
18,28	,	79046	,	-24493	,	-23060	,	-7.6790705	,	0
18,28	,	79062	,	-24485	,	-23061	,	-8.205473	,	0
18,28	,	79078	,	-24489	,	-23056	,	-8.038	,	0
18,28	,	79110	,	-24500	,	-23061	,	-7.2660213	,	0
18,28	,	79126	,	-24500	,	-23066	,	-6.2408533	,	0
18,29	,	79158	,	-24517	,	-23066	,	-5.4076996	,	1
18,29	,	79174	,	-24509	,	-23071	,	-5.1102066	,	1
18,29	,	79190	,	-24529	,	-23059	,	-5.491284	,	1
18,29	,	79223	,	-24521	,	-23070	,	-6.5191956	,	1
18,29	,	79239	,	-24520	,	-23074	,	-7.9608607	,	1
18,29	,	79255	,	-24526	,	-23076	,	-9.4021845	,	1
18,29	,	79286	,	-24521	,	-23073	,	-10.493639	,	1
18,29	,	79302	,	-24514	,	-23067	,	-10.997412	,	1
18,29	,	79334	,	-24494	,	-23069	,	-10.611992	,	1
18,29	,	79350	,	-24511	,	-23060	,	-9.08556	,	0
18,29	,	79366	,	-24484	,	-23060	,	-6.476903	,	1
18,29	,	79398	,	-24475	,	-23055	,	-2.9735975	,	3
18,29	,	79414	,	-24481	,	-23066	,	1.2506728	,	6
18,29	,	79430	,	-24476	,	-23035	,	5.767832	,	10
18,29	,	79462	,	-24479	,	-23046	,	9.93828	,	14
18,29	,	79478	,	-24477	,	-23051	,	13.208694	,	18
18,29	,	79494	,	-24486	,	-23053	,	15.200263	,	21
18,29	,	79526	,	-24481	,	-23056	,	15.728256	,	22
18,29	,	79542	,	-24479	,	-23058	,	14.892636	,	22
18,29	,	79574	,	-24487	,	-23056	,	13.031394	,	21
18,29	,	79590	,	-24485	,	-23056	,	10.506253	,	19
18,29	,	79606	,	-24482	,	-23049	,	7.6594005	,	16
18,29	,	79638	,	-24481	,	-23060	,	4.8694363	,	12
18,29	,	79654	,	-24484	,	-23063	,	2.457127	,	8
18,29	,	79670	,	-24487	,	-23043	,	0.56290054	,	4
18,29	,	79702	,	-24493	,	-23054	,	-0.8690584	,	1
18,29	,	79718	,	-24496	,	-23057	,	-2.013074	,	0
18,29	,	79750	,	-24489	,	-23064	,	-3.0018969	,	0
18,29	,	79766	,	-24493	,	-23057	,	-3.8072846	,	0
18,29	,	79782	,	-24492	,	-23055	,	-4.327862	,	0
18,29	,	79814	,	-24491	,	-23062	,	-4.513995	,	0
18,29	,	79830	,	-24505	,	-23063	,	-4.434335	,	0
18,29	,	79846	,	-24509	,	-23060	,	-4.343454	,	0
18,29	,	79878	,	-24490	,	-23071	,	-4.4415426	,	0
18,29	,	79894	,	-24510	,	-23043	,	-4.6284714	,	0
18,29	,	79910	,	-24513	,	-23063	,	-4.8246374	,	0
18,29	,	79942	,	-24518	,	-23062	,	-5.1831436	,	0
18,29	,	79958	,	-24527	,	-23068	,	-5.8624105	,	0
18,29	,	79990	,	-24524	,	-23068	,	-6.8956137	,	0
18,29	,	80006	,	-24529	,	-23070	,	-8.166747	,	0
18,29	,	80022	,	-24535	,	-23068	,	-9.478109	,	0
18,29	,	80054	,	-24530	,	-23078	,	-10.655634	,	0
18,29	,	80070	,	-24537	,	-23075	,	-11.530678	,	0
18,29	,	80086	,	-24530	,	-23066	,	-11.949921	,	0
18,29	,	80118	,	-24527	,	-23086	,	-11.783468	,	0
18,30	,	80134	,	-24507	,	-23057	,	-10.843557	,	0
18,30	,	80166	,	-24471	,	-23055	,	-8.725052	,	0
18,30	,	80182	,	-24478	,	-23053	,	-4.931214	,	2
18,30	,	80198	,	-24471	,	-23049	,	0.51101875	,	5
18,30	,	80230	,	-24471	,	-23054	,	6.847585	,	10
18,30	,	80246	,	-24480	,	-23047	,	13.01231	,	16
18,30	,	80262	,	-24477	,	-23047	,	17.97851	,	22
18,30	,	80294	,	-24473	,	-23052	,	21.077944	,	26
18,30	,	80310	,	-24474	,	-23049	,	22.18229	,	29
18,30	,	80342	,	-24473	,	-23050	,	21.53	,	30
18,30	,	80358	,	-24478	,	-23064	,	19.50248	,	30
18,30	,	80374	,	-24484	,	-23045	,	16.4837	,	28
18,30	,	80406	,	-24467	,	-23059	,	12.875915	,	25
18,30	,	80422	,	-24465	,	-23048	,	9.253535	,	20
18,30	,	80438	,	-24464	,	-23047	,	6.23054	,	14
18,30	,	80470	,	-24476	,	-23049	,	4.0776186	,	8
18,30	,	80486	,	-24482	,	-23045	,	2.593759	,	4
18,30	,	80502	,	-24467	,	-23056	,	1.4352498	,	1
18,30	,	80534	,	-24478	,	-23050	,	0.48762596	,	0
18,30	,	80550	,	-24484	,	-23047	,	-0.27160835	,	0
18,30	,	80581	,	-24485	,	-23066	,	-0.9956846	,	0
18,30	,	80598	,	-24479	,	-23046	,	-1.7877816	,	0
18,30	,	80614	,	-24484	,	-23053	,	-2.5635607	,	0
18,30	,	80646	,	-24494	,	-23059	,	-3.2476873	,	0
18,30	,	80662	,	-24496	,	-23062	,	-3.9381013	,	0
18,30	,	80678	,	-24487	,	-23068	,	-4.714999	,	0
18,30	,	80709	,	-24501	,	-23072	,	-5.481031	,	0
18,30	,	80725	,	-24519	,	-23059	,	-6.249656	,	0
18,30	,	80758	,	-24513	,	-23058	,	-7.2731028	,	0
18,30	,	80774	,	-24506	,	-23061	,	-8.599077	,	0
18,30	,	80790	,	-24513	,	-23061	,	-9.883519	,	0
18,30	,	80822	,	-24510	,	-23084	,	-10.75648	,	0
18,30	,	80837	,	-24521	,	-23058	,	-11.0856905	,	0
18,30	,	80853	,	-24542	,	-23079	,	-11.076582	,	0
18,30	,	80885	,	-24546	,	-23075	,	-11.234268	,	0
18,30	,	80901	,	-24540	,	-23078	,	-11.916445	,	0
18,30	,	80918	,	-24540	,	-23080	,	-12.965686	,	0
18,30	,	80950	,	-24540	,	-23079	,	-13.920752	,	0
18,30	,	80966	,	-24518	,	-23070	,	-14.282923	,	0
18,30	,	80997	,	-24521	,	-23073	,	-13.5687275	,	0
18,30	,	81013	,	-24501	,	-23063	,	-11.476656	,	0
18,30	,	81029	,	-24471	,	-23059	,	-7.8629007	,	2
18,30	,	81062	,	-24481	,	-23067	,	-2.6723485	,	5
18,30	,	81078	,	-24466	,	-23040	,	3.7260299	,	10
18,30	,	81094	,	-24462	,	-23046	,	10.537156	,	16
18,31	,	81126	,	-24474	,	-23042	,	16.872894	,	22
18,31	,	81142	,	-24458	,	-23046	,	21.905537	,	28
18,31	,	81173	,	-24448	,	-23040	,	25.200447	,	33
18,31	,	81189	,	-24472	,	-23043	,	26.759415	,	36
18,31	,	81205	,	-24457	,	-23046	,	26.609055	,	37
18,31	,	81237	,	-24447	,	-23041	,	24.928165	,	35
18,31	,	81253	,	-24449	,	-23049	,	22.286652	,	32
18,31	,	81270	,	-24454	,	-23044	,	19.248985	,	27
18,31	,	81301	,	-24452	,	-23023	,	16.080725	,	21
18,31	,	81318	,	-24442	,	-23035	,	12.969157	,	15
18,31	,	81334	,	-24449	,	-23037	,	10.176116	,	9
18,31	,	81365	,	-24447	,	-23046	,	7.863554	,	4
18,31	,	81381	,	-24446	,	-23039	,	6.02311	,	1
18,31	,	81413	,	-24443	,	-23043	,	4.621128	,	0
18,31	,	81430	,	-24442	,	-23037	,	3.649512	,	0
18,31	,	81446	,	-24457	,	-23042	,	3.0061388	,	0
18,31	,	81477	,	-24453	,	-23037	,	2.422884	,	0
18,31	,	81494	,	-24464	,	-23041	,	1.6231157	,	0
18,31	,	81510	,	-24458	,	-23050	,	0.49409378	,	0
18,31	,	81541	,	-24450	,	-23030	,	-0.8284433	,	0
18,31	,	81558	,	-24467	,	-23038	,	-2.0680013	,	0
18,31	,	81589	,	-24465	,	-23048	,	-3.1291473	,	0
18,31	,	81605	,	-24474	,	-23043	,	-4.125817	,	0
18,31	,	81621	,	-24477	,	-23048	,	-5.17621	,	0
18,31	,	81653	,	-24471	,	-23053	,	-6.285585	,	0
18,31	,	81669	,	-24491	,	-23062	,	-7.3711195	,	0
18,31	,	81685	,	-24485	,	-23052	,	-8.428072	,	0
18,31	,	81717	,	-24484	,	-23052	,	-9.442611	,	0
18,31	,	81733	,	-24502	,	-23060	,	-10.302246	,	0
18,31	,	81765	,	-24497	,	-23059	,	-11.005948	,	0
18,31	,	81781	,	-24494	,	-23054	,	-11.578091	,	0
18,31	,	81797	,	-24489	,	-23053	,	-11.836957	,	0
18,31	,	81829	,	-24499	,	-23046	,	-11.567663	,	0
18,31	,	81845	,	-24497	,	-23049	,	-10.784187	,	0
18,31	,	81861	,	-24488	,	-23041	,	-9.624502	,	0
18,31	,	81893	,	-24476	,	-23038	,	-8.064882	,	1
18,31	,	81909	,	-24465	,	-23037	,	-5.8915515	,	2
18,31	,	81925	,	-24451	,	-23028	,	-2.8871746	,	4
18,31	,	81957	,	-24442	,	-23031	,	1.0200057	,	7
18,31	,	81973	,	-24437	,	-23028	,	5.6621346	,	10
18,31	,	82005	,	-24434	,	-23008	,	10.608967	,	14
18,31	,	82021	,	-24438	,	-23020	,	15.24893	,	18
18,31	,	82037	,	-24447	,	-23011	,	18.888102	,	22
18,31	,	82069	,	-24440	,	-23014	,	20.938576	,	25
18,31	,	82085	,	-24434	,	-23017	,	21.2331	,	26
18,31	,	82101	,	-24427	,	-23017	,	20.122284	,	25
18,32	,	82133	,	-24440	,	-23017	,	18.141663	,	23
18,32	,	82149	,	-24448	,	-23024	,	15.578532	,	20
18,32	,	82181	,	-24440	,	-23025	,	12.493805	,	17
18,32	,	82197	,	-24443	,	-23017	,	9.078917	,	13
18,32	,	82213	,	-24441	,	-23030	,	5.703178	,	9
18,32	,	82245	,	-24439	,	-23002	,	2.71836	,	5
18,32	,	82261	,	-24436	,	-23013	,	0.38937664	,	2
18,32	,	82277	,	-24434	,	-23006	,	-1.1177928	,	0
18,32	,	82309	,	-24433	,	-23011	,	-1.7685386	,	0
18,32	,	82325	,	-24445	,	-23022	,	-1.7242522	,	0
18,32	,	82357	,	-24443	,	-23024	,	-1.349341	,	0
18,32	,	82373	,	-24454	,	-23022	,	-1.0506824	,	0
18,32	,	82389	,	-24455	,	-23020	,	-1.1311253	,	0
18,32	,	82421	,	-24463	,	-23030	,	-1.7517228	,	0
18,32	,	82437	,	-24459	,	-23045	,	-2.8955772	,	0
18,32	,	82453	,	-24465	,	-23013	,	-4.364618	,	0
18,32	,	82485	,	-24464	,	-23032	,	-5.884967	,	0
18,32	,	82501	,	-24474	,	-23037	,	-7.256547	,	0
18,32	,	82517	,	-24471	,	-23037	,	-8.403149	,	0
18,32	,	82549	,	-24471	,	-23041	,	-9.271555	,	0
18,32	,	82565	,	-24486	,	-23033	,	-9.826076	,	0
18,32	,	82597	,	-24492	,	-23040	,	-10.2091875	,	0
18,32	,	82613	,	-24484	,	-23047	,	-10.617842	,	0
18,32	,	82629	,	-24487	,	-23046	,	-11.005438	,	0
18,32	,	82661	,	-24490	,	-23051	,	-11.172419	,	0
18,32	,	82677	,	-24493	,	-23063	,	-11.029743	,	0
18,32	,	82693	,	-24492	,	-23030	,	-10.6111355	,	0
18,32	,	82725	,	-24466	,	-23030	,	-9.835119	,	0
18,32	,	82741	,	-24465	,	-23025	,	-8.362033	,	0
18,32	,	82773	,	-24452	,	-23027	,	-5.8708005	,	1
18,32	,	82789	,	-24439	,	-23019	,	-2.3069992	,	3
18,32	,	82805	,	-24433	,	-23008	,	2.1831553	,	6
18,32	,	82837	,	-24429	,	-23024	,	7.2557344	,	10
18,32	,	82853	,	-24425	,	-23018	,	12.366266	,	15
18,32	,	82869	,	-24419	,	-23023	,	16.944235	,	20
18,32	,	82901	,	-24438	,	-23018	,	20.46717	,	24
18,32	,	82917	,	-24431	,	-22999	,	22.422644	,	27
18,32	,	82949	,	-24423	,	-23016	,	22.569336	,	28
18,32	,	82965	,	-24441	,	-23010	,	21.103601	,	27
18,32	,	82981	,	-24437	,	-23016	,	18.344954	,	25
18,32	,	83012	,	-24427	,	-23016	,	14.676532	,	22
18,32	,	83029	,	-24427	,	-23010	,	10.718602	,	18
18,32	,	83044	,	-24435	,	-23017	,	7.069008	,	13
18,32	,	83077	,	-24426	,	-23020	,	4.029541	,	8
18,32	,	83093	,	-24433	,	-23010	,	1.7133865	,	4
18,32	,	83109	,	-24424	,	-23007	,	0.15982175	,	1
18,33	,	83141	,	-24426	,	-23024	,	-0.6528431	,	0
18,33	,	83157	,	-24435	,	-22997	,	-0.8569942	,	0
18,33	,	83189	,	-24443	,	-23026	,	-0.78802425	,	0
18,33	,	83205	,	-24435	,	-23022	,	-0.82623506	,	0
18,33	,	83221	,	-24446	,	-23029	,	-1.143856	,	0
18,33	,	83253	,	-24457	,	-23023	,	-1.8120228	,	0
18,33	,	83268	,	-24460	,	-23018	,	-2.9656897	,	0
18,33	,	83285	,	-24452	,	-23029	,	-4.593829	,	0
18,33	,	83317	,	-24462	,	-23029	,	-6.3967075	,	0
18,33	,	83332	,	-24460	,	-23030	,	-8.033562	,	0
18,33	,	83365	,	-24471	,	-23035	,	-9.336229	,	0
18,33	,	83381	,	-24467	,	-23040	,	-10.279579	,	0
18,33	,	83397	,	-24478	,	-23037	,	-10.8951435	,	0
18,33	,	83429	,	-24488	,	-23038	,	-11.3053665	,	0
18,33	,	83444	,	-24471	,	-23042	,	-11.6499	,	0
18,33	,	83460	,	-24484	,	-23042	,	-11.855391	,	0
18,33	,	83492	,	-24484	,	-23043	,	-11.776133	,	0
18,33	,	83508	,	-24469	,	-23046	,	-11.349216	,	0
18,33	,	83525	,	-24454	,	-23036	,	-10.342852	,	0
18,33	,	83557	,	-24455	,	-23032	,	-8.395649	,	1
18,33	,	83573	,	-24442	,	-23028	,	-5.390402	,	2
18,33	,	83604	,	-24437	,	-23035	,	-1.5099821	,	5
18,33	,	83620	,	-24429	,	-23016	,	2.9261084	,	8
18,33	,	83636	,	-24438	,	-23026	,	7.4611435	,	12
18,33	,	83669	,	-24429	,	-23017	,	11.505378	,	16
18,33	,	83685	,	-24420	,	-23030	,	14.617492	,	20
18,33	,	83701	,	-24443	,	-23024	,	16.605724	,	23
18,33	,	83732	,	-24430	,	-23027	,	17.298244	,	24
18,33	,	83748	,	-24431	,	-23025	,	16.659756	,	23
18,33	,	83780	,	-24425	,	-23025	,	15.0038395	,	22
18,33	,	83796	,	-24433	,	-23022	,	12.776212	,	19
18,33	,	83813	,	-24425	,	-23026	,	10.325773	,	16
18,33	,	83844	,	-24429	,	-23032	,	7.9157825	,	12
18,33	,	83860	,	-24423	,	-23004	,	5.763213	,	8
18,33	,	83876	,	-24422	,	-23022	,	4.038685	,	4
18,33	,	83908	,	-24434	,	-23020	,	2.7907987	,	1
18,33	,	83925	,	-24431	,	-23021	,	1.861243	,	0
18,33	,	83940	,	-24434	,	-23025	,	1.0393403	,	0
18,33	,	83972	,	-24435	,	-23029	,	0.23306322	,	0
18,33	,	83988	,	-24440	,	-23025	,	-0.59186155	,	0
18,33	,	84020	,	-24442	,	-23031	,	-1.4787768	,	0
18,33	,	84036	,	-24439	,	-23032	,	-2.4220064	,	0
18,33	,	84052	,	-24443	,	-23035	,	-3.3207014	,	0
18,33	,	84084	,	-24451	,	-23039	,	-4.096909	,	0
18,33	,	84100	,	-24464	,	-23031	,	-4.8594	,	0
18,33	,	84116	,	-24466	,	-23037	,	-5.8518095	,	0
18,34	,	84148	,	-24465	,	-23033	,	-7.180589	,	0
18,34	,	84164	,	-24475	,	-23037	,	-8.708781	,	0
18,34	,	84196	,	-24476	,	-23041	,	-10.249341	,	0
18,34	,	84212	,	-24481	,	-23044	,	-11.672808	,	0
18,34	,	84228	,	-24472	,	-23048	,	-12.813865	,	0
18,34	,	84260	,	-24495	,	-23048	,	-13.517424	,	0
18,34	,	84276	,	-24477	,	-23043	,	-13.781258	,	0
18,34	,	84292	,	-24453	,	-23041	,	-13.472137	,	0
18,34	,	84324	,	-24457	,	-23033	,	-12.128965	,	0
18,34	,	84340	,	-24447	,	-23024	,	-9.457585	,	1
18,34	,	84356	,	-24425	,	-23025	,	-5.545399	,	3
18,34	,	84388	,	-24445	,	-23028	,	-0.6925936	,	6
18,34	,	84404	,	-24443	,	-23021	,	4.4254465	,	10
18,34	,	84436	,	-24448	,	-23020	,	8.869158	,	15
18,34	,	84453	,	-24427	,	-23032	,	12.031695	,	19
18,34	,	84468	,	-24441	,	-23026	,	13.862865	,	22
18,34	,	84500	,	-24454	,	-23032	,	14.437391	,	23
18,34	,	84516	,	-24455	,	-23028	,	13.64768	,	23
18,34	,	84532	,	-24450	,	-23047	,	11.518591	,	22
18,34	,	84564	,	-24458	,	-23018	,	8.435825	,	20
18,34	,	84580	,	-24439	,	-23033	,	4.9937057	,	17
18,34	,	84612	,	-24444	,	-23028	,	1.8615093	,	13
18,34	,	84628	,	-24444	,	-23032	,	-0.4509654	,	8
18,34	,	84644	,	-24456	,	-23032	,	-1.8646197	,	4
18,34	,	84676	,	-24446	,	-23035	,	-2.6221602	,	1
18,34	,	84692	,	-24438	,	-23033	,	-2.8930912	,	0
18,34	,	84708	,	-24437	,	-23041	,	-2.6153831	,	0
18,34	,	84740	,	-24451	,	-23033	,	-1.8028058	,	0
18,34	,	84756	,	-24459	,	-23034	,	-0.83206904	,	0
18,34	,	84772	,	-24464	,	-23051	,	-0.25967443	,	0
18,34	,	84804	,	-24466	,	-23031	,	-0.4492013	,	0
18,34	,	84820	,	-24471	,	-23045	,	-1.4409137	,	0
18,34	,	84852	,	-24468	,	-23038	,	-3.0283282	,	0
18,34	,	84868	,	-24468	,	-23037	,	-4.842081	,	0
18,34	,	84884	,	-24476	,	-23039	,	-6.5091906	,	0
18,34	,	84916	,	-24486	,	-23048	,	-7.8847637	,	0
18,34	,	84932	,	-24473	,	-23043	,	-8.995911	,	0
18,34	,	84948	,	-24490	,	-23045	,	-9.813852	,	0
18,34	,	84980	,	-24488	,	-23040	,	-10.327765	,	0
18,34	,	84996	,	-24480	,	-23047	,	-10.566938	,	0
18,34	,	85028	,	-24477	,	-23048	,	-10.409607	,	0
18,34	,	85044	,	-24474	,	-23038	,	-9.661377	,	0
18,34	,	85060	,	-24448	,	-23032	,	-8.145727	,	0
18,34	,	85092	,	-24434	,	-23020	,	-5.565676	,	1
18,34	,	85108	,	-24427	,	-23020	,	-1.652596	,	3
18,34	,	85124	,	-24424	,	-23024	,	3.4454038	,	6
18,35	,	85156	,	-24429	,	-23017	,	9.075116	,	11
18,35	,	85172	,	-24425	,	-23020	,	14.330001	,	16
18,35	,	85188	,	-24435	,	-23021	,	18.376286	,	21
18,35	,	85220	,	-24438	,	-23028	,	20.629639	,	25
18,35	,	85236	,	-24433	,	-23036	,	20.863377	,	27
18,35	,	85268	,	-24441	,	-23014	,	19.268497	,	27
18,35	,	85284	,	-24428	,	-23025	,	16.33927	,	26
18,35	,	85300	,	-24442	,	-23019	,	12.69192	,	24
18,35	,	85332	,	-24440	,	-23020	,	8.840033	,	21
18,35	,	85348	,	-24423	,	-23030	,	5.198847	,	16
18,35	,	85364	,	-24434	,	-23021	,	2.233818	,	11
18,35	,	85396	,	-24436	,	-23024	,	0.2110467	,	6
18,35	,	85412	,	-24434	,	-23019	,	-0.9753816	,	2
18,35	,	85444	,	-24437	,	-23018	,	-1.5574913	,	0
18,35	,	85460	,	-24433	,	-23029	,	-1.7259177	,	0
18,35	,	85476	,	-24440	,	-23050	,	-1.6429807	,	0
18,35	,	85508	,	-24438	,	-23025	,	-1.4664421	,	0
18,35	,	85524	,	-24448	,	-23034	,	-1.3559573	,	0
18,35	,	85540	,	-24450	,	-23034	,	-1.4835883	,	0
18,35	,	85572	,	-24450	,	-23030	,	-1.9629538	,	0
18,35	,	85588	,	-24449	,	-23031	,	-2.7277622	,	0
18,35	,	85604	,	-24455	,	-23038	,	-3.5950696	,	0
18,35	,	85636	,	-24459	,	-23035	,	-4.451576	,	0
18,35	,	85652	,	-24458	,	-23048	,	-5.280122	,	0
18,35	,	85684	,	-24477	,	-23038	,	-6.123224	,	0
18,35	,	85699	,	-24473	,	-23051	,	-7.1088324	,	0
18,35	,	85715	,	-24476	,	-23041	,	-8.295533	,	0
18,35	,	85748	,	-24477	,	-23045	,	-9.529832	,	0
18,35	,	85764	,	-24470	,	-23041	,	-10.5454645	,	0
18,35	,	85780	,	-24452	,	-23035	,	-10.970049	,	0
18,35	,	85812	,	-24442	,	-23024	,	-10.304672	,	0
18,35	,	85828	,	-24431	,	-23018	,	-8.155591	,	0
18,35	,	85859	,	-24413	,	-23014	,	-4.4291425	,	2
18,35	,	85876	,	-24413	,	-23020	,	0.6592889	,	5
18,35	,	85892	,	-24408	,	-23018	,	6.555848	,	10
18,35	,	85923	,	-24402	,	-23012	,	12.483971	,	15
18,35	,	85939	,	-24413	,	-23021	,	17.666933	,	20
18,35	,	85955	,	-24408	,	-22993	,	21.416224	,	25
18,35	,	85987	,	-24414	,	-23009	,	23.281883	,	28
18,35	,	86003	,	-24410	,	-23010	,	23.192532	,	29
18,35	,	86035	,	-24408	,	-23017	,	21.422928	,	29
18,35	,	86052	,	-24413	,	-23007	,	18.46657	,	27
18,35	,	86068	,	-24405	,	-23007	,	14.871561	,	24
18,35	,	86099	,	-24395	,	-23004	,	11.218072	,	19
18,35	,	86116	,	-24409	,	-23009	,	8.036069	,	14
18,36	,	86131	,	-24392	,	-23016	,	5.59619	,	9
18,36	,	86163	,	-24405	,	-23005	,	3.9457583	,	4
18,36	,	86179	,	-24411	,	-23021	,	2.9312932	,	1
18,36	,	86195	,	-24410	,	-22994	,	2.191069	,	0
18,36	,	86228	,	-24396	,	-23016	,	1.496199	,	0
18,36	,	86243	,	-24409	,	-23011	,	0.91432846	,	0
18,36	,	86275	,	-24413	,	-23014	,	0.47418392	,	0
18,36	,	86291	,	-24430	,	-23017	,	-0.067495346	,	0
18,36	,	86307	,	-24432	,	-23026	,	-1.0768478	,	0
18,36	,	86339	,	-24439	,	-23029	,	-2.7649057	,	0
18,36	,	86355	,	-24438	,	-23024	,	-5.0395465	,	0
18,36	,	86371	,	-24442	,	-23026	,	-7.569991	,	0
18,36	,	86403	,	-24449	,	-23031	,	-9.982981	,	0
18,36	,	86420	,	-24451	,	-23020	,	-12.03289	,	0
18,36	,	86451	,	-24454	,	-23025	,	-13.601725	,	0
18,36	,	86467	,	-24452	,	-23038	,	-14.604	,	0
18,36	,	86483	,	-24471	,	-23045	,	-15.035591	,	0
18,36	,	86515	,	-24473	,	-23039	,	-15.109505	,	0
18,36	,	86531	,	-24472	,	-23039	,	-15.096336	,	0
18,36	,	86547	,	-24472	,	-23035	,	-15.034599	,	0
18,36	,	86579	,	-24480	,	-23040	,	-14.810427	,	0
18,36	,	86595	,	-24486	,	-23042	,	-14.412882	,	0
18,36	,	86611	,	-24480	,	-23046	,	-13.916094	,	0
18,36	,	86643	,	-24467	,	-23056	,	-13.224438	,	0
18,36	,	86659	,	-24474	,	-23023	,	-12.064132	,	0
18,36	,	86691	,	-24442	,	-23021	,	-10.176706	,	1
18,36	,	86707	,	-24430	,	-23016	,	-7.252468	,	2
18,36	,	86723	,	-24407	,	-23012	,	-2.9437432	,	4
18,36	,	86755	,	-24412	,	-23010	,	2.7711663	,	8
18,36	,	86771	,	-24416	,	-23000	,	9.288561	,	13
18,36	,	86787	,	-24408	,	-23004	,	15.562159	,	19
18,36	,	86819	,	-24402	,	-23002	,	20.69242	,	25
18,36	,	86835	,	-24402	,	-23007	,	24.239967	,	30
18,36	,	86867	,	-24393	,	-23001	,	26.116343	,	33
18,36	,	86883	,	-24403	,	-23019	,	26.423666	,	33
18,36	,	86899	,	-24393	,	-22998	,	25.34272	,	32
18,36	,	86931	,	-24392	,	-23003	,	23.173208	,	30
18,36	,	86947	,	-24390	,	-22997	,	20.352585	,	26
18,36	,	86963	,	-24385	,	-23007	,	17.315422	,	21
18,36	,	86995	,	-24391	,	-23000	,	14.385861	,	15
18,36	,	87011	,	-24388	,	-23001	,	11.717132	,	9
18,36	,	87027	,	-24393	,	-22994	,	9.320904	,	4
18,36	,	87059	,	-24386	,	-22995	,	7.1872945	,	1
18,36	,	87075	,	-24381	,	-22996	,	5.388529	,	0
18,36	,	87107	,	-24398	,	-23010	,	3.9942431	,	0
18,36	,	87123	,	-24407	,	-22983	,	2.8074443	,	0
18,37	,	87139	,	-24405	,	-22994	,	1.4483902	,	0
18,37	,	87171	,	-24400	,	-23014	,	-0.21176815	,	0
18,37	,	87187	,	-24405	,	-23003	,	-1.954326	,	0
18,37	,	87203	,	-24404	,	-23005	,	-3.504898	,	0
18,37	,	87235	,	-24418	,	-23006	,	-4.763264	,	0
18,37	,	87251	,	-24421	,	-23012	,	-5.8447275	,	0
18,37	,	87283	,	-24427	,	-23021	,	-6.9465666	,	0
18,37	,	87299	,	-24419	,	-23027	,	-8.115626	,	0
18,37	,	87315	,	-24433	,	-23020	,	-9.212807	,	0
18,37	,	87347	,	-24425	,	-23037	,	-10.091428	,	0
18,37	,	87363	,	-24441	,	-23006	,	-10.698394	,	0
18,37	,	87379	,	-24429	,	-23028	,	-11.039328	,	0
18,37	,	87411	,	-24442	,	-23030	,	-11.108947	,	0
18,37	,	87427	,	-24446	,	-23035	,	-10.951523	,	0
18,37	,	87459	,	-24451	,	-23028	,	-10.738983	,	0
18,37	,	87475	,	-24441	,	-23030	,	-10.5793495	,	0
18,37	,	87491	,	-24446	,	-23038	,	-10.357842	,	0
18,37	,	87523	,	-24461	,	-23035	,	-9.978777	,	0
18,37	,	87539	,	-24461	,	-23034	,	-9.60154	,	0
18,37	,	87555	,	-24461	,	-23043	,	-9.424479	,	0
18,37	,	87587	,	-24442	,	-23040	,	-9.344036	,	0
18,37	,	87603	,	-24426	,	-23017	,	-8.867762	,	0
18,37	,	87619	,	-24396	,	-23009	,	-7.2577677	,	0
18,37	,	87651	,	-24383	,	-23010	,	-3.8374772	,	1
18,37	,	87667	,	-24379	,	-23001	,	1.5779629	,	4
18,37	,	87699	,	-24388	,	-22997	,	8.366905	,	9
18,37	,	87715	,	-24373	,	-23000	,	15.346949	,	15
18,37	,	87731	,	-24368	,	-22991	,	21.459297	,	21
18,37	,	87763	,	-24365	,	-22994	,	26.117102	,	27
18,37	,	87779	,	-24377	,	-22990	,	28.992157	,	31
18,37	,	87795	,	-24375	,	-23012	,	29.82336	,	33
18,37	,	87827	,	-24378	,	-22980	,	28.562752	,	33
18,37	,	87843	,	-24381	,	-22998	,	25.497623	,	32
18,37	,	87874	,	-24368	,	-22998	,	21.190363	,	29
18,37	,	87891	,	-24373	,	-22996	,	16.382046	,	24
18,37	,	87907	,	-24365	,	-22997	,	11.783425	,	18
18,37	,	87939	,	-24356	,	-22997	,	7.941207	,	12
18,37	,	87955	,	-24354	,	-22987	,	5.2590137	,	6
18,37	,	87971	,	-24362	,	-22991	,	3.8519483	,	2
18,37	,	88003	,	-24371	,	-22996	,	3.3830042	,	0
18,37	,	88019	,	-24367	,	-22996	,	3.2668314	,	0
18,37	,	88034	,	-24371	,	-23016	,	3.064756	,	0
18,37	,	88067	,	-24374	,	-22986	,	2.5894055	,	0
18,37	,	88083	,	-24386	,	-23000	,	1.7344408	,	0
18,37	,	88115	,	-24380	,	-23000	,	0.42725873	,	0
18,38	,	88131	,	-24385	,	-23000	,	-1.2398783	,	0
18,38	,	88147	,	-24394	,	-23003	,	-3.0627484	,	0
18,38	,	88179	,	-24400	,	-23001	,	-4.9433827	,	0
18,38	,	88195	,	-24395	,	-23004	,	-6.834829	,	0
18,38	,	88211	,	-24402	,	-23019	,	-8.570175	,	0
18,38	,	88243	,	-24403	,	-23016	,	-9.957144	,	0
18,38	,	88259	,	-24414	,	-23021	,	-10.949063	,	0
18,38	,	88290	,	-24418	,	-23014	,	-11.662571	,	0
18,38	,	88306	,	-24418	,	-23018	,	-12.241845	,	0
18,38	,	88322	,	-24414	,	-23020	,	-12.67078	,	0
18,38	,	88355	,	-24427	,	-23019	,	-12.819525	,	0
18,38	,	88371	,	-24426	,	-23019	,	-12.681309	,	0
18,38	,	88387	,	-24446	,	-23018	,	-12.453225	,	0
18,38	,	88419	,	-24444	,	-23034	,	-12.428833	,	0
18,38	,	88434	,	-24447	,	-23034	,	-12.76203	,	0
18,38	,	88450	,	-24450	,	-23028	,	-13.338685	,	0
18,38	,	88482	,	-24453	,	-23040	,	-13.93907	,	0
18,38	,	88498	,	-24449	,	-23036	,	-14.356591	,	0
18,38	,	88530	,	-24437	,	-23011	,	-14.320488	,	0
18,38	,	88547	,	-24419	,	-23014	,	-13.419479	,	0
18,38	,	88563	,	-24401	,	-23009	,	-11.164255	,	0
18,38	,	88594	,	-24389	,	-23002	,	-7.216401	,	2
18,38	,	88610	,	-24376	,	-23004	,	-1.6144671	,	5
18,38	,	88626	,	-24371	,	-22998	,	5.1841536	,	10
18,38	,	88658	,	-24375	,	-22998	,	12.366974	,	16
18,38	,	88674	,	-24377	,	-22996	,	18.896524	,	23
18,38	,	88706	,	-24373	,	-22994	,	23.827454	,	29
18,38	,	88722	,	-24363	,	-22991	,	26.68885	,	33
18,38	,	88739	,	-24378	,	-23010	,	27.50438	,	35
18,38	,	88770	,	-24379	,	-22981	,	26.4417	,	35
18,38	,	88786	,	-24373	,	-22981	,	23.734566	,	33
18,38	,	88802	,	-24362	,	-22989	,	19.924648	,	30
18,38	,	88834	,	-24359	,	-22992	,	15.8188095	,	25
18,38	,	88850	,	-24350	,	-22987	,	12.171451	,	19
18,38	,	88866	,	-24363	,	-22991	,	9.410637	,	12
18,38	,	88898	,	-24367	,	-22985	,	7.4863863	,	6
18,38	,	88914	,	-24355	,	-22983	,	6.0789647	,	2
18,38	,	88946	,	-24362	,	-22990	,	4.993391	,	0
18,38	,	88962	,	-24366	,	-22989	,	4.1404104	,	0
18,38	,	88978	,	-24375	,	-22998	,	3.3163238	,	0
18,38	,	89010	,	-24375	,	-22997	,	2.2610483	,	0
18,38	,	89026	,	-24375	,	-22997	,	0.872548	,	0
18,38	,	89042	,	-24375	,	-22999	,	-0.71765053	,	0
18,38	,	89074	,	-24391	,	-23002	,	-2.34198	,	0
18,38	,	89090	,	-24394	,	-23001	,	-4.0159936	,	0
18,38	,	89122	,	-24387	,	-23000	,	-5.783609	,	0
18,39	,	89138	,	-24402	,	-23004	,	-7.5155563	,	0
18,39	,	89154	,	-24398	,	-23006	,	-9.062912	,	0
18,39	,	89186	,	-24406	,	-23012	,	-10.358799	,	0
18,39	,	89202	,	-24410	,	-23027	,	-11.373169	,	0
18,39	,	89218	,	-24415	,	-22998	,	-12.132433	,	0
18,39	,	89250	,	-24423	,	-23014	,	-12.714078	,	0
18,39	,	89266	,	-24424	,	-23021	,	-13.206997	,	0
18,39	,	89298	,	-24432	,	-23028	,	-13.659774	,	0
18,39	,	89314	,	-24430	,	-23019	,	-14.056488	,	0
18,39	,	89330	,	-24442	,	-23028	,	-14.3610115	,	0
18,39	,	89362	,	-24435	,	-23031	,	-14.546866	,	0
18,39	,	89378	,	-24447	,	-23038	,	-14.573175	,	0
18,39	,	89394	,	-24441	,	-23029	,	-14.396044	,	0
18,39	,	89426	,	-24440	,	-23027	,	-13.947208	,	0
18,39	,	89442	,	-24417	,	-23031	,	-13.002919	,	0
18,39	,	89458	,	-24402	,	-23001	,	-11.130059	,	0
18,39	,	89490	,	-24378	,	-23009	,	-7.8345957	,	1
18,39	,	89506	,	-24371	,	-23008	,	-2.8467536	,	4
18,39	,	89538	,	-24376	,	-23005	,	3.5555973	,	8
18,39	,	89554	,	-24375	,	-23007	,	10.463245	,	14
18,39	,	89570	,	-24378	,	-22999	,	16.715063	,	20
18,39	,	89602	,	-24363	,	-23001	,	21.438005	,	26
18,39	,	89618	,	-24382	,	-23008	,	24.237257	,	30
18,39	,	89634	,	-24382	,	-23007	,	24.963001	,	32
18,39	,	89666	,	-24382	,	-23017	,	23.62465	,	32
18,39	,	89682	,	-24377	,	-23008	,	20.586811	,	31
18,39	,	89714	,	-24384	,	-23004	,	16.49892	,	28
18,39	,	89730	,	-24373	,	-23002	,	12.038666	,	24
18,39	,	89746	,	-24365	,	-22997	,	7.870001	,	18
18,39	,	89778	,	-24362	,	-22997	,	4.6144204	,	12
18,39	,	89794	,	-24379	,	-23004	,	2.550445	,	6
18,39	,	89810	,	-24371	,	-23005	,	1.44871	,	2
18,39	,	89842	,	-24372	,	-23001	,	0.91287374	,	0
18,39	,	89858	,	-24373	,	-23000	,	0.6941165	,	0
18,39	,	89874	,	-24383	,	-22996	,	0.59849083	,	0
18,39	,	89906	,	-24380	,	-23012	,	0.39281687	,	0
18,39	,	89922	,	-24384	,	-22982	,	-0.076057315	,	0
18,39	,	89954	,	-24389	,	-23008	,	-0.8293068	,	0
18,39	,	89970	,	-24394	,	-23004	,	-1.8492799	,	0
18,39	,	89986	,	-24393	,	-23017	,	-3.0932877	,	0
18,39	,	90018	,	-24404	,	-23016	,	-4.4778953	,	0
18,39	,	90034	,	-24394	,	-23013	,	-5.895179	,	0
18,39	,	90050	,	-24410	,	-23015	,	-7.201853	,	0
18,39	,	90082	,	-24415	,	-23017	,	-8.344294	,	0
18,39	,	90098	,	-24411	,	-23022	,	-9.382873	,	0
18,40	,	90130	,	-24421	,	-23019	,	-10.30681	,	0
18,40	,	90146	,	-24425	,	-23035	,	-11.077507	,	0
18,40	,	90162	,	-24427	,	-23011	,	-11.722513	,	0
18,40	,	90194	,	-24422	,	-23026	,	-12.205172	,	0
18,40	,	90210	,	-24432	,	-23021	,	-12.40033	,	0
18,40	,	90226	,	-24432	,	-23020	,	-12.264969	,	0
18,40	,	90258	,	-24417	,	-23020	,	-11.795146	,	0
18,40	,	90273	,	-24401	,	-23021	,	-10.75714	,	0
18,40	,	90290	,	-24387	,	-23009	,	-8.701529	,	1
18,40	,	90322	,	-24378	,	-23004	,	-5.302233	,	3
18,40	,	90338	,	-24377	,	-23011	,	-0.64895916	,	6
18,40	,	90370	,	-24363	,	-23001	,	4.771094	,	10
18,40	,	90386	,	-24374	,	-23007	,	10.289633	,	15
18,40	,	90402	,	-24387	,	-22998	,	15.084246	,	20
18,40	,	90433	,	-24380	,	-22997	,	18.294352	,	24
18,40	,	90449	,	-24390	,	-23005	,	19.436386	,	27
18,40	,	90466	,	-24387	,	-23008	,	18.541367	,	28
18,40	,	90498	,	-24382	,	-23006	,	16.030106	,	27
18,40	,	90514	,	-24392	,	-23007	,	12.547644	,	25
18,40	,	90546	,	-24380	,	-23004	,	8.723097	,	22
18,40	,	90562	,	-24384	,	-23014	,	5.096157	,	18
18,40	,	90578	,	-24387	,	-23004	,	2.0642772	,	13
18,40	,	90610	,	-24385	,	-23013	,	-0.22083473	,	8
18,40	,	90626	,	-24382	,	-22997	,	-1.7502661	,	4
18,40	,	90641	,	-24384	,	-23003	,	-2.5503983	,	1
18,40	,	90673	,	-24389	,	-23013	,	-2.7442012	,	0
18,40	,	90689	,	-24381	,	-23007	,	-2.538457	,	0
18,40	,	90705	,	-24396	,	-23008	,	-2.1390185	,	0
18,40	,	90738	,	-24398	,	-23013	,	-1.8068694	,	0
18,40	,	90754	,	-24392	,	-23015	,	-1.7833241	,	0
18,40	,	90785	,	-24401	,	-23015	,	-2.0940747	,	0
18,40	,	90801	,	-24397	,	-23014	,	-2.6264038	,	0
18,40	,	90817	,	-24410	,	-23011	,	-3.3008685	,	0
18,40	,	90850	,	-24413	,	-23034	,	-4.1436234	,	0
18,40	,	90866	,	-24416	,	-22999	,	-5.223466	,	0
18,40	,	90881	,	-24423	,	-23026	,	-6.5227566	,	0
18,40	,	90913	,	-24418	,	-23028	,	-7.920117	,	0
18,40	,	90929	,	-24426	,	-23023	,	-9.226134	,	0
18,40	,	90962	,	-24435	,	-23027	,	-10.314436	,	0
18,40	,	90978	,	-24437	,	-23029	,	-11.22342	,	0
18,40	,	90994	,	-24422	,	-23028	,	-11.9350395	,	0
18,40	,	91025	,	-24412	,	-23020	,	-12.120368	,	0
18,40	,	91041	,	-24412	,	-23012	,	-11.331863	,	0
18,40	,	91057	,	-24386	,	-23017	,	-9.30659	,	0
18,40	,	91089	,	-24384	,	-23017	,	-5.9495416	,	2
18,40	,	91105	,	-24372	,	-23001	,	-1.3644805	,	5
18,40	,	91121	,	-24367	,	-22997	,	4.052781	,	9
18,41	,	91154	,	-24370	,	-22996	,	9.684166	,	14
18,41	,	91170	,	-24372	,	-22997	,	14.768349	,	19
18,41	,	91201	,	-24366	,	-22993	,	18.606306	,	24
18,41	,	91217	,	-24365	,	-22986	,	20.844114	,	27
18,41	,	91233	,	-24367	,	-23000	,	21.480844	,	29
18,41	,	91265	,	-24364	,	-22995	,	20.704277	,	29
18,41	,	91281	,	-24363	,	-22996	,	18.829239	,	27
18,41	,	91297	,	-24376	,	-23003	,	16.195457	,	24
18,41	,	91329	,	-24373	,	-22987	,	13.022737	,	20
18,41	,	91345	,	-24363	,	-22999	,	9.560489	,	15
18,41	,	91377	,	-24372	,	-22996	,	6.222852	,	10
18,41	,	91393	,	-24358	,	-22999	,	3.4041452	,	5
18,41	,	91409	,	-24350	,	-22993	,	1.4270267	,	2
18,41	,	91442	,	-24361	,	-22990	,	0.50347376	,	0
18,41	,	91457	,	-24359	,	-22991	,	0.4974978	,	0
18,41	,	91473	,	-24368	,	-22995	,	0.9703951	,	0
18,41	,	91505	,	-24364	,	-22998	,	1.4691578	,	0
18,41	,	91521	,	-24382	,	-23001	,	1.643128	,	0
18,41	,	91553	,	-24374	,	-23010	,	1.2419095	,	0
18,41	,	91569	,	-24383	,	-22978	,	0.20513701	,	0
18,41	,	91585	,	-24386	,	-23008	,	-1.3325343	,	0
18,41	,	91617	,	-24391	,	-23003	,	-3.1923518	,	0
18,41	,	91634	,	-24398	,	-23003	,	-5.224182	,	0
18,41	,	91649	,	-24402	,	-23012	,	-7.311411	,	0
18,41	,	91681	,	-24402	,	-23007	,	-9.324329	,	0
18,41	,	91697	,	-24406	,	-23011	,	-11.072496	,	0
18,41	,	91713	,	-24407	,	-23020	,	-12.376405	,	0
18,41	,	91745	,	-24416	,	-23013	,	-13.1729965	,	0
18,41	,	91761	,	-24409	,	-23022	,	-13.498292	,	0
18,41	,	91793	,	-24431	,	-23021	,	-13.4471245	,	0
18,41	,	91809	,	-24420	,	-23009	,	-13.204788	,	0
18,41	,	91825	,	-24392	,	-23006	,	-12.747816	,	0
18,41	,	91857	,	-24374	,	-23001	,	-11.497158	,	0
18,41	,	91873	,	-24371	,	-22998	,	-8.747394	,	1
18,41	,	91889	,	-24361	,	-22989	,	-4.336805	,	3
18,41	,	91921	,	-24343	,	-22982	,	1.3679576	,	7
18,41	,	91937	,	-24342	,	-22982	,	7.8161016	,	12
18,41	,	91969	,	-24323	,	-22975	,	14.404503	,	18
18,41	,	91985	,	-24332	,	-22978	,	20.517487	,	24
18,41	,	92001	,	-24322	,	-22980	,	25.548307	,	30
18,41	,	92033	,	-24324	,	-22957	,	28.99746	,	35
18,41	,	92049	,	-24333	,	-22976	,	30.56457	,	38
18,41	,	92065	,	-24330	,	-22975	,	30.112373	,	38
18,41	,	92097	,	-24330	,	-22968	,	27.766651	,	36
18,41	,	92113	,	-24326	,	-22964	,	23.997253	,	32
18,42	,	92129	,	-24323	,	-22961	,	19.471794	,	27
18,42	,	92161	,	-24329	,	-22966	,	14.829928	,	21
18,42	,	92177	,	-24321	,	-22962	,	10.535575	,	15
18,42	,	92209	,	-24318	,	-22964	,	6.9304514	,	9
18,42	,	92225	,	-24316	,	-22964	,	4.2776794	,	4
18,42	,	92241	,	-24317	,	-22978	,	2.6536708	,	1
18,42	,	92273	,	-24315	,	-22949	,	1.9229388	,	0
18,42	,	92289	,	-24329	,	-22961	,	1.7834344	,	0
18,42	,	92305	,	-24335	,	-22965	,	1.7634698	,	0
18,42	,	92337	,	-24343	,	-22966	,	1.3495712	,	0
18,42	,	92353	,	-24330	,	-22975	,	0.29749388	,	0
18,42	,	92385	,	-24345	,	-22975	,	-1.2478629	,	0
18,42	,	92401	,	-24353	,	-22972	,	-3.0665302	,	0
18,42	,	92417	,	-24350	,	-22970	,	-5.0697365	,	0
18,42	,	92449	,	-24359	,	-22981	,	-7.1310344	,	0
18,42	,	92465	,	-24353	,	-22980	,	-9.030711	,	0
18,42	,	92481	,	-24356	,	-22976	,	-10.52721	,	0
18,42	,	92513	,	-24358	,	-22981	,	-11.423298	,	0
18,42	,	92529	,	-24371	,	-22990	,	-11.719852	,	0
18,42	,	92545	,	-24375	,	-22997	,	-11.67135	,	0
18,42	,	92577	,	-24378	,	-22989	,	-11.594383	,	0
18,42	,	92593	,	-24384	,	-22994	,	-11.66477	,	0
18,42	,	92625	,	-24379	,	-22994	,	-11.882816	,	0
18,42	,	92641	,	-24389	,	-22995	,	-12.12817	,	0
18,42	,	92657	,	-24374	,	-22996	,	-12.224827	,	0
18,42	,	92689	,	-24352	,	-22979	,	-11.821687	,	0
18,42	,	92705	,	-24349	,	-22985	,	-10.364412	,	0
18,42	,	92721	,	-24335	,	-22958	,	-7.4851384	,	1
18,42	,	92753	,	-24307	,	-22961	,	-3.1375518	,	3
18,42	,	92769	,	-24298	,	-22960	,	2.617838	,	7
18,42	,	92801	,	-24293	,	-22955	,	9.480501	,	12
18,42	,	92817	,	-24293	,	-22951	,	16.69719	,	18
18,42	,	92833	,	-24296	,	-22945	,	23.242926	,	25
18,42	,	92865	,	-24281	,	-22955	,	28.23348	,	31
18,42	,	92881	,	-24290	,	-22950	,	31.22057	,	35
18,42	,	92897	,	-24290	,	-22946	,	32.093575	,	37
18,42	,	92929	,	-24287	,	-22953	,	30.93438	,	36
18,42	,	92945	,	-24288	,	-22970	,	28.081291	,	34
18,42	,	92961	,	-24284	,	-22938	,	24.07779	,	30
18,42	,	92993	,	-24287	,	-22944	,	19.509123	,	25
18,42	,	93009	,	-24284	,	-22943	,	14.891417	,	19
18,42	,	93041	,	-24277	,	-22947	,	10.660482	,	12
18,42	,	93057	,	-24270	,	-22945	,	7.2210894	,	6
18,42	,	93073	,	-24283	,	-22941	,	4.8171525	,	2
18,42	,	93105	,	-24273	,	-22940	,	3.3680563	,	0
18,42	,	93121	,	-24280	,	-22947	,	2.6140523	,	0
18,43	,	93137	,	-24275	,	-22936	,	2.3078973	,	0
18,43	,	93169	,	-24290	,	-22950	,	2.183539	,	0
18,43	,	93185	,	-24289	,	-22946	,	1.9166508	,	0
18,43	,	93216	,	-24291	,	-22949	,	1.2673769	,	0
18,43	,	93232	,	-24313	,	-22953	,	0.120470524	,	0
18,43	,	93249	,	-24304	,	-22959	,	-1.6203825	,	0
18,43	,	93281	,	-24298	,	-22957	,	-3.8125048	,	0
18,43	,	93297	,	-24308	,	-22956	,	-5.982361	,	0
18,43	,	93312	,	-24326	,	-22962	,	-7.829652	,	0
18,43	,	93344	,	-24322	,	-22955	,	-9.458376	,	0
18,43	,	93360	,	-24323	,	-22968	,	-10.9712305	,	0
18,43	,	93393	,	-24330	,	-22969	,	-12.256399	,	0
18,43	,	93409	,	-24331	,	-22989	,	-13.1960125	,	0
18,43	,	93425	,	-24339	,	-22953	,	-13.780535	,	0
18,43	,	93456	,	-24344	,	-22977	,	-14.085575	,	0
18,43	,	93472	,	-24351	,	-22980	,	-14.252014	,	0
18,43	,	93488	,	-24358	,	-22976	,	-14.431374	,	0
18,43	,	93520	,	-24368	,	-22985	,	-14.752369	,	0
18,43	,	93536	,	-24355	,	-22984	,	-15.22266	,	0
18,43	,	93552	,	-24361	,	-22986	,	-15.601059	,	0
18,43	,	93585	,	-24351	,	-22979	,	-15.523899	,	0
18,43	,	93601	,	-24339	,	-22975	,	-14.661796	,	0
18,43	,	93632	,	-24323	,	-22966	,	-12.686505	,	0
18,43	,	93648	,	-24309	,	-22973	,	-9.318968	,	1
18,43	,	93664	,	-24299	,	-22947	,	-4.5019507	,	4
18,43	,	93696	,	-24290	,	-22959	,	1.4857044	,	8
18,43	,	93712	,	-24298	,	-22954	,	8.007837	,	13
18,43	,	93728	,	-24275	,	-22947	,	14.25618	,	19
18,43	,	93760	,	-24270	,	-22948	,	19.663918	,	25
18,43	,	93776	,	-24274	,	-22946	,	23.967794	,	30
18,43	,	93808	,	-24290	,	-22937	,	26.817696	,	34
18,43	,	93824	,	-24264	,	-22944	,	27.837072	,	36
18,43	,	93840	,	-24270	,	-22947	,	27.116009	,	36
18,43	,	93872	,	-24283	,	-22956	,	25.069923	,	33
18,43	,	93888	,	-24285	,	-22943	,	21.93908	,	29
18,43	,	93904	,	-24271	,	-22947	,	17.945532	,	24
18,43	,	93936	,	-24287	,	-22951	,	13.556587	,	18
18,43	,	93952	,	-24263	,	-22948	,	9.311014	,	12
18,43	,	93968	,	-24278	,	-22945	,	5.6918163	,	7
18,43	,	94000	,	-24274	,	-22949	,	2.9827404	,	3
18,43	,	94016	,	-24273	,	-22949	,	1.1659055	,	1
18,43	,	94048	,	-24278	,	-22950	,	0.08319616	,	0
18,43	,	94064	,	-24276	,	-22955	,	-0.46847928	,	0
18,43	,	94080	,	-24290	,	-22949	,	-0.7547574	,	0
18,43	,	94112	,	-24292	,	-22965	,	-1.1038817	,	0
18,44	,	94128	,	-24290	,	-22938	,	-1.7638768	,	0
18,44	,	94144	,	-24297	,	-22956	,	-2.746594	,	0
18,44	,	94176	,	-24303	,	-22967	,	-3.9620855	,	0
18,44	,	94192	,	-24301	,	-22963	,	-5.3368936	,	0
18,44	,	94224	,	-24312	,	-22965	,	-6.7656674	,	0
18,44	,	94240	,	-24318	,	-22970	,	-8.182853	,	0
18,44	,	94256	,	-24313	,	-22977	,	-9.567386	,	0
18,44	,	94288	,	-24329	,	-22970	,	-10.844372	,	0
18,44	,	94304	,	-24339	,	-22976	,	-12.025994	,	0
18,44	,	94320	,	-24337	,	-22972	,	-13.242141	,	0
18,44	,	94352	,	-24326	,	-22968	,	-14.410604	,	0
18,44	,	94368	,	-24347	,	-22973	,	-15.224276	,	0
18,44	,	94400	,	-24348	,	-22980	,	-15.5766535	,	0
18,44	,	94416	,	-24351	,	-22988	,	-15.620495	,	0
18,44	,	94432	,	-24359	,	-22985	,	-15.496368	,	0
18,44	,	94464	,	-24372	,	-22989	,	-15.348086	,	0
18,44	,	94480	,	-24374	,	-22979	,	-15.386186	,	0
18,44	,	94496	,	-24352	,	-22983	,	-15.592425	,	0
18,44	,	94528	,	-24337	,	-22981	,	-15.429029	,	0
18,44	,	94544	,	-24322	,	-22974	,	-14.087275	,	0
18,44	,	94560	,	-24309	,	-22980	,	-11.002661	,	1
18,44	,	94592	,	-24311	,	-22952	,	-6.1562104	,	4
18,44	,	94608	,	-24291	,	-22961	,	-0.044685364	,	8
18,44	,	94640	,	-24282	,	-22962	,	6.677275	,	14
18,44	,	94656	,	-24293	,	-22963	,	13.350868	,	20
18,44	,	94672	,	-24299	,	-22960	,	19.112995	,	26
18,44	,	94704	,	-24280	,	-22957	,	23.138254	,	31
18,44	,	94720	,	-24282	,	-22956	,	25.175331	,	35
18,44	,	94736	,	-24283	,	-22965	,	25.458397	,	37
18,44	,	94768	,	-24294	,	-22957	,	24.245327	,	36
18,44	,	94784	,	-24288	,	-22967	,	21.724686	,	33
18,44	,	94816	,	-24282	,	-22966	,	18.24469	,	29
18,44	,	94832	,	-24278	,	-22956	,	14.397124	,	23
18,44	,	94848	,	-24282	,	-22956	,	10.771667	,	17
18,44	,	94880	,	-24286	,	-22954	,	7.6755037	,	11
18,44	,	94896	,	-24290	,	-22954	,	5.1126685	,	6
18,44	,	94912	,	-24293	,	-22960	,	2.947832	,	2
18,44	,	94944	,	-24295	,	-22958	,	1.0517645	,	0
18,44	,	94960	,	-24302	,	-22958	,	-0.6651342	,	0
18,44	,	94976	,	-24309	,	-22959	,	-2.3073678	,	0
18,44	,	95008	,	-24300	,	-22964	,	-3.9364252	,	0
18,44	,	95024	,	-24305	,	-22974	,	-5.426572	,	0
18,44	,	95056	,	-24314	,	-22959	,	-6.611432	,	0
18,44	,	95072	,	-24328	,	-22978	,	-7.57548	,	0
18,44	,	95088	,	-24326	,	-22980	,	-8.585332	,	0
18,44	,	95120	,	-24325	,	-22970	,	-9.743116	,	0
18,45	,	95136	,	-24328	,	-22974	,	-10.873806	,	0
18,45	,	95152	,	-24336	,	-22976	,	-11.766651	,	0
18,45	,	95184	,	-24338	,	-22979	,	-12.369791	,	0
18,45	,	95200	,	-24349	,	-22976	,	-12.764723	,	0
18,45	,	95231	,	-24350	,	-22987	,	-13.083622	,	0
18,45	,	95248	,	-24344	,	-22986	,	-13.360972	,	0
18,45	,	95264	,	-24349	,	-22999	,	-13.443369	,	0
18,45	,	95296	,	-24350	,	-22978	,	-13.162069	,	0
18,45	,	95312	,	-24369	,	-22996	,	-12.576482	,	0
18,45	,	95328	,	-24379	,	-22999	,	-12.04911	,	0
18,45	,	95360	,	-24371	,	-22994	,	-11.963667	,	0
18,45	,	95376	,	-24370	,	-22986	,	-12.299953	,	0
18,45	,	95408	,	-24358	,	-22985	,	-12.625738	,	0
18,45	,	95424	,	-24338	,	-22979	,	-12.321819	,	0
18,45	,	95440	,	-24323	,	-22981	,	-10.727148	,	0
18,45	,	95472	,	-24317	,	-22982	,	-7.424646	,	1
18,45	,	95488	,	-24313	,	-22977	,	-2.5421405	,	4
18,45	,	95504	,	-24310	,	-22990	,	3.2854533	,	8
18,45	,	95535	,	-24314	,	-22965	,	9.173152	,	13
18,45	,	95551	,	-24319	,	-22969	,	14.199853	,	18
18,45	,	95568	,	-24318	,	-22968	,	17.621742	,	23
18,45	,	95600	,	-24312	,	-22978	,	19.125547	,	26
18,45	,	95616	,	-24332	,	-22980	,	18.799656	,	27
18,45	,	95647	,	-24329	,	-22985	,	16.837158	,	27
18,45	,	95663	,	-24331	,	-22977	,	13.521768	,	26
18,45	,	95679	,	-24328	,	-22977	,	9.384222	,	23
18,45	,	95712	,	-24336	,	-22977	,	5.059446	,	19
18,45	,	95728	,	-24318	,	-22993	,	1.1102552	,	14
18,45	,	95744	,	-24320	,	-22968	,	-1.9409943	,	9
18,45	,	95776	,	-24333	,	-22981	,	-3.786645	,	4
18,45	,	95792	,	-24329	,	-22978	,	-4.5766344	,	1
18,45	,	95823	,	-24335	,	-22979	,	-4.7037897	,	0
18,45	,	95839	,	-24333	,	-22982	,	-4.5003824	,	0
18,45	,	95855	,	-24338	,	-22977	,	-4.1940126	,	0
18,45	,	95887	,	-24333	,	-22978	,	-3.9118612	,	0
18,45	,	95904	,	-24345	,	-22988	,	-3.715344	,	0
18,45	,	95920	,	-24353	,	-22988	,	-3.7351575	,	0
18,45	,	95951	,	-24328	,	-22991	,	-4.048772	,	0
18,45	,	95967	,	-24355	,	-23004	,	-4.4717064	,	0
18,45	,	95983	,	-24353	,	-22973	,	-4.8816977	,	0
18,45	,	96015	,	-24371	,	-22987	,	-5.469942	,	0
18,45	,	96031	,	-24370	,	-22991	,	-6.486702	,	0
18,45	,	96063	,	-24377	,	-22996	,	-7.99512	,	0
18,45	,	96079	,	-24382	,	-22995	,	-9.85075	,	0
18,45	,	96096	,	-24377	,	-23003	,	-11.785464	,	0
18,46	,	96128	,	-24376	,	-23001	,	-13.423831	,	0
18,46	,	96143	,	-24390	,	-23012	,	-14.443377	,	0
18,46	,	96159	,	-24391	,	-23014	,	-14.832054	,	0
18,46	,	96191	,	-24375	,	-23009	,	-14.696739	,	0
18,46	,	96207	,	-24373	,	-23017	,	-13.920544	,	0
18,46	,	96239	,	-24367	,	-22989	,	-12.293113	,	0
18,46	,	96255	,	-24340	,	-22992	,	-9.672373	,	1
18,46	,	96272	,	-24332	,	-22986	,	-5.8795733	,	3
18,46	,	96303	,	-24328	,	-22994	,	-0.8813367	,	6
18,46	,	96319	,	-24333	,	-22984	,	4.869214	,	10
18,46	,	96335	,	-24335	,	-22976	,	10.495692	,	15
18,46	,	96367	,	-24338	,	-22984	,	15.071739	,	20
18,46	,	96383	,	-24331	,	-22989	,	17.988037	,	24
18,46	,	96399	,	-24343	,	-22986	,	19.065811	,	26
18,46	,	96431	,	-24340	,	-22994	,	18.397287	,	27
18,46	,	96447	,	-24348	,	-22985	,	16.232239	,	26
18,46	,	96479	,	-24348	,	-22988	,	12.953383	,	24
18,46	,	96495	,	-24337	,	-22987	,	9.075352	,	21
18,46	,	96511	,	-24342	,	-22985	,	5.2322836	,	17
18,46	,	96543	,	-24342	,	-22982	,	1.9562826	,	12
18,46	,	96559	,	-24335	,	-22988	,	-0.48056412	,	7
18,46	,	96575	,	-24336	,	-22993	,	-1.9668534	,	3
18,46	,	96607	,	-24344	,	-22983	,	-2.5607266	,	1
18,46	,	96623	,	-24348	,	-22998	,	-2.5657578	,	0
18,46	,	96655	,	-24348	,	-22987	,	-2.3778288	,	0
18,46	,	96671	,	-24348	,	-22997	,	-2.2530437	,	0
18,46	,	96687	,	-24356	,	-22973	,	-2.2906995	,	0
18,46	,	96719	,	-24357	,	-22997	,	-2.5588942	,	0
18,46	,	96735	,	-24365	,	-23002	,	-3.1236835	,	0
18,46	,	96751	,	-24377	,	-22995	,	-4.055993	,	0
18,46	,	96783	,	-24380	,	-23000	,	-5.4492817	,	0
18,46	,	96799	,	-24374	,	-23002	,	-7.2492027	,	0
18,46	,	96815	,	-24366	,	-23003	,	-9.069333	,	0
18,46	,	96847	,	-24392	,	-23005	,	-10.466006	,	0
18,46	,	96863	,	-24386	,	-23009	,	-11.377787	,	0
18,46	,	96895	,	-24373	,	-23014	,	-11.899332	,	0
18,46	,	96911	,	-24395	,	-23027	,	-11.960271	,	0
18,46	,	96927	,	-24392	,	-22998	,	-11.617135	,	0
18,46	,	96959	,	-24387	,	-23008	,	-11.072053	,	0
18,46	,	96975	,	-24378	,	-23010	,	-10.305686	,	0
18,46	,	96991	,	-24367	,	-23002	,	-9.062775	,	0
18,46	,	97023	,	-24356	,	-23001	,	-7.046584	,	1
18,46	,	97039	,	-24350	,	-22991	,	-4.086014	,	3
18,46	,	97071	,	-24346	,	-22990	,	-0.27851677	,	5
18,46	,	97087	,	-24339	,	-22991	,	4.0236683	,	8
18,46	,	97103	,	-24330	,	-22974	,	8.398262	,	12
18,47	,	97135	,	-24330	,	-22982	,	12.482228	,	16
18,47	,	97151	,	-24333	,	-22990	,	15.911937	,	20
18,47	,	97167	,	-24325	,	-22974	,	18.328568	,	23
18,47	,	97199	,	-24341	,	-22977	,	19.48711	,	25
18,47	,	97215	,	-24330	,	-22979	,	19.274513	,	25
18,47	,	97231	,	-24339	,	-22985	,	17.768887	,	23
18,47	,	97263	,	-24338	,	-22984	,	15.244028	,	21
18,47	,	97279	,	-24340	,	-22980	,	12.046169	,	18
18,47	,	97311	,	-24342	,	-22982	,	8.541743	,	14
18,47	,	97327	,	-24334	,	-22981	,	5.1101627	,	10
18,47	,	97343	,	-24327	,	-22978	,	2.1704798	,	6
18,47	,	97375	,	-24327	,	-22990	,	0.12300539	,	3
18,47	,	97391	,	-24339	,	-22975	,	-0.9088669	,	1
18,47	,	97407	,	-24340	,	-22978	,	-1.2063521	,	0
18,47	,	97439	,	-24335	,	-22986	,	-1.1841754	,	0
18,47	,	97455	,	-24341	,	-22984	,	-1.0955983	,	0
18,47	,	97487	,	-24338	,	-22981	,	-1.0457547	,	0
18,47	,	97503	,	-24358	,	-22981	,	-1.1507928	,	0
18,47	,	97519	,	-24348	,	-22992	,	-1.5949042	,	0
18,47	,	97551	,	-24348	,	-22983	,	-2.4147682	,	0
18,47	,	97567	,	-24359	,	-22991	,	-3.4295964	,	0
18,47	,	97583	,	-24371	,	-22986	,	-4.57133	,	0
18,47	,	97614	,	-24367	,	-23009	,	-5.9416428	,	0
18,47	,	97630	,	-24371	,	-22982	,	-7.5047855	,	0
18,47	,	97647	,	-24377	,	-23002	,	-9.059669	,	0
18,47	,	97679	,	-24389	,	-23001	,	-10.492525	,	0
18,47	,	97695	,	-24378	,	-22994	,	-11.783819	,	0
18,47	,	97727	,	-24387	,	-23001	,	-12.810642	,	0
18,47	,	97743	,	-24377	,	-22999	,	-13.366574	,	0
18,47	,	97758	,	-24401	,	-22997	,	-13.375978	,	0
18,47	,	97791	,	-24390	,	-22997	,	-13.001362	,	0
18,47	,	97807	,	-24377	,	-23003	,	-12.358461	,	0
18,47	,	97823	,	-24367	,	-22988	,	-11.207752	,	0
18,47	,	97855	,	-24351	,	-22993	,	-9.137599	,	1
18,47	,	97871	,	-24338	,	-22982	,	-5.850982	,	3
18,47	,	97902	,	-24317	,	-22978	,	-1.2377071	,	6
18,47	,	97919	,	-24316	,	-22970	,	4.5634623	,	10
18,47	,	97934	,	-24301	,	-22965	,	11.091539	,	15
18,47	,	97966	,	-24306	,	-22969	,	17.636988	,	21
18,47	,	97982	,	-24299	,	-22967	,	23.405573	,	27
18,47	,	97999	,	-24311	,	-22968	,	27.659742	,	32
18,47	,	98030	,	-24298	,	-22961	,	29.898237	,	36
18,47	,	98046	,	-24300	,	-22957	,	30.049877	,	37
18,47	,	98078	,	-24294	,	-22970	,	28.455921	,	35
18,47	,	98094	,	-24298	,	-22946	,	25.627604	,	32
18,47	,	98110	,	-24300	,	-22955	,	22.029045	,	28
18,48	,	98143	,	-24300	,	-22961	,	18.010239	,	23
18,48	,	98159	,	-24288	,	-22960	,	13.925529	,	17
18,48	,	98174	,	-24297	,	-22955	,	10.193249	,	11
18,48	,	98207	,	-24291	,	-22955	,	7.106825	,	6
18,48	,	98222	,	-24289	,	-22958	,	4.7668695	,	2
18,48	,	98239	,	-24294	,	-22954	,	3.174304	,	0
18,48	,	98270	,	-24301	,	-22962	,	2.1742976	,	0
18,48	,	98286	,	-24289	,	-22960	,	1.5068645	,	0
18,48	,	98318	,	-24298	,	-22979	,	1.024686	,	0
18,48	,	98335	,	-24310	,	-22952	,	0.60021245	,	0
18,48	,	98350	,	-24317	,	-22969	,	-0.06805569	,	0
18,48	,	98382	,	-24328	,	-22972	,	-1.3146849	,	0
18,48	,	98398	,	-24319	,	-22969	,	-3.2351596	,	0
18,48	,	98414	,	-24328	,	-22971	,	-5.57999	,	0
18,48	,	98446	,	-24328	,	-22977	,	-7.9428673	,	0
18,48	,	98462	,	-24339	,	-22967	,	-10.030676	,	0
18,48	,	98494	,	-24339	,	-22976	,	-11.728879	,	0
18,48	,	98510	,	-24344	,	-22983	,	-13.013214	,	0
18,48	,	98526	,	-24339	,	-22976	,	-13.836095	,	0
18,48	,	98558	,	-24354	,	-22985	,	-14.15592	,	0
18,48	,	98574	,	-24350	,	-22983	,	-14.060006	,	0
18,48	,	98590	,	-24369	,	-22981	,	-13.763404	,	0
18,48	,	98622	,	-24359	,	-22985	,	-13.495157	,	0
18,48	,	98638	,	-24368	,	-22979	,	-13.338911	,	0
18,48	,	98654	,	-24367	,	-22986	,	-13.219889	,	0
18,48	,	98686	,	-24350	,	-22973	,	-12.951891	,	0
18,48	,	98702	,	-24346	,	-22968	,	-12.170349	,	0
18,48	,	98734	,	-24323	,	-22972	,	-10.420773	,	0
18,48	,	98750	,	-24310	,	-22959	,	-7.325348	,	1
18,48	,	98766	,	-24307	,	-22972	,	-2.7671943	,	4
18,48	,	98798	,	-24293	,	-22947	,	2.9392295	,	8
18,48	,	98814	,	-24297	,	-22951	,	9.1558	,	13
18,48	,	98830	,	-24280	,	-22955	,	15.160326	,	19
18,48	,	98862	,	-24291	,	-22950	,	20.314543	,	25
18,48	,	98878	,	-24272	,	-22947	,	24.157814	,	30
18,48	,	98910	,	-24284	,	-22951	,	26.464212	,	33
18,48	,	98926	,	-24278	,	-22952	,	27.183239	,	35
18,48	,	98942	,	-24283	,	-22949	,	26.359568	,	34
18,48	,	98974	,	-24276	,	-22946	,	24.199013	,	31
18,48	,	98990	,	-24275	,	-22941	,	21.106766	,	27
18,48	,	99006	,	-24280	,	-22962	,	17.557468	,	22
18,48	,	99038	,	-24268	,	-22930	,	13.957833	,	16
18,48	,	99054	,	-24270	,	-22947	,	10.672581	,	10
18,48	,	99070	,	-24275	,	-22945	,	7.964094	,	5
18,48	,	99102	,	-24277	,	-22947	,	5.84014	,	2
18,48	,	99118	,	-24273	,	-22945	,	4.160532	,	0
18,49	,	99150	,	-24270	,	-22948	,	2.8527763	,	0
18,49	,	99166	,	-24281	,	-22960	,	1.8890109	,	0
18,49	,	99182	,	-24285	,	-22950	,	1.111724	,	0
18,49	,	99214	,	-24277	,	-22960	,	0.31478643	,	0
18,49	,	99230	,	-24299	,	-22962	,	-0.60850734	,	0
18,49	,	99246	,	-24294	,	-22967	,	-1.7738729	,	0
18,49	,	99278	,	-24303	,	-22957	,	-3.2713945	,	0
18,49	,	99294	,	-24300	,	-22963	,	-5.012698	,	0
18,49	,	99326	,	-24313	,	-22966	,	-6.822399	,	0
18,49	,	99342	,	-24314	,	-22966	,	-8.58977	,	0
18,49	,	99358	,	-24314	,	-22976	,	-10.231626	,	0
18,49	,	99390	,	-24311	,	-22974	,	-11.559738	,	0
18,49	,	99406	,	-24322	,	-22984	,	-12.363528	,	0
18,49	,	99422	,	-24325	,	-22979	,	-12.63672	,	0
18,49	,	99454	,	-24328	,	-22985	,	-12.556705	,	0
18,49	,	99470	,	-24330	,	-22994	,	-12.2878475	,	0
18,49	,	99502	,	-24335	,	-22979	,	-11.927563	,	0
18,49	,	99518	,	-24345	,	-22988	,	-11.589938	,	0
18,49	,	99534	,	-24341	,	-22989	,	-11.398746	,	0
18,49	,	99566	,	-24341	,	-22990	,	-11.335627	,	0
18,49	,	99582	,	-24353	,	-22986	,	-11.2765045	,	0
18,49	,	99598	,	-24343	,	-22983	,	-11.1592	,	0
18,49	,	99630	,	-24330	,	-22981	,	-10.830833	,	0
18,49	,	99646	,	-24310	,	-22968	,	-9.850627	,	0
18,49	,	99662	,	-24318	,	-22976	,	-7.7617726	,	0
18,49	,	99694	,	-24290	,	-22965	,	-4.4519014	,	2
18,49	,	99710	,	-24288	,	-22979	,	-0.06139469	,	5
18,49	,	99742	,	-24275	,	-22944	,	5.153638	,	9
18,49	,	99758	,	-24280	,	-22958	,	10.717308	,	14
18,49	,	99774	,	-24290	,	-22957	,	15.874311	,	19
18,49	,	99806	,	-24273	,	-22962	,	19.820057	,	24
18,49	,	99822	,	-24274	,	-22951	,	22.159582	,	27
18,49	,	99838	,	-24273	,	-22959	,	22.965069	,	29
18,49	,	99870	,	-24273	,	-22964	,	22.449842	,	29
18,49	,	99886	,	-24268	,	-22965	,	20.871176	,	27
18,49	,	99918	,	-24279	,	-22953	,	18.524368	,	24
18,49	,	99934	,	-24267	,	-22954	,	15.680307	,	20
18,49	,	99950	,	-24276	,	-22956	,	12.625126	,	15
18,49	,	99981	,	-24276	,	-22948	,	9.617965	,	10
18,49	,	99997	,	-24268	,	-22956	,	6.8388004	,	5
18,49	,	100013	,	-24279	,	-22946	,	4.4404373	,	2
18,49	,	100046	,	-24266	,	-22949	,	2.5174513	,	0
18,49	,	100062	,	-24285	,	-22954	,	1.0629432	,	0
18,49	,	100078	,	-24280	,	-22949	,	-0.06996608	,	0
18,49	,	100110	,	-24289	,	-22953	,	-1.1029617	,	0
18,50	,	100126	,	-24285	,	-22954	,	-2.1572092	,	0
18,50	,	100157	,	-24298	,	-22957	,	-3.2599597	,	0
18,50	,	100173	,	-24297	,	-22961	,	-4.44963	,	0
18,50	,	100189	,	-24316	,	-22952	,	-5.81234	,	0
18,50	,	100221	,	-24311	,	-22969	,	-7.443655	,	0
18,50	,	100238	,	-24313	,	-22973	,	-9.282436	,	0
18,50	,	100254	,	-24316	,	-22966	,	-11.050294	,	0
18,50	,	100285	,	-24318	,	-22970	,	-12.452359	,	0
18,50	,	100302	,	-24325	,	-22974	,	-13.344183	,	0
18,50	,	100333	,	-24333	,	-22973	,	-13.773476	,	0
18,50	,	100349	,	-24345	,	-22980	,	-13.972813	,	0
18,50	,	100365	,	-24343	,	-22976	,	-14.218271	,	0
18,50	,	100397	,	-24351	,	-22982	,	-14.626503	,	0
18,50	,	100413	,	-24355	,	-23005	,	-15.145491	,	0
18,50	,	100430	,	-24351	,	-22973	,	-15.639093	,	0
18,50	,	100461	,	-24355	,	-22997	,	-15.896074	,	0
18,50	,	100477	,	-24370	,	-22993	,	-15.798283	,	0
18,50	,	100493	,	-24374	,	-22999	,	-15.505436	,	0
18,50	,	100526	,	-24365	,	-22998	,	-15.219206	,	0
18,50	,	100542	,	-24360	,	-23001	,	-14.834221	,	0
18,50	,	100573	,	-24360	,	-22998	,	-14.037962	,	0
18,50	,	100589	,	-24342	,	-22987	,	-12.563346	,	0
18,50	,	100605	,	-24336	,	-22980	,	-10.191672	,	1
18,50	,	100638	,	-24327	,	-22978	,	-6.8004985	,	3
18,50	,	100654	,	-24316	,	-22992	,	-2.4870625	,	6
18,50	,	100670	,	-24317	,	-22966	,	2.4346957	,	10
18,50	,	100701	,	-24302	,	-22979	,	7.5120125	,	14
18,50	,	100717	,	-24303	,	-22974	,	12.302189	,	19
18,50	,	100749	,	-24297	,	-22968	,	16.438725	,	23
18,50	,	100765	,	-24315	,	-22974	,	19.524282	,	27
18,50	,	100781	,	-24309	,	-22974	,	21.115925	,	30
18,50	,	100813	,	-24310	,	-22973	,	20.976545	,	30
18,50	,	100829	,	-24310	,	-22978	,	19.263935	,	28
18,50	,	100845	,	-24306	,	-22975	,	16.419964	,	25
18,50	,	100877	,	-24301	,	-22983	,	13.030302	,	21
18,50	,	100893	,	-24312	,	-22967	,	9.648357	,	17
18,50	,	100909	,	-24312	,	-22970	,	6.5605154	,	12
18,50	,	100941	,	-24312	,	-22968	,	3.831931	,	8
18,50	,	100957	,	-24307	,	-22966	,	1.5365639	,	4
18,50	,	100989	,	-24313	,	-22970	,	-0.21519208	,	1
18,50	,	101005	,	-24303	,	-22975	,	-1.364531	,	0
18,50	,	101021	,	-24312	,	-22971	,	-1.9155949	,	0
18,50	,	101053	,	-24321	,	-22970	,	-2.0243924	,	0
18,50	,	101069	,	-24325	,	-22981	,	-2.0537446	,	0
18,50	,	101085	,	-24323	,	-22982	,	-2.3346605	,	0
18,50	,	101117	,	-24332	,	-22998	,	-2.9666457	,	0
18,51	,	101133	,	-24332	,	-22958	,	-3.9089198	,	0
18,51	,	101165	,	-24330	,	-22980	,	-5.040765	,	0
18,51	,	101181	,	-24347	,	-22989	,	-6.210178	,	0
18,51	,	101197	,	-24341	,	-22991	,	-7.375268	,	0
18,51	,	101229	,	-24333	,	-22993	,	-8.458122	,	0
18,51	,	101245	,	-24355	,	-22987	,	-9.263725	,	0
18,51	,	101261	,	-24354	,	-22998	,	-9.8005	,	0
18,51	,	101293	,	-24353	,	-22998	,	-10.242934	,	0
18,51	,	101309	,	-24363	,	-22999	,	-10.640529	,	0
18,51	,	101325	,	-24361	,	-23001	,	-10.975637	,	0
18,51	,	101357	,	-24361	,	-23012	,	-11.214424	,	0
18,51	,	101373	,	-24364	,	-22991	,	-11.259026	,	0
18,51	,	101405	,	-24368	,	-22997	,	-11.04911	,	0
18,51	,	101421	,	-24362	,	-22995	,	-10.595566	,	0
18,51	,	101437	,	-24351	,	-23004	,	-9.821325	,	0
18,51	,	101469	,	-24331	,	-22989	,	-8.433809	,	0
18,51	,	101485	,	-24334	,	-22993	,	-6.0827417	,	1
18,51	,	101501	,	-24333	,	-22989	,	-2.75246	,	3
18,51	,	101533	,	-24327	,	-22980	,	1.1380644	,	6
18,51	,	101549	,	-24319	,	-22980	,	5.081631	,	9
18,51	,	101581	,	-24333	,	-22987	,	8.656704	,	12
18,51	,	101597	,	-24335	,	-22977	,	11.386726	,	15
18,51	,	101613	,	-24340	,	-22986	,	12.811064	,	17
18,51	,	101645	,	-24349	,	-22988	,	12.698862	,	18
18,51	,	101661	,	-24345	,	-22997	,	11.09946	,	18
18,51	,	101677	,	-24341	,	-22992	,	8.383834	,	17
18,51	,	101709	,	-24328	,	-22981	,	5.239951	,	15
18,51	,	101725	,	-24327	,	-22991	,	2.4585247	,	12
18,51	,	101741	,	-24326	,	-22980	,	0.6076257	,	9
18,51	,	101773	,	-24332	,	-22993	,	-0.18206525	,	6
18,51	,	101789	,	-24322	,	-22987	,	-0.11997163	,	3
18,51	,	101821	,	-24328	,	-23006	,	0.50148237	,	1
18,51	,	101837	,	-24343	,	-22975	,	1.3153424	,	0
18,51	,	101853	,	-24337	,	-22986	,	1.8464657	,	0
18,51	,	101885	,	-24343	,	-22992	,	1.783509	,	0
18,51	,	101901	,	-24350	,	-22998	,	1.0847161	,	0
18,51	,	101917	,	-24348	,	-22993	,	-0.1802358	,	0
18,51	,	101949	,	-24358	,	-23003	,	-1.8719265	,	0
18,51	,	101965	,	-24368	,	-22994	,	-3.8604834	,	0
18,51	,	101997	,	-24373	,	-23000	,	-6.108326	,	0
18,51	,	102013	,	-24368	,	-23001	,	-8.508514	,	0
18,51	,	102029	,	-24365	,	-23004	,	-10.720709	,	0
18,51	,	102061	,	-24372	,	-23022	,	-12.33054	,	0
18,51	,	102077	,	-24377	,	-22997	,	-13.16243	,	0
18,51	,	102093	,	-24381	,	-23003	,	-13.33313	,	0
18,52	,	102125	,	-24383	,	-23013	,	-13.062573	,	0
18,52	,	102141	,	-24377	,	-23011	,	-12.495654	,	0
18,52	,	102172	,	-24401	,	-23017	,	-11.742572	,	0
18,52	,	102189	,	-24408	,	-23013	,	-11.112495	,	0
18,52	,	102205	,	-24402	,	-23007	,	-10.9752865	,	0
18,52	,	102237	,	-24392	,	-23003	,	-11.282652	,	0
18,52	,	102253	,	-24382	,	-23004	,	-11.505182	,	0
18,52	,	102269	,	-24369	,	-23006	,	-10.976788	,	0
18,52	,	102301	,	-24363	,	-22982	,	-9.211632	,	0
18,52	,	102317	,	-24350	,	-22995	,	-6.0666394	,	1
18,52	,	102333	,	-24338	,	-22987	,	-1.6899657	,	4
18,52	,	102364	,	-24343	,	-23014	,	3.541246	,	8
18,52	,	102380	,	-24344	,	-22981	,	8.9451065	,	13
18,52	,	102413	,	-24339	,	-22984	,	13.694325	,	18
18,52	,	102429	,	-24341	,	-22988	,	17.180983	,	22
18,52	,	102445	,	-24349	,	-22985	,	19.086208	,	25
18,52	,	102476	,	-24344	,	-22992	,	19.292353	,	26
18,52	,	102492	,	-24361	,	-22992	,	17.87506	,	26
18,52	,	102509	,	-24358	,	-23007	,	15.039752	,	25
18,52	,	102541	,	-24345	,	-22974	,	11.208401	,	22
18,52	,	102557	,	-24340	,	-22980	,	7.1510916	,	18
18,52	,	102588	,	-24347	,	-22980	,	3.6568494	,	13
18,52	,	102605	,	-24337	,	-22975	,	1.1415935	,	8
18,52	,	102621	,	-24340	,	-22986	,	-0.29513454	,	4
18,52	,	102652	,	-24345	,	-22986	,	-0.7660743	,	1
18,52	,	102669	,	-24352	,	-22997	,	-0.6325611	,	0
18,52	,	102685	,	-24348	,	-22991	,	-0.34460428	,	0
18,52	,	102717	,	-24364	,	-23004	,	-0.24301636	,	0
18,52	,	102733	,	-24369	,	-23002	,	-0.61517656	,	0
18,52	,	102749	,	-24376	,	-23006	,	-1.700953	,	0
18,52	,	102781	,	-24366	,	-22995	,	-3.4714227	,	0
18,52	,	102796	,	-24381	,	-22993	,	-5.5893817	,	0
18,52	,	102828	,	-24387	,	-23005	,	-7.739617	,	0
18,52	,	102844	,	-24394	,	-23002	,	-9.829489	,	0
18,52	,	102861	,	-24390	,	-23002	,	-11.794878	,	0
18,52	,	102892	,	-24397	,	-23001	,	-13.448803	,	0
18,52	,	102908	,	-24397	,	-23006	,	-14.596775	,	0
18,52	,	102924	,	-24405	,	-23012	,	-15.1712675	,	0
18,52	,	102956	,	-24405	,	-23011	,	-15.236467	,	0
18,52	,	102972	,	-24404	,	-23018	,	-14.887629	,	0
18,52	,	103004	,	-24414	,	-22999	,	-14.205224	,	0
18,52	,	103020	,	-24418	,	-23013	,	-13.35098	,	0
18,52	,	103036	,	-24410	,	-23015	,	-12.496859	,	0
18,52	,	103069	,	-24395	,	-23010	,	-11.541125	,	0
18,52	,	103085	,	-24376	,	-23014	,	-10.032667	,	0
18,52	,	103101	,	-24371	,	-22998	,	-7.45445	,	1
18,53	,	103132	,	-24356	,	-22998	,	-3.5826917	,	3
18,53	,	103148	,	-24352	,	-22984	,	1.4075847	,	6
18,53	,	103164	,	-24343	,	-22982	,	7.047927	,	10
18,53	,	103196	,	-24327	,	-22986	,	12.787984	,	15
18,53	,	103212	,	-24331	,	-22996	,	18.161835	,	20
18,53	,	103244	,	-24332	,	-22969	,	22.684174	,	25
18,53	,	103261	,	-24333	,	-22976	,	25.809122	,	29
18,53	,	103276	,	-24329	,	-22977	,	27.175308	,	32
18,53	,	103308	,	-24344	,	-22974	,	26.706118	,	32
18,53	,	103324	,	-24334	,	-22982	,	24.51903	,	30
18,53	,	103340	,	-24336	,	-22977	,	20.980637	,	27
18,53	,	103372	,	-24325	,	-22972	,	16.735678	,	23
18,53	,	103388	,	-24320	,	-22976	,	12.542019	,	18
18,53	,	103420	,	-24311	,	-22972	,	9.085883	,	13
18,53	,	103436	,	-24327	,	-22980	,	6.734363	,	8
18,53	,	103453	,	-24324	,	-22982	,	5.344873	,	4
18,53	,	103485	,	-24317	,	-22969	,	4.530281	,	1
18,53	,	103500	,	-24317	,	-22975	,	4.0692534	,	0
18,53	,	103516	,	-24333	,	-22972	,	3.816246	,	0
18,53	,	103548	,	-24309	,	-22973	,	3.5667288	,	0
18,53	,	103564	,	-24332	,	-22979	,	3.2375736	,	0
18,53	,	103580	,	-24332	,	-22978	,	2.7543092	,	0
18,53	,	103612	,	-24347	,	-22972	,	1.8664957	,	0
18,53	,	103628	,	-24344	,	-22978	,	0.35318923	,	0
18,53	,	103660	,	-24350	,	-22980	,	-1.756959	,	0
18,53	,	103676	,	-24352	,	-22990	,	-4.210695	,	0
18,53	,	103692	,	-24342	,	-22982	,	-6.6286626	,	0
18,53	,	103724	,	-24360	,	-22985	,	-8.6292715	,	0
18,53	,	103740	,	-24374	,	-22989	,	-10.133309	,	0
18,53	,	103756	,	-24372	,	-22989	,	-11.407009	,	0
18,53	,	103788	,	-24370	,	-22979	,	-12.616154	,	0
18,53	,	103804	,	-24364	,	-22984	,	-13.575265	,	0
18,53	,	103836	,	-24382	,	-22995	,	-14.0204935	,	0
18,53	,	103852	,	-24380	,	-23002	,	-13.96066	,	0
18,53	,	103868	,	-24385	,	-22999	,	-13.602582	,	0
18,53	,	103900	,	-24382	,	-23000	,	-13.077463	,	0
18,53	,	103916	,	-24380	,	-23009	,	-12.372499	,	0
18,53	,	103932	,	-24365	,	-22971	,	-11.335494	,	0
18,53	,	103964	,	-24341	,	-22979	,	-9.607412	,	1
18,53	,	103980	,	-24340	,	-22981	,	-6.738618	,	2
18,53	,	103996	,	-24332	,	-22976	,	-2.5990176	,	4
18,53	,	104028	,	-24317	,	-22968	,	2.5012083	,	8
18,53	,	104044	,	-24312	,	-22974	,	8.097089	,	13
18,53	,	104076	,	-24300	,	-22966	,	13.721517	,	18
18,53	,	104092	,	-24305	,	-22971	,	18.888971	,	23
18,53	,	104108	,	-24304	,	-22960	,	23.067066	,	28
18,54	,	104140	,	-24303	,	-22962	,	25.763899	,	32
18,54	,	104156	,	-24308	,	-22975	,	26.707859	,	33
18,54	,	104172	,	-24312	,	-22948	,	25.865547	,	32
18,54	,	104204	,	-24314	,	-22960	,	23.389217	,	30
18,54	,	104220	,	-24301	,	-22970	,	19.691216	,	26
18,54	,	104252	,	-24294	,	-22959	,	15.496915	,	21
18,54	,	104268	,	-24291	,	-22959	,	11.623524	,	16
18,54	,	104284	,	-24294	,	-22969	,	8.605306	,	11
18,54	,	104316	,	-24302	,	-22961	,	6.514644	,	6
18,54	,	104332	,	-24297	,	-22960	,	5.097637	,	2
18,54	,	104348	,	-24298	,	-22958	,	4.0722365	,	0
18,54	,	104380	,	-24302	,	-22963	,	3.2600565	,	0
18,54	,	104396	,	-24304	,	-22965	,	2.5177	,	0
18,54	,	104428	,	-24303	,	-22960	,	1.7364414	,	0
18,54	,	104444	,	-24316	,	-22973	,	0.844363	,	0
18,54	,	104460	,	-24327	,	-22975	,	-0.31974566	,	0
18,54	,	104492	,	-24324	,	-22965	,	-1.9522233	,	0
18,54	,	104508	,	-24334	,	-22976	,	-4.0468807	,	0
18,54	,	104523	,	-24330	,	-22969	,	-6.380637	,	0
18,54	,	104556	,	-24343	,	-22976	,	-8.679156	,	0
18,54	,	104572	,	-24328	,	-22975	,	-10.684873	,	0
18,54	,	104588	,	-24340	,	-22982	,	-12.129812	,	0
18,54	,	104620	,	-24347	,	-22990	,	-12.877928	,	0
18,54	,	104636	,	-24344	,	-22966	,	-13.047547	,	0
18,54	,	104668	,	-24356	,	-22983	,	-12.849783	,	0
18,54	,	104684	,	-24352	,	-22981	,	-12.471317	,	0
18,54	,	104700	,	-24362	,	-22986	,	-12.051317	,	0
18,54	,	104732	,	-24370	,	-22995	,	-11.712198	,	0
18,54	,	104748	,	-24376	,	-22991	,	-11.623703	,	0
18,54	,	104764	,	-24370	,	-22991	,	-11.861522	,	0
18,54	,	104796	,	-24368	,	-22993	,	-12.231159	,	0
18,54	,	104812	,	-24349	,	-22987	,	-12.288534	,	0
18,54	,	104844	,	-24334	,	-22980	,	-11.445272	,	0
18,54	,	104860	,	-24326	,	-22987	,	-9.1862755	,	0
18,54	,	104876	,	-24324	,	-22959	,	-5.405882	,	2
18,54	,	104907	,	-24310	,	-22965	,	-0.47182274	,	5
18,54	,	104923	,	-24306	,	-22965	,	5.0529103	,	9
18,54	,	104940	,	-24295	,	-22963	,	10.621588	,	14
18,54	,	104972	,	-24296	,	-22962	,	15.739548	,	19
18,54	,	104988	,	-24288	,	-22964	,	19.975975	,	24
18,54	,	105004	,	-24288	,	-22951	,	23.017288	,	28
18,54	,	105035	,	-24300	,	-22965	,	24.644024	,	31
18,54	,	105052	,	-24298	,	-22966	,	24.660597	,	32
18,54	,	105084	,	-24298	,	-22960	,	23.035938	,	30
18,54	,	105100	,	-24302	,	-22955	,	20.040888	,	27
18,54	,	105116	,	-24295	,	-22955	,	16.158531	,	23
18,55	,	105148	,	-24276	,	-22957	,	12.066127	,	18
18,55	,	105164	,	-24286	,	-22957	,	8.535693	,	13
18,55	,	105179	,	-24298	,	-22955	,	5.947156	,	8
18,55	,	105211	,	-24295	,	-22954	,	4.093271	,	4
18,55	,	105227	,	-24301	,	-22957	,	2.6093488	,	1
18,55	,	105259	,	-24287	,	-22956	,	1.3382282	,	0
18,55	,	105276	,	-24311	,	-22953	,	0.26326573	,	0
18,55	,	105292	,	-24300	,	-22956	,	-0.7175318	,	0
18,55	,	105323	,	-24298	,	-22972	,	-1.6835258	,	0
18,55	,	105339	,	-24310	,	-22947	,	-2.5580409	,	0
18,55	,	105355	,	-24318	,	-22968	,	-3.3690228	,	0
18,55	,	105387	,	-24310	,	-22963	,	-4.26229	,	0
18,55	,	105403	,	-24326	,	-22957	,	-5.2677565	,	0
18,55	,	105419	,	-24319	,	-22971	,	-6.3407063	,	0
18,55	,	105451	,	-24325	,	-22980	,	-7.402265	,	0
18,55	,	105467	,	-24341	,	-22962	,	-8.39721	,	0
18,55	,	105499	,	-24336	,	-22975	,	-9.411277	,	0
18,55	,	105515	,	-24342	,	-22980	,	-10.490534	,	0
18,55	,	105531	,	-24341	,	-22982	,	-11.499197	,	0
18,55	,	105563	,	-24344	,	-22992	,	-12.252369	,	0
18,55	,	105580	,	-24341	,	-22969	,	-12.604483	,	0
18,55	,	105596	,	-24364	,	-22979	,	-12.556358	,	0
18,55	,	105627	,	-24371	,	-22989	,	-12.411132	,	0
18,55	,	105643	,	-24374	,	-22989	,	-12.586079	,	0
18,55	,	105675	,	-24369	,	-22990	,	-13.193565	,	0
18,55	,	105691	,	-24359	,	-22982	,	-13.908285	,	0
18,55	,	105707	,	-24346	,	-22987	,	-14.125713	,	0
18,55	,	105739	,	-24334	,	-22982	,	-13.2145	,	0
18,55	,	105755	,	-24310	,	-22972	,	-10.706095	,	0
18,55	,	105771	,	-24314	,	-22970	,	-6.440206	,	2
18,55	,	105803	,	-24314	,	-22962	,	-0.80627346	,	6
18,55	,	105819	,	-24314	,	-22965	,	5.281418	,	11
18,55	,	105835	,	-24304	,	-22959	,	10.866808	,	17
18,55	,	105867	,	-24314	,	-22960	,	15.298643	,	22
18,55	,	105883	,	-24306	,	-22969	,	18.192303	,	26
18,55	,	105915	,	-24310	,	-22965	,	19.406187	,	28
18,55	,	105931	,	-24315	,	-22961	,	19.034552	,	29
18,55	,	105947	,	-24303	,	-22967	,	17.350471	,	29
18,55	,	105979	,	-24311	,	-22964	,	14.800827	,	27
18,55	,	105995	,	-24312	,	-22967	,	11.842853	,	23
18,55	,	106011	,	-24307	,	-22967	,	8.8056555	,	18
18,55	,	106043	,	-24307	,	-22940	,	5.9774446	,	12
18,55	,	106059	,	-24304	,	-22967	,	3.6155024	,	7
18,55	,	106091	,	-24308	,	-22962	,	1.8603458	,	3
18,55	,	106107	,	-24307	,	-22961	,	0.70173335	,	1
18,55	,	106123	,	-24310	,	-22963	,	0.014198661	,	0
18,56	,	106155	,	-24315	,	-22962	,	-0.38677597	,	0
18,56	,	106171	,	-24322	,	-22965	,	-0.73380136	,	0
18,56	,	106187	,	-24323	,	-22965	,	-1.2610438	,	0
18,56	,	106219	,	-24325	,	-22962	,	-2.082953	,	0
18,56	,	106235	,	-24322	,	-22968	,	-3.1210942	,	0
18,56	,	106267	,	-24333	,	-22972	,	-4.203422	,	0
18,56	,	106283	,	-24336	,	-22953	,	-5.2621765	,	0
18,56	,	106299	,	-24340	,	-22967	,	-6.34384	,	0
18,56	,	106331	,	-24347	,	-22959	,	-7.4778495	,	0
18,56	,	106347	,	-24348	,	-22970	,	-8.649166	,	0
18,56	,	106363	,	-24363	,	-22971	,	-9.852314	,	0
18,56	,	106395	,	-24351	,	-22980	,	-11.070873	,	0
18,56	,	106411	,	-24344	,	-22975	,	-12.085671	,	0
18,56	,	106443	,	-24345	,	-22985	,	-12.482824	,	0
18,56	,	106459	,	-24347	,	-22986	,	-12.006819	,	0
18,56	,	106475	,	-24374	,	-23004	,	-10.852329	,	0
18,56	,	106507	,	-24372	,	-22977	,	-9.638657	,	1
18,56	,	106523	,	-24377	,	-22990	,	-8.960503	,	2
18,56	,	106539	,	-24390	,	-22995	,	-9.0458355	,	2
18,56	,	106571	,	-24377	,	-22985	,	-9.81669	,	2
18,56	,	106587	,	-24375	,	-22992	,	-10.8834305	,	2
18,56	,	106603	,	-24361	,	-22984	,	-11.607236	,	2
18,56	,	106635	,	-24351	,	-22985	,	-11.355339	,	2
18,56	,	106651	,	-24347	,	-22975	,	-9.726007	,	2
18,56	,	106683	,	-24341	,	-22974	,	-6.712042	,	3
18,56	,	106699	,	-24333	,	-22968	,	-2.6500106	,	5
18,56	,	106715	,	-24342	,	-22979	,	1.9205523	,	8
18,56	,	106747	,	-24327	,	-22969	,	6.3629637	,	12
18,56	,	106763	,	-24325	,	-22961	,	10.199945	,	16
18,56	,	106779	,	-24322	,	-22973	,	13.232681	,	19
18,56	,	106811	,	-24329	,	-22969	,	15.335848	,	22
18,56	,	106827	,	-24340	,	-22972	,	16.285246	,	24
18,56	,	106859	,	-24326	,	-22967	,	15.9003105	,	24
18,56	,	106875	,	-24316	,	-22970	,	14.408661	,	23
18,56	,	106891	,	-24331	,	-22979	,	12.372202	,	20
18,56	,	106923	,	-24333	,	-22968	,	10.144335	,	16
18,56	,	106938	,	-24317	,	-22975	,	7.8437085	,	12
18,56	,	106954	,	-24316	,	-22961	,	5.7496214	,	8
18,56	,	106987	,	-24324	,	-22968	,	4.182625	,	5
18,56	,	107003	,	-24335	,	-22970	,	3.1050973	,	2
18,56	,	107019	,	-24332	,	-22975	,	2.1805649	,	0
18,56	,	107051	,	-24337	,	-22972	,	1.1394193	,	0
18,56	,	107067	,	-24336	,	-22978	,	-0.074719906	,	0
18,56	,	107099	,	-24348	,	-22978	,	-1.4301447	,	0
18,56	,	107115	,	-24339	,	-22973	,	-2.8823404	,	0
18,57	,	107131	,	-24346	,	-22973	,	-4.299839	,	0
18,57	,	107163	,	-24350	,	-22981	,	-5.526161	,	0
18,57	,	107179	,	-24343	,	-22995	,	-6.479878	,	0
18,57	,	107195	,	-24361	,	-22971	,	-7.1365385	,	0
18,57	,	107227	,	-24362	,	-22989	,	-7.613267	,	0
18,57	,	107243	,	-24361	,	-22987	,	-8.097921	,	0
18,57	,	107274	,	-24365	,	-22991	,	-8.616332	,	0
18,57	,	107291	,	-24373	,	-22985	,	-9.102411	,	0
18,57	,	107307	,	-24368	,	-22990	,	-9.531166	,	0
18,57	,	107339	,	-24384	,	-22990	,	-9.899728	,	0
18,57	,	107355	,	-24380	,	-22985	,	-10.251097	,	0
18,57	,	107370	,	-24376	,	-22987	,	-10.575556	,	0
18,57	,	107403	,	-24392	,	-22997	,	-10.761973	,	0
18,57	,	107419	,	-24388	,	-23000	,	-10.808798	,	0
18,57	,	107450	,	-24386	,	-22988	,	-10.771678	,	0
18,57	,	107466	,	-24366	,	-22980	,	-10.469012	,	0
18,57	,	107482	,	-24362	,	-22994	,	-9.474409	,	0
18,57	,	107515	,	-24347	,	-22980	,	-7.397471	,	0
18,57	,	107531	,	-24352	,	-22978	,	-4.1622343	,	2
18,57	,	107547	,	-24347	,	-22984	,	-0.10769081	,	5
18,57	,	107578	,	-24342	,	-22983	,	4.1868973	,	9
18,57	,	107594	,	-24348	,	-22980	,	8.157211	,	13
18,57	,	107610	,	-24349	,	-22980	,	11.298741	,	16
18,57	,	107643	,	-24363	,	-22994	,	13.156895	,	19
18,57	,	107658	,	-24349	,	-22978	,	13.479441	,	20
18,57	,	107690	,	-24366	,	-22982	,	12.359617	,	20
18,57	,	107706	,	-24356	,	-22980	,	10.124457	,	20
18,57	,	107722	,	-24359	,	-22987	,	7.213532	,	18
18,57	,	107754	,	-24354	,	-22983	,	4.1599803	,	15
18,57	,	107770	,	-24350	,	-22974	,	1.4749079	,	11
18,57	,	107786	,	-24357	,	-22982	,	-0.5003021	,	7
18,57	,	107819	,	-24370	,	-22981	,	-1.763739	,	4
18,57	,	107835	,	-24362	,	-22982	,	-2.608759	,	1
18,57	,	107866	,	-24360	,	-22986	,	-3.2448287	,	0
18,57	,	107882	,	-24371	,	-23007	,	-3.6889236	,	0
18,57	,	107898	,	-24374	,	-22972	,	-4.023511	,	0
18,57	,	107930	,	-24387	,	-22987	,	-4.47563	,	0
18,57	,	107946	,	-24380	,	-22996	,	-5.2418423	,	0
18,57	,	107962	,	-24382	,	-22993	,	-6.285583	,	0
18,57	,	107994	,	-24386	,	-22999	,	-7.3669558	,	0
18,57	,	108010	,	-24395	,	-23001	,	-8.311243	,	0
18,57	,	108026	,	-24393	,	-22999	,	-9.106246	,	0
18,57	,	108058	,	-24392	,	-22999	,	-9.733342	,	0
18,57	,	108074	,	-24386	,	-23004	,	-10.047237	,	0
18,57	,	108106	,	-24396	,	-23009	,	-9.895802	,	0
18,57	,	108123	,	-24403	,	-23020	,	-9.3451	,	0
18,58	,	108138	,	-24397	,	-22995	,	-8.637545	,	0
18,58	,	108170	,	-24412	,	-23003	,	-7.9760084	,	0
18,58	,	108186	,	-24407	,	-23005	,	-7.510244	,	0
18,58	,	108202	,	-24407	,	-22998	,	-7.292402	,	0
18,58	,	108234	,	-24391	,	-22996	,	-7.1198044	,	0
18,58	,	108250	,	-24388	,	-23002	,	-6.590544	,	0
18,58	,	108282	,	-24383	,	-22997	,	-5.3670907	,	0
18,58	,	108298	,	-24375	,	-22991	,	-3.3526628	,	1
18,58	,	108314	,	-24365	,	-22987	,	-0.6160202	,	3
18,58	,	108346	,	-24376	,	-22995	,	2.6284013	,	5
18,58	,	108362	,	-24372	,	-22981	,	5.913091	,	8
18,58	,	108378	,	-24367	,	-22989	,	8.70614	,	11
18,58	,	108410	,	-24374	,	-22978	,	10.68281	,	13
18,58	,	108426	,	-24378	,	-22990	,	11.658127	,	14
18,58	,	108442	,	-24370	,	-22989	,	11.55575	,	14
18,58	,	108474	,	-24375	,	-22996	,	10.537518	,	14
18,58	,	108490	,	-24376	,	-22991	,	8.906649	,	13
18,58	,	108522	,	-24384	,	-22992	,	6.8965125	,	11
18,58	,	108538	,	-24379	,	-22996	,	4.656324	,	9
18,58	,	108554	,	-24382	,	-22997	,	2.3681436	,	6
18,58	,	108586	,	-24383	,	-23011	,	0.25072885	,	3
18,58	,	108602	,	-24385	,	-22979	,	-1.5387857	,	1
18,58	,	108618	,	-24384	,	-22996	,	-2.9227004	,	0
18,58	,	108650	,	-24378	,	-23001	,	-3.837228	,	0
18,58	,	108666	,	-24388	,	-22994	,	-4.240729	,	0
18,58	,	108698	,	-24392	,	-23007	,	-4.247657	,	0
18,58	,	108714	,	-24389	,	-22996	,	-4.10161	,	0
18,58	,	108730	,	-24396	,	-23002	,	-3.9836812	,	0
18,58	,	108762	,	-24399	,	-22998	,	-4.0019894	,	0
18,58	,	108778	,	-24406	,	-22996	,	-4.2629223	,	0
18,58	,	108794	,	-24404	,	-23005	,	-4.819865	,	0
18,58	,	108826	,	-24402	,	-23014	,	-5.575514	,	0
18,58	,	108842	,	-24415	,	-22992	,	-6.3535786	,	0
18,58	,	108858	,	-24427	,	-23012	,	-7.157097	,	0
18,58	,	108890	,	-24423	,	-23013	,	-8.152071	,	0
18,58	,	108906	,	-24424	,	-23001	,	-9.334729	,	0
18,58	,	108938	,	-24415	,	-23011	,	-10.419445	,	0
18,58	,	108954	,	-24425	,	-23004	,	-11.058189	,	0
18,58	,	108970	,	-24403	,	-23009	,	-11.004972	,	0
18,58	,	109002	,	-24399	,	-22997	,	-10.023111	,	0
18,58	,	109018	,	-24374	,	-22996	,	-7.829517	,	0
18,58	,	109034	,	-24374	,	-22994	,	-4.2544303	,	2
18,58	,	109066	,	-24370	,	-22976	,	0.5158467	,	5
18,58	,	109082	,	-24355	,	-22982	,	5.9364243	,	9
18,58	,	109114	,	-24359	,	-22982	,	11.390064	,	14
18,59	,	109130	,	-24355	,	-22976	,	16.288519	,	19
18,59	,	109146	,	-24357	,	-22968	,	20.070112	,	23
18,59	,	109178	,	-24347	,	-22976	,	22.386168	,	26
18,59	,	109194	,	-24358	,	-22968	,	23.177383	,	28
18,59	,	109210	,	-24351	,	-22972	,	22.536797	,	28
18,59	,	109242	,	-24354	,	-22976	,	20.671232	,	26
18,59	,	109258	,	-24366	,	-22969	,	17.863377	,	23
18,59	,	109274	,	-24348	,	-22982	,	14.408611	,	19
18,59	,	109306	,	-24345	,	-22959	,	10.783516	,	14
18,59	,	109322	,	-24339	,	-22966	,	7.6225224	,	9
18,59	,	109354	,	-24338	,	-22973	,	5.3837223	,	5
18,59	,	109369	,	-24341	,	-22975	,	4.1717353	,	2
18,59	,	109385	,	-24342	,	-22968	,	3.767878	,	0
18,59	,	109418	,	-24339	,	-22966	,	3.8107638	,	0
18,59	,	109434	,	-24357	,	-22976	,	3.9338226	,	0
18,59	,	109450	,	-24345	,	-22969	,	3.7893658	,	0
18,59	,	109482	,	-24353	,	-22976	,	3.2061653	,	0
18,59	,	109497	,	-24356	,	-22977	,	2.2284598	,	0
18,59	,	109530	,	-24355	,	-22986	,	0.95720875	,	0
18,59	,	109546	,	-24360	,	-22975	,	-0.48330414	,	0
18,59	,	109562	,	-24361	,	-22979	,	-1.9591361	,	0
18,59	,	109594	,	-24366	,	-22979	,	-3.3737159	,	0
18,59	,	109610	,	-24370	,	-22978	,	-4.6774025	,	0
18,59	,	109626	,	-24376	,	-22986	,	-5.8793917	,	0
18,59	,	109658	,	-24380	,	-22987	,	-7.02824	,	0
18,59	,	109673	,	-24383	,	-22992	,	-8.155507	,	0
18,59	,	109706	,	-24378	,	-22983	,	-9.193924	,	0
18,59	,	109722	,	-24377	,	-22993	,	-9.935942	,	0
18,59	,	109738	,	-24367	,	-22988	,	-10.104278	,	0
18,59	,	109770	,	-24358	,	-22967	,	-9.431961	,	0
18,59	,	109786	,	-24351	,	-22970	,	-7.7230034	,	0
18,59	,	109801	,	-24336	,	-22968	,	-4.917466	,	1
18,59	,	109833	,	-24328	,	-22962	,	-1.0862942	,	3
18,59	,	109849	,	-24322	,	-22962	,	3.5498843	,	6
18,59	,	109865	,	-24313	,	-22948	,	8.590711	,	10
18,59	,	109898	,	-24305	,	-22958	,	13.569929	,	15
18,59	,	109914	,	-24309	,	-22950	,	18.038181	,	19
18,59	,	109945	,	-24306	,	-22959	,	21.535719	,	23
18,59	,	109961	,	-24301	,	-22943	,	23.708155	,	26
18,59	,	109977	,	-24292	,	-22963	,	24.507359	,	28
18,59	,	110010	,	-24311	,	-22933	,	24.084179	,	27
18,59	,	110026	,	-24309	,	-22940	,	22.493113	,	25
18,59	,	110042	,	-24298	,	-22941	,	19.816593	,	22
