Data recorded on Wed Jul 26 10-08-21 CAT 2017
Time: 10:8:41
Time		Millis		IR PPG		Red PPG		Filtered		SSF
8,50	,	41082	,	-25307	,	-22622	,	1.9645834	,	0
8,50	,	41114	,	-25307	,	-22611	,	0.6883931	,	0
8,50	,	41131	,	-25299	,	-22612	,	-0.48277807	,	0
8,50	,	41146	,	-25295	,	-22615	,	-1.3036783	,	0
8,50	,	41178	,	-25271	,	-22605	,	-1.4475805	,	0
8,50	,	41194	,	-25283	,	-22610	,	-0.602005	,	0
8,50	,	41210	,	-25272	,	-22598	,	1.2265465	,	0
8,50	,	41242	,	-25251	,	-22602	,	3.794412	,	1
8,50	,	41258	,	-25245	,	-22596	,	6.99418	,	3
8,50	,	41274	,	-25253	,	-22605	,	10.673291	,	6
8,50	,	41306	,	-25251	,	-22579	,	14.301017	,	9
8,50	,	41322	,	-25222	,	-22592	,	17.33412	,	12
8,50	,	41354	,	-25232	,	-22590	,	19.670898	,	15
8,50	,	41370	,	-25230	,	-22575	,	21.347904	,	17
8,50	,	41386	,	-25212	,	-22578	,	22.29102	,	18
8,50	,	41418	,	-25228	,	-22582	,	22.512743	,	18
8,50	,	41434	,	-25225	,	-22584	,	21.997498	,	17
8,50	,	41450	,	-25195	,	-22578	,	20.78217	,	15
8,50	,	41482	,	-25221	,	-22576	,	19.211666	,	12
8,50	,	41498	,	-25222	,	-22576	,	17.485497	,	9
8,50	,	41530	,	-25203	,	-22584	,	15.515833	,	6
8,50	,	41546	,	-25201	,	-22571	,	13.464772	,	3
8,50	,	41562	,	-25195	,	-22575	,	11.724933	,	1
8,50	,	41594	,	-25201	,	-22575	,	10.504807	,	0
8,50	,	41610	,	-25195	,	-22577	,	9.740347	,	0
8,50	,	41626	,	-25206	,	-22579	,	9.209896	,	0
8,50	,	41658	,	-25190	,	-22575	,	8.687742	,	0
8,50	,	41674	,	-25202	,	-22587	,	8.081432	,	0
8,50	,	41706	,	-25209	,	-22572	,	7.3184752	,	0
8,50	,	41722	,	-25212	,	-22583	,	6.1986427	,	0
8,50	,	41738	,	-25209	,	-22585	,	4.5965304	,	0
8,50	,	41770	,	-25197	,	-22589	,	2.7109983	,	0
8,50	,	41786	,	-25207	,	-22586	,	0.9576955	,	0
8,50	,	41802	,	-25235	,	-22577	,	-0.52673125	,	0
8,50	,	41834	,	-25226	,	-22587	,	-2.0840337	,	0
8,50	,	41850	,	-25229	,	-22585	,	-3.9834442	,	0
8,50	,	41866	,	-25215	,	-22578	,	-5.998319	,	0
8,50	,	41898	,	-25194	,	-22582	,	-7.4996495	,	0
8,50	,	41914	,	-25191	,	-22595	,	-7.7327585	,	0
8,50	,	41946	,	-25176	,	-22564	,	-6.229408	,	0
8,50	,	41962	,	-25187	,	-22566	,	-3.0831585	,	1
8,50	,	41978	,	-25160	,	-22562	,	1.1804664	,	4
8,50	,	42010	,	-25167	,	-22557	,	5.9707956	,	8
8,50	,	42026	,	-25155	,	-22565	,	10.771973	,	12
8,50	,	42042	,	-25149	,	-22554	,	15.125421	,	16
8,50	,	42074	,	-25154	,	-22560	,	18.678236	,	20
8,51	,	42090	,	-25159	,	-22560	,	21.083723	,	23
8,51	,	42122	,	-25149	,	-22562	,	22.047266	,	25
8,51	,	42138	,	-25141	,	-22561	,	21.634815	,	25
8,51	,	42154	,	-25129	,	-22571	,	20.336288	,	24
8,51	,	42186	,	-25128	,	-22549	,	18.776127	,	21
8,51	,	42202	,	-25151	,	-22558	,	17.261887	,	17
8,51	,	42218	,	-25127	,	-22550	,	15.673364	,	13
8,51	,	42250	,	-25158	,	-22568	,	13.816917	,	9
8,51	,	42266	,	-25167	,	-22557	,	11.44799	,	5
8,51	,	42282	,	-25136	,	-22549	,	8.393425	,	2
8,51	,	42314	,	-25143	,	-22560	,	5.072357	,	0
8,51	,	42330	,	-25134	,	-22564	,	2.236793	,	0
8,51	,	42362	,	-25145	,	-22561	,	0.31716037	,	0
8,51	,	42378	,	-25148	,	-22563	,	-0.7205758	,	0
8,51	,	42394	,	-25171	,	-22578	,	-1.3030378	,	0
8,51	,	42426	,	-25141	,	-22550	,	-1.9179196	,	0
8,51	,	42442	,	-25156	,	-22564	,	-2.636401	,	0
8,51	,	42458	,	-25166	,	-22568	,	-3.3085442	,	0
8,51	,	42490	,	-25184	,	-22578	,	-4.094042	,	0
8,51	,	42506	,	-25172	,	-22570	,	-5.303303	,	0
8,51	,	42538	,	-25205	,	-22572	,	-7.041678	,	0
8,51	,	42554	,	-25168	,	-22581	,	-9.176898	,	0
8,51	,	42570	,	-25169	,	-22572	,	-11.16967	,	0
8,51	,	42602	,	-25195	,	-22581	,	-12.366588	,	0
8,51	,	42618	,	-25195	,	-22577	,	-12.743691	,	0
8,51	,	42634	,	-25198	,	-22592	,	-12.733063	,	0
8,51	,	42666	,	-25170	,	-22561	,	-12.473717	,	0
8,51	,	42682	,	-25155	,	-22565	,	-11.541527	,	0
8,51	,	42698	,	-25154	,	-22573	,	-9.346545	,	0
8,51	,	42730	,	-25152	,	-22569	,	-5.765264	,	2
8,51	,	42746	,	-25157	,	-22564	,	-1.2878461	,	5
8,51	,	42778	,	-25169	,	-22565	,	3.2283401	,	9
8,51	,	42794	,	-25161	,	-22562	,	6.898288	,	13
8,51	,	42810	,	-25139	,	-22561	,	9.316182	,	16
8,51	,	42842	,	-25163	,	-22572	,	10.648321	,	18
8,51	,	42858	,	-25169	,	-22565	,	11.012913	,	19
8,51	,	42873	,	-25154	,	-22581	,	10.326811	,	19
8,51	,	42905	,	-25144	,	-22543	,	8.861084	,	19
8,51	,	42921	,	-25149	,	-22573	,	7.243462	,	17
8,51	,	42954	,	-25135	,	-22574	,	5.9721503	,	14
8,51	,	42970	,	-25154	,	-22566	,	5.2229633	,	10
8,51	,	42986	,	-25154	,	-22574	,	4.8169184	,	6
8,51	,	43021	,	-25150	,	-22563	,	4.400293	,	3
8,51	,	43034	,	-25173	,	-22563	,	3.6949773	,	1
8,51	,	43049	,	-25179	,	-22573	,	2.4065566	,	0
8,51	,	43081	,	-25182	,	-22578	,	0.28449178	,	0
8,52	,	43097	,	-25155	,	-22576	,	-2.452483	,	0
8,52	,	43113	,	-25201	,	-22578	,	-5.2218227	,	0
8,52	,	43146	,	-25178	,	-22564	,	-7.719454	,	0
8,52	,	43162	,	-25169	,	-22580	,	-9.789032	,	0
8,52	,	43194	,	-25182	,	-22578	,	-11.04813	,	0
8,52	,	43210	,	-25186	,	-22571	,	-11.333761	,	0
8,52	,	43226	,	-25196	,	-22576	,	-10.9533615	,	0
8,52	,	43258	,	-25207	,	-22579	,	-10.41008	,	0
8,52	,	43273	,	-25196	,	-22582	,	-10.098637	,	0
8,52	,	43289	,	-25221	,	-22576	,	-10.151136	,	0
8,52	,	43321	,	-25206	,	-22579	,	-10.561264	,	0
8,52	,	43337	,	-25215	,	-22581	,	-11.198035	,	0
8,52	,	43369	,	-25204	,	-22600	,	-11.75427	,	0
8,52	,	43385	,	-25192	,	-22565	,	-11.825692	,	0
8,52	,	43401	,	-25220	,	-22582	,	-11.137329	,	0
8,52	,	43434	,	-25208	,	-22581	,	-9.855881	,	0
8,52	,	43450	,	-25177	,	-22571	,	-8.2040825	,	1
8,52	,	43465	,	-25180	,	-22567	,	-5.935746	,	2
8,52	,	43498	,	-25198	,	-22563	,	-2.8994799	,	4
8,52	,	43514	,	-25179	,	-22566	,	0.4613533	,	7
8,52	,	43529	,	-25175	,	-22562	,	3.6476276	,	10
8,52	,	43561	,	-25188	,	-22564	,	6.420479	,	13
8,52	,	43577	,	-25200	,	-22574	,	8.437278	,	15
8,52	,	43609	,	-25196	,	-22585	,	9.244673	,	17
8,52	,	43625	,	-25197	,	-22560	,	8.697912	,	17
8,52	,	43641	,	-25211	,	-22560	,	6.998005	,	16
8,52	,	43673	,	-25209	,	-22564	,	4.411878	,	15
8,52	,	43689	,	-25193	,	-22566	,	1.3374033	,	13
8,52	,	43705	,	-25190	,	-22575	,	-1.5295653	,	10
8,52	,	43737	,	-25218	,	-22569	,	-3.6303077	,	7
8,52	,	43753	,	-25221	,	-22566	,	-5.0753207	,	4
8,52	,	43785	,	-25203	,	-22575	,	-6.2505016	,	2
8,52	,	43802	,	-25212	,	-22580	,	-7.160733	,	0
8,52	,	43817	,	-25233	,	-22570	,	-7.7123566	,	0
8,52	,	43849	,	-25218	,	-22579	,	-8.103869	,	0
8,52	,	43865	,	-25213	,	-22570	,	-8.423304	,	0
8,52	,	43881	,	-25208	,	-22574	,	-8.398636	,	0
8,52	,	43913	,	-25236	,	-22579	,	-7.870322	,	0
8,52	,	43929	,	-25246	,	-22580	,	-7.2223816	,	0
8,52	,	43945	,	-25230	,	-22587	,	-7.008827	,	0
8,52	,	43977	,	-25247	,	-22577	,	-7.348942	,	0
8,52	,	43993	,	-25243	,	-22585	,	-8.052191	,	0
8,52	,	44025	,	-25257	,	-22585	,	-8.970185	,	0
8,52	,	44041	,	-25249	,	-22582	,	-9.9980545	,	0
8,52	,	44057	,	-25244	,	-22581	,	-10.92243	,	0
8,53	,	44089	,	-25254	,	-22588	,	-11.441714	,	0
8,53	,	44105	,	-25250	,	-22592	,	-11.410034	,	0
8,53	,	44121	,	-25234	,	-22582	,	-10.782563	,	0
8,53	,	44153	,	-25255	,	-22585	,	-9.503815	,	0
8,53	,	44169	,	-25256	,	-22580	,	-7.7944584	,	1
8,53	,	44201	,	-25244	,	-22579	,	-6.0757847	,	2
8,53	,	44217	,	-25246	,	-22561	,	-4.517672	,	3
8,53	,	44233	,	-25222	,	-22583	,	-2.962151	,	4
8,53	,	44265	,	-25229	,	-22580	,	-1.1174867	,	5
8,53	,	44281	,	-25231	,	-22572	,	1.1067395	,	6
8,53	,	44297	,	-25226	,	-22580	,	3.438753	,	8
8,53	,	44329	,	-25228	,	-22578	,	5.523441	,	10
8,53	,	44345	,	-25240	,	-22585	,	7.059154	,	12
8,53	,	44377	,	-25250	,	-22563	,	7.6828976	,	12
8,53	,	44393	,	-25256	,	-22573	,	7.0553155	,	11
8,53	,	44409	,	-25231	,	-22573	,	5.2292266	,	10
8,53	,	44441	,	-25230	,	-22572	,	2.8671272	,	9
8,53	,	44457	,	-25239	,	-22579	,	0.7798135	,	8
8,53	,	44473	,	-25244	,	-22570	,	-0.7034168	,	7
8,53	,	44505	,	-25263	,	-22572	,	-1.7913468	,	5
8,53	,	44521	,	-25239	,	-22569	,	-2.8207412	,	3
8,53	,	44537	,	-25254	,	-22573	,	-3.830838	,	1
8,53	,	44569	,	-25239	,	-22576	,	-4.604906	,	0
8,53	,	44585	,	-25254	,	-22581	,	-4.977868	,	0
8,53	,	44617	,	-25238	,	-22561	,	-4.920926	,	0
8,53	,	44633	,	-25267	,	-22576	,	-4.5531254	,	0
8,53	,	44649	,	-25262	,	-22573	,	-4.210108	,	0
8,53	,	44681	,	-25268	,	-22575	,	-4.257324	,	0
8,53	,	44697	,	-25273	,	-22587	,	-4.818701	,	0
8,53	,	44713	,	-25276	,	-22573	,	-5.833087	,	0
8,53	,	44745	,	-25259	,	-22580	,	-7.0700674	,	0
8,53	,	44761	,	-25287	,	-22584	,	-8.178322	,	0
8,53	,	44793	,	-25284	,	-22587	,	-9.050308	,	0
8,53	,	44809	,	-25274	,	-22579	,	-9.758406	,	0
8,53	,	44825	,	-25262	,	-22593	,	-10.096635	,	0
8,53	,	44857	,	-25287	,	-22569	,	-9.7655325	,	0
8,53	,	44873	,	-25263	,	-22582	,	-8.804355	,	0
8,53	,	44889	,	-25283	,	-22570	,	-7.439152	,	0
8,53	,	44921	,	-25268	,	-22575	,	-5.876965	,	1
8,53	,	44937	,	-25269	,	-22574	,	-4.261112	,	2
8,53	,	44953	,	-25247	,	-22566	,	-2.529682	,	3
8,53	,	44985	,	-25245	,	-22571	,	-0.4348023	,	4
8,53	,	45001	,	-25233	,	-22568	,	2.223406	,	6
8,53	,	45033	,	-25257	,	-22573	,	5.2975225	,	8
8,53	,	45049	,	-25250	,	-22562	,	8.183647	,	11
8,53	,	45065	,	-25262	,	-22577	,	10.165476	,	13
8,54	,	45097	,	-25260	,	-22553	,	10.81321	,	14
8,54	,	45113	,	-25257	,	-22563	,	10.103662	,	13
8,54	,	45129	,	-25255	,	-22568	,	8.387718	,	12
8,54	,	45161	,	-25252	,	-22563	,	6.200459	,	11
8,54	,	45177	,	-25258	,	-22566	,	4.0081096	,	10
8,54	,	45209	,	-25259	,	-22557	,	2.0608296	,	8
8,54	,	45225	,	-25248	,	-22558	,	0.47270393	,	6
8,54	,	45241	,	-25248	,	-22564	,	-0.5931121	,	3
8,54	,	45273	,	-25241	,	-22564	,	-0.96113205	,	1
8,54	,	45289	,	-25267	,	-22575	,	-0.7044339	,	0
8,54	,	45305	,	-25277	,	-22570	,	-0.3515688	,	0
8,54	,	45337	,	-25259	,	-22554	,	-0.5134953	,	0
8,54	,	45353	,	-25254	,	-22567	,	-1.2114068	,	0
8,54	,	45369	,	-25279	,	-22561	,	-2.075723	,	0
8,54	,	45401	,	-25277	,	-22554	,	-3.0315387	,	0
8,54	,	45417	,	-25286	,	-22562	,	-4.2531667	,	0
8,54	,	45449	,	-25265	,	-22560	,	-5.6898165	,	0
8,54	,	45465	,	-25280	,	-22566	,	-6.976763	,	0
8,54	,	45481	,	-25284	,	-22562	,	-7.826177	,	0
8,54	,	45513	,	-25271	,	-22572	,	-8.215235	,	0
8,54	,	45529	,	-25297	,	-22573	,	-8.217119	,	0
8,54	,	45545	,	-25302	,	-22577	,	-8.097901	,	0
8,54	,	45577	,	-25299	,	-22559	,	-8.2508335	,	0
8,54	,	45593	,	-25297	,	-22565	,	-8.758222	,	0
8,54	,	45624	,	-25291	,	-22564	,	-9.327356	,	0
8,54	,	45641	,	-25272	,	-22560	,	-9.482409	,	0
8,54	,	45657	,	-25271	,	-22559	,	-8.706972	,	0
8,54	,	45689	,	-25273	,	-22560	,	-6.760957	,	0
8,54	,	45705	,	-25270	,	-22555	,	-3.892414	,	1
8,54	,	45721	,	-25269	,	-22548	,	-0.6121516	,	3
8,54	,	45752	,	-25261	,	-22556	,	2.6226776	,	6
8,54	,	45768	,	-25255	,	-22554	,	5.5548515	,	9
8,54	,	45785	,	-25274	,	-22572	,	8.00143	,	11
8,54	,	45817	,	-25272	,	-22547	,	9.623774	,	13
8,54	,	45833	,	-25272	,	-22554	,	10.107178	,	14
8,54	,	45864	,	-25268	,	-22557	,	9.485732	,	14
8,54	,	45881	,	-25275	,	-22556	,	8.060011	,	14
8,54	,	45897	,	-25261	,	-22555	,	6.203782	,	13
8,54	,	45929	,	-25262	,	-22550	,	4.354594	,	11
8,54	,	45945	,	-25268	,	-22552	,	2.876452	,	8
8,54	,	45960	,	-25263	,	-22553	,	1.8630264	,	5
8,54	,	45993	,	-25251	,	-22553	,	1.3036518	,	3
8,54	,	46009	,	-25274	,	-22555	,	1.1888698	,	1
8,54	,	46040	,	-25270	,	-22552	,	1.2815971	,	0
8,54	,	46056	,	-25267	,	-22558	,	1.2444909	,	0
8,54	,	46072	,	-25275	,	-22543	,	0.95277935	,	0
8,55	,	46104	,	-25268	,	-22546	,	0.42939705	,	0
8,55	,	46120	,	-25278	,	-22552	,	-0.26778036	,	0
8,55	,	46136	,	-25273	,	-22542	,	-1.068139	,	0
8,55	,	46169	,	-25278	,	-22560	,	-1.8990031	,	0
8,55	,	46185	,	-25278	,	-22558	,	-2.6847692	,	0
8,55	,	46217	,	-25274	,	-22561	,	-3.3487995	,	0
8,55	,	46232	,	-25277	,	-22551	,	-3.7902079	,	0
8,55	,	46248	,	-25259	,	-22557	,	-3.8604927	,	0
8,55	,	46280	,	-25285	,	-22571	,	-3.4598153	,	0
8,55	,	46296	,	-25287	,	-22546	,	-2.8179145	,	0
8,55	,	46312	,	-25306	,	-22564	,	-2.4962387	,	0
8,55	,	46345	,	-25295	,	-22556	,	-2.950933	,	0
8,55	,	46361	,	-25291	,	-22556	,	-4.13803	,	0
8,55	,	46377	,	-25278	,	-22564	,	-5.5024505	,	0
8,55	,	46408	,	-25273	,	-22558	,	-6.3279495	,	0
8,55	,	46425	,	-25277	,	-22556	,	-6.149454	,	0
8,55	,	46456	,	-25286	,	-22550	,	-5.013074	,	0
8,55	,	46472	,	-25251	,	-22550	,	-3.2311945	,	1
8,55	,	46488	,	-25272	,	-22552	,	-0.9495363	,	2
8,55	,	46520	,	-25274	,	-22552	,	1.6055958	,	4
8,55	,	46536	,	-25276	,	-22547	,	3.8922482	,	6
8,55	,	46552	,	-25258	,	-22548	,	5.522311	,	8
8,55	,	46584	,	-25253	,	-22543	,	6.599208	,	9
8,55	,	46601	,	-25234	,	-22543	,	7.5499287	,	10
8,55	,	46632	,	-25258	,	-22548	,	8.703544	,	10
8,55	,	46648	,	-25267	,	-22549	,	9.842757	,	11
8,55	,	46665	,	-25265	,	-22550	,	10.344315	,	11
8,55	,	46696	,	-25253	,	-22547	,	9.878093	,	10
8,55	,	46712	,	-25269	,	-22544	,	8.614204	,	8
8,55	,	46728	,	-25248	,	-22545	,	6.8869805	,	6
8,55	,	46760	,	-25247	,	-22555	,	5.1216164	,	4
8,55	,	46776	,	-25270	,	-22535	,	3.6707878	,	3
8,55	,	46792	,	-25261	,	-22548	,	2.4753056	,	2
8,55	,	46824	,	-25269	,	-22547	,	1.2967665	,	2
8,55	,	46840	,	-25283	,	-22542	,	-0.021742463	,	1
8,55	,	46872	,	-25272	,	-22540	,	-1.6012778	,	0
8,55	,	46888	,	-25284	,	-22541	,	-3.3968709	,	0
8,55	,	46904	,	-25281	,	-22548	,	-5.2136965	,	0
8,55	,	46936	,	-25261	,	-22541	,	-6.757652	,	0
8,55	,	46952	,	-25285	,	-22543	,	-7.65401	,	0
8,55	,	46968	,	-25262	,	-22553	,	-7.737321	,	0
8,55	,	47000	,	-25274	,	-22555	,	-7.0684495	,	0
8,55	,	47016	,	-25289	,	-22547	,	-5.8811603	,	0
8,55	,	47048	,	-25298	,	-22550	,	-4.732561	,	1
8,55	,	47064	,	-25300	,	-22556	,	-4.23042	,	2
8,55	,	47080	,	-25311	,	-22551	,	-4.6579447	,	2
8,56	,	47113	,	-25307	,	-22553	,	-5.958989	,	2
8,56	,	47128	,	-25306	,	-22549	,	-7.790512	,	2
8,56	,	47144	,	-25292	,	-22540	,	-9.568977	,	2
8,56	,	47176	,	-25293	,	-22537	,	-10.652994	,	2
8,56	,	47192	,	-25283	,	-22549	,	-10.596945	,	2
8,56	,	47208	,	-25297	,	-22545	,	-9.337818	,	2
8,56	,	47240	,	-25267	,	-22547	,	-7.109847	,	2
8,56	,	47256	,	-25286	,	-22553	,	-4.182472	,	3
8,56	,	47288	,	-25274	,	-22530	,	-0.8907447	,	5
8,56	,	47304	,	-25280	,	-22540	,	2.3039882	,	8
8,56	,	47320	,	-25279	,	-22540	,	4.9855556	,	11
8,56	,	47352	,	-25295	,	-22534	,	6.796938	,	13
8,56	,	47368	,	-25279	,	-22539	,	7.482917	,	14
8,56	,	47384	,	-25283	,	-22537	,	7.1291056	,	14
8,56	,	47416	,	-25272	,	-22535	,	6.1526117	,	14
8,56	,	47432	,	-25271	,	-22533	,	5.0511804	,	13
8,56	,	47464	,	-25267	,	-22529	,	4.217474	,	11
8,56	,	47480	,	-25270	,	-22542	,	3.828513	,	9
8,56	,	47496	,	-25263	,	-22550	,	3.854233	,	6
8,56	,	47528	,	-25274	,	-22533	,	4.137752	,	3
8,56	,	47544	,	-25272	,	-22523	,	4.4243736	,	1
8,56	,	47560	,	-25266	,	-22535	,	4.502672	,	0
8,56	,	47592	,	-25274	,	-22522	,	4.3313017	,	0
8,56	,	47608	,	-25274	,	-22523	,	3.9140015	,	0
8,56	,	47624	,	-25291	,	-22536	,	3.1549978	,	0
8,56	,	47656	,	-25285	,	-22531	,	1.8997567	,	0
8,56	,	47672	,	-25250	,	-22531	,	0.32393146	,	0
8,56	,	47704	,	-25288	,	-22533	,	-0.9885689	,	0
8,56	,	47720	,	-25275	,	-22540	,	-1.7608759	,	0
8,56	,	47736	,	-25294	,	-22550	,	-2.2501273	,	0
8,56	,	47768	,	-25278	,	-22518	,	-2.7434554	,	0
8,56	,	47784	,	-25290	,	-22535	,	-3.2984438	,	0
8,56	,	47800	,	-25306	,	-22541	,	-3.9347582	,	0
8,56	,	47832	,	-25291	,	-22543	,	-4.7738724	,	0
8,56	,	47848	,	-25289	,	-22535	,	-5.728341	,	0
8,56	,	47880	,	-25297	,	-22542	,	-6.4720573	,	0
8,56	,	47896	,	-25275	,	-22533	,	-6.7413216	,	0
8,56	,	47912	,	-25273	,	-22534	,	-6.273507	,	0
8,56	,	47944	,	-25267	,	-22535	,	-4.8390255	,	0
8,56	,	47960	,	-25235	,	-22530	,	-2.3380637	,	1
8,56	,	47976	,	-25266	,	-22536	,	1.1923041	,	3
8,56	,	48008	,	-25266	,	-22507	,	5.2101626	,	6
8,56	,	48026	,	-25255	,	-22531	,	8.788709	,	10
8,56	,	48040	,	-25244	,	-22512	,	11.4121	,	13
8,56	,	48072	,	-25221	,	-22521	,	13.250195	,	15
8,56	,	48088	,	-25254	,	-22521	,	14.658101	,	16
8,57	,	48120	,	-25257	,	-22529	,	15.502235	,	17
8,57	,	48136	,	-25269	,	-22524	,	15.213053	,	17
8,57	,	48152	,	-25243	,	-22523	,	13.53845	,	16
8,57	,	48183	,	-25252	,	-22522	,	10.906757	,	14
8,57	,	48199	,	-25239	,	-22519	,	8.053333	,	11
8,57	,	48216	,	-25236	,	-22526	,	5.610133	,	7
8,57	,	48248	,	-25247	,	-22499	,	3.93402	,	4
8,57	,	48264	,	-25253	,	-22519	,	2.9414763	,	2
8,57	,	48296	,	-25228	,	-22508	,	2.3562284	,	1
8,57	,	48312	,	-25237	,	-22509	,	2.1588418	,	0
8,57	,	48328	,	-25237	,	-22514	,	2.406324	,	0
8,57	,	48359	,	-25219	,	-22511	,	3.0134015	,	0
8,57	,	48375	,	-25255	,	-22504	,	3.8122733	,	0
8,57	,	48392	,	-25258	,	-22515	,	4.3258386	,	0
8,57	,	48424	,	-25254	,	-22508	,	3.9487684	,	0
8,57	,	48440	,	-25237	,	-22513	,	2.6479084	,	0
8,57	,	48471	,	-25229	,	-22524	,	1.0624318	,	0
8,57	,	48488	,	-25260	,	-22505	,	-0.18790042	,	0
8,57	,	48504	,	-25255	,	-22513	,	-1.1155345	,	0
8,57	,	48536	,	-25257	,	-22513	,	-2.0635989	,	0
8,57	,	48551	,	-25272	,	-22512	,	-3.2070725	,	0
8,57	,	48568	,	-25261	,	-22512	,	-4.5721335	,	0
8,57	,	48600	,	-25260	,	-22515	,	-5.993338	,	0
8,57	,	48615	,	-25244	,	-22508	,	-7.042986	,	0
8,57	,	48631	,	-25245	,	-22504	,	-7.2471533	,	0
8,57	,	48663	,	-25240	,	-22495	,	-6.3662987	,	0
8,57	,	48680	,	-25229	,	-22497	,	-4.4497385	,	0
8,57	,	48712	,	-25235	,	-22507	,	-1.718631	,	1
8,57	,	48728	,	-25216	,	-22480	,	1.5068915	,	3
8,57	,	48744	,	-25205	,	-22489	,	4.9895477	,	6
8,57	,	48775	,	-25199	,	-22494	,	8.658341	,	9
8,57	,	48791	,	-25195	,	-22487	,	12.38377	,	12
8,57	,	48808	,	-25204	,	-22480	,	15.810014	,	15
8,57	,	48839	,	-25195	,	-22486	,	18.44646	,	18
8,57	,	48856	,	-25183	,	-22481	,	20.010292	,	20
8,57	,	48887	,	-25196	,	-22480	,	20.549421	,	21
8,57	,	48903	,	-25192	,	-22474	,	20.131653	,	20
8,57	,	48920	,	-25200	,	-22479	,	18.743446	,	18
8,57	,	48951	,	-25191	,	-22485	,	16.486588	,	15
8,57	,	48968	,	-25197	,	-22477	,	13.650931	,	12
8,57	,	48983	,	-25177	,	-22472	,	10.675174	,	9
8,57	,	49015	,	-25188	,	-22474	,	8.045879	,	6
8,57	,	49031	,	-25197	,	-22484	,	5.9944882	,	3
8,57	,	49047	,	-25198	,	-22476	,	4.341699	,	1
8,57	,	49079	,	-25195	,	-22480	,	2.8273232	,	0
8,58	,	49095	,	-25175	,	-22478	,	1.5007186	,	0
8,58	,	49127	,	-25186	,	-22471	,	0.68227386	,	0
8,58	,	49144	,	-25182	,	-22477	,	0.54285777	,	0
8,58	,	49159	,	-25167	,	-22481	,	1.0036249	,	0
8,58	,	49191	,	-25216	,	-22481	,	1.79479	,	0
8,58	,	49207	,	-25205	,	-22477	,	2.2436104	,	0
8,58	,	49223	,	-25191	,	-22475	,	1.7708758	,	0
8,58	,	49255	,	-25197	,	-22468	,	0.5590704	,	0
8,58	,	49271	,	-25205	,	-22478	,	-0.90261936	,	0
8,58	,	49303	,	-25226	,	-22471	,	-2.4847338	,	0
8,58	,	49319	,	-25174	,	-22466	,	-4.1479263	,	0
8,58	,	49335	,	-25176	,	-22464	,	-5.2865586	,	0
8,58	,	49367	,	-25151	,	-22459	,	-4.977068	,	0
8,58	,	49383	,	-25166	,	-22459	,	-2.8011622	,	0
8,58	,	49399	,	-25141	,	-22460	,	0.94683146	,	2
8,58	,	49431	,	-25142	,	-22460	,	5.655966	,	5
8,58	,	49447	,	-25133	,	-22451	,	10.710989	,	9
8,58	,	49463	,	-25143	,	-22444	,	15.459859	,	14
8,58	,	49495	,	-25122	,	-22446	,	19.295835	,	18
8,58	,	49511	,	-25135	,	-22439	,	21.890917	,	21
8,58	,	49543	,	-25111	,	-22449	,	23.211895	,	23
8,58	,	49559	,	-25115	,	-22440	,	23.470516	,	24
8,58	,	49575	,	-25107	,	-22444	,	23.004148	,	24
8,58	,	49607	,	-25104	,	-22437	,	22.086447	,	22
8,58	,	49623	,	-25138	,	-22430	,	20.736067	,	19
8,58	,	49639	,	-25107	,	-22431	,	18.711033	,	15
8,58	,	49671	,	-25114	,	-22433	,	16.015049	,	10
8,58	,	49687	,	-25102	,	-22438	,	13.101104	,	6
8,58	,	49719	,	-25107	,	-22432	,	10.451437	,	3
8,58	,	49735	,	-25093	,	-22422	,	8.373547	,	1
8,58	,	49751	,	-25097	,	-22428	,	7.0398607	,	0
8,58	,	49783	,	-25101	,	-22428	,	6.413801	,	0
8,58	,	49799	,	-25105	,	-22421	,	6.188914	,	0
8,58	,	49815	,	-25102	,	-22432	,	5.986141	,	0
8,58	,	49847	,	-25113	,	-22427	,	5.545291	,	0
8,58	,	49863	,	-25104	,	-22426	,	4.7281694	,	0
8,58	,	49879	,	-25095	,	-22416	,	3.626515	,	0
8,58	,	49911	,	-25099	,	-22419	,	2.576024	,	0
8,58	,	49927	,	-25088	,	-22437	,	1.8940024	,	0
8,58	,	49959	,	-25095	,	-22413	,	1.7218633	,	0
8,58	,	49975	,	-25107	,	-22437	,	1.9349908	,	0
8,58	,	49991	,	-25109	,	-22427	,	2.1214032	,	0
8,58	,	50023	,	-25122	,	-22429	,	1.8278	,	0
8,58	,	50039	,	-25121	,	-22432	,	0.78685653	,	0
8,58	,	50055	,	-25113	,	-22430	,	-0.932889	,	0
8,58	,	50087	,	-25091	,	-22431	,	-2.7871695	,	0
8,59	,	50103	,	-25089	,	-22421	,	-3.9448981	,	0
8,59	,	50135	,	-25079	,	-22417	,	-3.788003	,	0
8,59	,	50151	,	-25063	,	-22405	,	-2.1210976	,	0
8,59	,	50167	,	-25075	,	-22418	,	0.8967712	,	1
8,59	,	50199	,	-25066	,	-22394	,	4.7141986	,	4
8,59	,	50215	,	-25053	,	-22398	,	8.646219	,	7
8,59	,	50231	,	-25064	,	-22401	,	12.219697	,	10
8,59	,	50263	,	-25041	,	-22401	,	15.13328	,	13
8,59	,	50279	,	-25040	,	-22398	,	17.301743	,	15
8,59	,	50311	,	-25051	,	-22395	,	18.769241	,	17
8,59	,	50327	,	-25038	,	-22388	,	19.447006	,	18
8,59	,	50343	,	-25019	,	-22391	,	19.381615	,	18
8,59	,	50375	,	-25047	,	-22394	,	18.853481	,	17
8,59	,	50391	,	-25034	,	-22390	,	17.907581	,	14
8,59	,	50407	,	-25043	,	-22399	,	16.380804	,	11
8,59	,	50439	,	-25018	,	-22376	,	14.363854	,	8
8,59	,	50455	,	-25047	,	-22387	,	12.177884	,	5
8,59	,	50471	,	-25019	,	-22391	,	10.044613	,	3
8,59	,	50503	,	-25027	,	-22389	,	8.139839	,	1
8,59	,	50519	,	-25028	,	-22385	,	6.6520953	,	0
8,59	,	50551	,	-25027	,	-22391	,	5.5710588	,	0
8,59	,	50567	,	-25019	,	-22397	,	4.787985	,	0
8,59	,	50583	,	-25036	,	-22388	,	4.222513	,	0
8,59	,	50615	,	-25023	,	-22387	,	3.7196877	,	0
8,59	,	50631	,	-25012	,	-22383	,	3.2391603	,	0
8,59	,	50646	,	-25025	,	-22412	,	2.960978	,	0
8,59	,	50679	,	-25028	,	-22377	,	2.9058654	,	0
8,59	,	50695	,	-25051	,	-22389	,	2.7161248	,	0
8,59	,	50727	,	-25048	,	-22394	,	1.8837163	,	0
8,59	,	50743	,	-25048	,	-22393	,	0.1752652	,	0
8,59	,	50759	,	-25046	,	-22395	,	-2.148534	,	0
8,59	,	50791	,	-25054	,	-22404	,	-4.5994077	,	0
8,59	,	50807	,	-25045	,	-22397	,	-6.770165	,	0
8,59	,	50823	,	-25056	,	-22394	,	-8.390606	,	0
8,59	,	50855	,	-25052	,	-22391	,	-9.352686	,	0
8,59	,	50871	,	-25029	,	-22383	,	-9.567585	,	0
8,59	,	50886	,	-25010	,	-22395	,	-8.676786	,	0
8,59	,	50919	,	-25020	,	-22365	,	-6.293092	,	0
8,59	,	50935	,	-25004	,	-22373	,	-2.5268774	,	2
8,59	,	50966	,	-25006	,	-22373	,	2.0779204	,	5
8,59	,	50982	,	-24998	,	-22372	,	6.8922815	,	9
8,59	,	50999	,	-24963	,	-22371	,	11.511925	,	13
8,59	,	51031	,	-24986	,	-22375	,	15.848568	,	17
8,59	,	51047	,	-24984	,	-22364	,	19.63277	,	21
8,59	,	51063	,	-24964	,	-22366	,	22.357204	,	24
9,0	,	51095	,	-24985	,	-22373	,	23.783728	,	26
9,0	,	51111	,	-24954	,	-22361	,	23.967197	,	27
9,0	,	51142	,	-24966	,	-22381	,	23.17403	,	25
9,0	,	51158	,	-24950	,	-22345	,	21.810917	,	22
9,0	,	51175	,	-24946	,	-22359	,	20.257114	,	18
9,0	,	51207	,	-24979	,	-22362	,	18.657738	,	14
9,0	,	51223	,	-24958	,	-22359	,	16.755432	,	10
9,0	,	51239	,	-24954	,	-22364	,	14.380153	,	6
9,0	,	51271	,	-24955	,	-22365	,	11.826557	,	3
9,0	,	51287	,	-24953	,	-22366	,	9.458004	,	1
9,0	,	51303	,	-24971	,	-22360	,	7.367315	,	0
9,0	,	51335	,	-24980	,	-22367	,	5.3267336	,	0
9,0	,	51350	,	-24956	,	-22362	,	3.1036143	,	0
9,0	,	51382	,	-24963	,	-22379	,	0.90088105	,	0
9,0	,	51398	,	-24961	,	-22344	,	-0.8634062	,	0
9,0	,	51414	,	-24975	,	-22367	,	-2.0526352	,	0
9,0	,	51446	,	-24964	,	-22367	,	-2.813665	,	0
9,0	,	51462	,	-24984	,	-22369	,	-3.3499117	,	0
9,0	,	51478	,	-24983	,	-22370	,	-3.8961637	,	0
9,0	,	51511	,	-24977	,	-22375	,	-4.615312	,	0
9,0	,	51527	,	-25011	,	-22382	,	-5.5507555	,	0
9,0	,	51558	,	-25011	,	-22379	,	-6.905094	,	0
9,0	,	51574	,	-25013	,	-22379	,	-8.893656	,	0
9,0	,	51590	,	-24999	,	-22377	,	-11.265825	,	0
9,0	,	51622	,	-24954	,	-22387	,	-13.132971	,	0
9,0	,	51638	,	-24961	,	-22355	,	-13.260601	,	0
9,0	,	51654	,	-24986	,	-22373	,	-11.093613	,	0
9,0	,	51686	,	-24959	,	-22375	,	-7.2610865	,	2
9,0	,	51702	,	-24979	,	-22365	,	-2.7670875	,	5
9,0	,	51734	,	-24957	,	-22367	,	1.6279101	,	9
9,0	,	51751	,	-24948	,	-22370	,	5.5293055	,	13
9,0	,	51766	,	-24960	,	-22367	,	8.8536005	,	16
9,0	,	51798	,	-24965	,	-22366	,	11.406464	,	19
9,0	,	51814	,	-24977	,	-22361	,	12.762093	,	21
9,0	,	51830	,	-24939	,	-22370	,	12.76211	,	22
9,0	,	51862	,	-24935	,	-22378	,	11.957631	,	22
9,0	,	51878	,	-24952	,	-22354	,	11.133884	,	20
9,0	,	51894	,	-24959	,	-22359	,	10.456167	,	17
9,0	,	51926	,	-24970	,	-22361	,	9.505123	,	13
9,0	,	51942	,	-24957	,	-22361	,	7.9121623	,	9
9,0	,	51974	,	-24959	,	-22362	,	5.756881	,	6
9,0	,	51990	,	-24940	,	-22364	,	3.531785	,	3
9,0	,	52006	,	-24957	,	-22367	,	1.7837484	,	1
9,0	,	52038	,	-24969	,	-22367	,	0.6393328	,	0
9,0	,	52054	,	-24972	,	-22371	,	-0.27387798	,	0
9,0	,	52070	,	-24985	,	-22371	,	-1.4147476	,	0
9,1	,	52102	,	-24959	,	-22375	,	-2.9225845	,	0
9,1	,	52118	,	-25008	,	-22362	,	-4.6503015	,	0
9,1	,	52150	,	-24981	,	-22372	,	-6.551442	,	0
9,1	,	52166	,	-24994	,	-22374	,	-8.576357	,	0
9,1	,	52182	,	-24981	,	-22378	,	-10.384442	,	0
9,1	,	52214	,	-25006	,	-22384	,	-11.662161	,	0
9,1	,	52230	,	-25016	,	-22392	,	-12.510401	,	0
9,1	,	52246	,	-24993	,	-22379	,	-13.201166	,	0
9,1	,	52278	,	-25027	,	-22378	,	-13.761065	,	0
9,1	,	52294	,	-25004	,	-22383	,	-14.127664	,	0
9,1	,	52310	,	-25035	,	-22382	,	-14.3355255	,	0
9,1	,	52342	,	-25023	,	-22389	,	-14.469645	,	0
9,1	,	52358	,	-25032	,	-22384	,	-14.591514	,	0
9,1	,	52390	,	-25007	,	-22392	,	-14.532108	,	0
9,1	,	52406	,	-25021	,	-22382	,	-13.913397	,	0
9,1	,	52422	,	-25017	,	-22378	,	-12.525444	,	0
9,1	,	52454	,	-25017	,	-22378	,	-10.512795	,	1
9,1	,	52470	,	-25017	,	-22384	,	-8.170895	,	3
9,1	,	52486	,	-25005	,	-22378	,	-5.723919	,	5
9,1	,	52518	,	-25013	,	-22378	,	-3.2795725	,	7
9,1	,	52534	,	-24999	,	-22380	,	-0.91350436	,	9
9,1	,	52566	,	-25008	,	-22379	,	1.2868536	,	11
9,1	,	52582	,	-25027	,	-22385	,	3.0923042	,	13
9,1	,	52598	,	-25007	,	-22379	,	4.12767	,	14
9,1	,	52650	,	-25029	,	-22387	,	4.2984056	,	14
9,1	,	52662	,	-24984	,	-22377	,	4.0117164	,	12
9,1	,	52694	,	-25025	,	-22387	,	3.6245244	,	10
9,1	,	52710	,	-25011	,	-22384	,	3.1311057	,	8
9,1	,	52726	,	-25019	,	-22386	,	2.3678727	,	6
9,1	,	52758	,	-24997	,	-22374	,	1.392241	,	4
9,1	,	52774	,	-25020	,	-22382	,	0.5016464	,	2
9,1	,	52806	,	-25013	,	-22389	,	-0.17940271	,	1
9,1	,	52822	,	-25032	,	-22392	,	-0.81877923	,	0
9,1	,	52838	,	-25041	,	-22394	,	-1.7367111	,	0
9,1	,	52870	,	-25041	,	-22392	,	-3.221584	,	0
9,1	,	52886	,	-25047	,	-22394	,	-5.2981606	,	0
9,1	,	52902	,	-25037	,	-22392	,	-7.6634026	,	0
9,1	,	52934	,	-25046	,	-22395	,	-9.8429	,	0
9,1	,	52950	,	-25045	,	-22397	,	-11.450637	,	0
9,1	,	52982	,	-25055	,	-22399	,	-12.371378	,	0
9,1	,	52998	,	-25059	,	-22397	,	-12.735567	,	0
9,1	,	53014	,	-25065	,	-22406	,	-12.790743	,	0
9,1	,	53046	,	-25053	,	-22409	,	-12.687115	,	0
9,1	,	53062	,	-25069	,	-22392	,	-12.399382	,	0
9,1	,	53078	,	-25070	,	-22418	,	-11.945404	,	0
9,2	,	53110	,	-25081	,	-22395	,	-11.504454	,	0
9,2	,	53126	,	-25064	,	-22401	,	-11.198494	,	0
9,2	,	53142	,	-25056	,	-22398	,	-10.818941	,	0
9,2	,	53174	,	-25056	,	-22398	,	-9.9339	,	0
9,2	,	53190	,	-25042	,	-22400	,	-8.245434	,	0
9,2	,	53222	,	-25060	,	-22401	,	-5.771058	,	1
9,2	,	53238	,	-25063	,	-22403	,	-2.9359226	,	3
9,2	,	53254	,	-25059	,	-22402	,	-0.3829689	,	5
9,2	,	53286	,	-25057	,	-22401	,	1.4921494	,	7
9,2	,	53302	,	-25053	,	-22396	,	2.6647391	,	8
9,2	,	53318	,	-25073	,	-22411	,	3.2047734	,	9
9,2	,	53350	,	-25036	,	-22382	,	3.1969864	,	9
9,2	,	53366	,	-25069	,	-22404	,	2.8932722	,	9
9,2	,	53398	,	-25058	,	-22394	,	2.4619594	,	9
9,2	,	53414	,	-25064	,	-22398	,	1.8365605	,	8
9,2	,	53430	,	-25072	,	-22405	,	0.9668784	,	6
9,2	,	53462	,	-25093	,	-22405	,	-0.265226	,	4
9,2	,	53478	,	-25079	,	-22411	,	-2.0597491	,	2
9,2	,	53494	,	-25068	,	-22409	,	-4.240509	,	1
9,2	,	53526	,	-25079	,	-22409	,	-6.2160306	,	0
9,2	,	53542	,	-25090	,	-22410	,	-7.6040397	,	0
9,2	,	53558	,	-25096	,	-22426	,	-8.526143	,	0
9,2	,	53590	,	-25079	,	-22392	,	-9.1880045	,	0
9,2	,	53606	,	-25088	,	-22410	,	-9.512881	,	0
9,2	,	53637	,	-25107	,	-22403	,	-9.442315	,	0
9,2	,	53654	,	-25102	,	-22406	,	-9.25057	,	0
9,2	,	53670	,	-25090	,	-22407	,	-9.147508	,	0
9,2	,	53702	,	-25091	,	-22407	,	-8.938742	,	0
9,2	,	53718	,	-25110	,	-22414	,	-8.422222	,	0
9,2	,	53734	,	-25106	,	-22413	,	-7.7683144	,	0
9,2	,	53766	,	-25097	,	-22410	,	-7.206205	,	0
9,2	,	53782	,	-25103	,	-22416	,	-6.682041	,	0
9,2	,	53813	,	-25106	,	-22425	,	-6.0785832	,	0
9,2	,	53829	,	-25123	,	-22401	,	-5.5117493	,	0
9,2	,	53845	,	-25109	,	-22422	,	-5.2266626	,	0
9,2	,	53878	,	-25100	,	-22415	,	-5.197877	,	0
9,2	,	53893	,	-25109	,	-22416	,	-5.092785	,	0
9,2	,	53909	,	-25096	,	-22418	,	-4.6578693	,	0
9,2	,	53941	,	-25109	,	-22418	,	-3.8553696	,	0
9,2	,	53958	,	-25090	,	-22412	,	-2.7497365	,	0
9,2	,	53974	,	-25099	,	-22403	,	-1.4010913	,	1
9,2	,	54005	,	-25080	,	-22411	,	0.17237198	,	2
9,2	,	54021	,	-25081	,	-22411	,	1.9957294	,	3
9,2	,	54053	,	-25082	,	-22427	,	4.046805	,	4
9,2	,	54070	,	-25070	,	-22401	,	6.159039	,	6
9,2	,	54086	,	-25099	,	-22417	,	8.028344	,	8
9,3	,	54117	,	-25102	,	-22422	,	9.1274605	,	9
9,3	,	54134	,	-25105	,	-22420	,	8.911194	,	10
9,3	,	54150	,	-25094	,	-22418	,	7.32118	,	10
9,3	,	54182	,	-25108	,	-22418	,	4.7997556	,	9
9,3	,	54198	,	-25098	,	-22415	,	1.8992219	,	8
9,3	,	54230	,	-25098	,	-22414	,	-0.8808427	,	7
9,3	,	54246	,	-25100	,	-22419	,	-3.1181517	,	6
9,3	,	54262	,	-25104	,	-22417	,	-4.6131353	,	4
9,3	,	54293	,	-25133	,	-22431	,	-5.555192	,	2
9,3	,	54309	,	-25119	,	-22410	,	-6.4297566	,	1
9,3	,	54325	,	-25125	,	-22420	,	-7.524387	,	0
9,3	,	54358	,	-25125	,	-22415	,	-8.716895	,	0
9,3	,	54373	,	-25121	,	-22421	,	-9.738307	,	0
9,3	,	54389	,	-25115	,	-22423	,	-10.29258	,	0
9,3	,	54421	,	-25132	,	-22422	,	-10.194992	,	0
9,3	,	54437	,	-25129	,	-22427	,	-9.584614	,	0
9,3	,	54469	,	-25134	,	-22427	,	-8.775568	,	0
9,3	,	54485	,	-25118	,	-22430	,	-7.919504	,	0
9,3	,	54501	,	-25135	,	-22433	,	-6.9715424	,	0
9,3	,	54533	,	-25143	,	-22433	,	-6.015949	,	0
9,3	,	54550	,	-25155	,	-22431	,	-5.420273	,	0
9,3	,	54565	,	-25149	,	-22429	,	-5.514817	,	0
9,3	,	54598	,	-25175	,	-22442	,	-6.374891	,	0
9,3	,	54613	,	-25156	,	-22434	,	-7.9073296	,	0
9,3	,	54645	,	-25133	,	-22440	,	-9.640013	,	0
9,3	,	54661	,	-25126	,	-22433	,	-10.611919	,	0
9,3	,	54677	,	-25151	,	-22441	,	-10.130062	,	0
9,3	,	54710	,	-25134	,	-22430	,	-8.372795	,	0
9,3	,	54726	,	-25130	,	-22427	,	-5.8822474	,	1
9,3	,	54741	,	-25134	,	-22428	,	-3.0354753	,	3
9,3	,	54773	,	-25129	,	-22425	,	-0.15682316	,	5
9,3	,	54789	,	-25143	,	-22434	,	2.3765843	,	7
9,3	,	54821	,	-25144	,	-22434	,	4.167983	,	9
9,3	,	54837	,	-25140	,	-22423	,	4.9498057	,	10
9,3	,	54853	,	-25122	,	-22432	,	4.8729663	,	10
9,3	,	54885	,	-25163	,	-22432	,	4.297788	,	10
9,3	,	54901	,	-25147	,	-22428	,	3.253069	,	10
9,3	,	54917	,	-25146	,	-22426	,	1.6723056	,	9
9,3	,	54949	,	-25140	,	-22433	,	-0.124881506	,	7
9,3	,	54965	,	-25122	,	-22429	,	-1.5703211	,	5
9,3	,	54981	,	-25123	,	-22424	,	-2.1157966	,	3
9,3	,	55013	,	-25152	,	-22431	,	-1.6469239	,	1
9,3	,	55029	,	-25150	,	-22431	,	-0.76273966	,	0
9,3	,	55061	,	-25143	,	-22429	,	-0.1858108	,	0
9,3	,	55077	,	-25146	,	-22427	,	-0.1268714	,	0
9,4	,	55093	,	-25149	,	-22431	,	-0.45030627	,	0
9,4	,	55125	,	-25144	,	-22433	,	-0.9918124	,	0
9,4	,	55141	,	-25175	,	-22434	,	-1.7157731	,	0
9,4	,	55157	,	-25147	,	-22433	,	-2.73942	,	0
9,4	,	55189	,	-25183	,	-22431	,	-4.1020503	,	0
9,4	,	55205	,	-25140	,	-22435	,	-5.6227026	,	0
9,4	,	55237	,	-25154	,	-22433	,	-6.8438716	,	0
9,4	,	55253	,	-25161	,	-22439	,	-7.32197	,	0
9,4	,	55269	,	-25163	,	-22449	,	-7.1015005	,	0
9,4	,	55301	,	-25194	,	-22432	,	-6.663363	,	0
9,4	,	55317	,	-25173	,	-22440	,	-6.578536	,	0
9,4	,	55333	,	-25192	,	-22445	,	-7.0974665	,	0
9,4	,	55365	,	-25194	,	-22452	,	-8.128721	,	0
9,4	,	55381	,	-25171	,	-22446	,	-9.414972	,	0
9,4	,	55397	,	-25189	,	-22444	,	-10.479985	,	0
9,4	,	55429	,	-25171	,	-22438	,	-10.884838	,	0
9,4	,	55445	,	-25159	,	-22438	,	-10.35476	,	0
9,4	,	55477	,	-25163	,	-22432	,	-8.678991	,	0
9,4	,	55493	,	-25160	,	-22433	,	-5.947265	,	1
9,4	,	55509	,	-25171	,	-22453	,	-2.657895	,	3
9,4	,	55541	,	-25153	,	-22432	,	0.58757496	,	6
9,4	,	55557	,	-25186	,	-22428	,	3.3002248	,	9
9,4	,	55573	,	-25140	,	-22438	,	5.1738267	,	11
9,4	,	55605	,	-25157	,	-22428	,	6.3258734	,	12
9,4	,	55621	,	-25156	,	-22429	,	7.0870333	,	13
9,4	,	55653	,	-25163	,	-22436	,	7.483572	,	13
9,4	,	55669	,	-25159	,	-22431	,	7.3632274	,	13
9,4	,	55685	,	-25149	,	-22433	,	6.7622094	,	12
9,4	,	55717	,	-25150	,	-22433	,	5.9543304	,	10
9,4	,	55733	,	-25151	,	-22429	,	5.216893	,	7
9,4	,	55749	,	-25145	,	-22447	,	4.662188	,	4
9,4	,	55781	,	-25145	,	-22413	,	4.3259506	,	2
9,4	,	55797	,	-25186	,	-22436	,	4.015725	,	1
9,4	,	55813	,	-25170	,	-22431	,	3.1728857	,	0
9,4	,	55845	,	-25167	,	-22440	,	1.4780326	,	0
9,4	,	55861	,	-25200	,	-22436	,	-0.8789712	,	0
9,4	,	55893	,	-25182	,	-22433	,	-3.7033272	,	0
9,4	,	55909	,	-25162	,	-22445	,	-6.6255684	,	0
9,4	,	55925	,	-25169	,	-22434	,	-8.84019	,	0
9,4	,	55957	,	-25174	,	-22433	,	-9.76943	,	0
9,4	,	55973	,	-25175	,	-22438	,	-9.481337	,	0
9,4	,	55989	,	-25180	,	-22459	,	-8.386388	,	0
9,4	,	56021	,	-25205	,	-22418	,	-7.0554166	,	1
9,4	,	56037	,	-25189	,	-22442	,	-6.11495	,	2
9,4	,	56069	,	-25197	,	-22438	,	-5.8479605	,	2
9,4	,	56085	,	-25200	,	-22445	,	-6.128748	,	2
9,5	,	56101	,	-25196	,	-22450	,	-6.730768	,	2
9,5	,	56133	,	-25209	,	-22441	,	-7.443968	,	2
9,5	,	56149	,	-25174	,	-22431	,	-7.992843	,	2
9,5	,	56165	,	-25185	,	-22435	,	-7.923829	,	2
9,5	,	56197	,	-25182	,	-22430	,	-6.900487	,	2
9,5	,	56213	,	-25165	,	-22426	,	-4.96482	,	2
9,5	,	56229	,	-25171	,	-22445	,	-2.2944553	,	2
9,5	,	56261	,	-25181	,	-22416	,	0.7741585	,	4
9,5	,	56277	,	-25173	,	-22421	,	3.65749	,	7
9,5	,	56309	,	-25175	,	-22431	,	5.872093	,	9
9,5	,	56325	,	-25145	,	-22422	,	7.3715186	,	11
9,5	,	56341	,	-25158	,	-22427	,	8.505712	,	12
9,5	,	56373	,	-25177	,	-22422	,	9.446167	,	13
9,5	,	56389	,	-25152	,	-22422	,	9.935869	,	13
9,5	,	56405	,	-25151	,	-22428	,	9.901876	,	12
9,5	,	56437	,	-25148	,	-22420	,	9.648089	,	11
9,5	,	56453	,	-25150	,	-22425	,	9.404978	,	9
9,5	,	56484	,	-25142	,	-22438	,	9.211584	,	6
9,5	,	56500	,	-25156	,	-22408	,	9.01248	,	4
9,5	,	56517	,	-25148	,	-22418	,	8.652205	,	2
9,5	,	56549	,	-25173	,	-22421	,	7.8902926	,	1
9,5	,	56565	,	-25138	,	-22418	,	6.5875564	,	0
9,5	,	56581	,	-25146	,	-22418	,	5.016278	,	0
9,5	,	56613	,	-25161	,	-22422	,	3.596567	,	0
9,5	,	56628	,	-25150	,	-22419	,	2.3867984	,	0
9,5	,	56644	,	-25167	,	-22423	,	1.245048	,	0
9,5	,	56676	,	-25161	,	-22423	,	0.06428218	,	0
9,5	,	56692	,	-25156	,	-22420	,	-1.1578233	,	0
9,5	,	56725	,	-25151	,	-22434	,	-2.2020674	,	0
9,5	,	56741	,	-25168	,	-22416	,	-2.8535674	,	0
9,5	,	56757	,	-25162	,	-22429	,	-3.1811094	,	0
9,5	,	56789	,	-25156	,	-22424	,	-3.3292365	,	0
9,5	,	56805	,	-25156	,	-22429	,	-3.2595396	,	0
9,5	,	56821	,	-25166	,	-22427	,	-2.9387326	,	0
9,5	,	56853	,	-25189	,	-22427	,	-2.6474686	,	0
9,5	,	56869	,	-25171	,	-22427	,	-2.8367214	,	0
9,5	,	56901	,	-25157	,	-22434	,	-3.518901	,	0
9,5	,	56917	,	-25203	,	-22435	,	-4.3442707	,	0
9,5	,	56933	,	-25177	,	-22430	,	-5.2899823	,	0
9,5	,	56964	,	-25164	,	-22431	,	-6.334513	,	0
9,5	,	56980	,	-25157	,	-22418	,	-6.925585	,	0
9,5	,	56997	,	-25165	,	-22428	,	-6.5198174	,	0
9,5	,	57029	,	-25156	,	-22425	,	-5.090496	,	0
9,5	,	57045	,	-25144	,	-22421	,	-2.8777683	,	1
9,5	,	57061	,	-25150	,	-22422	,	-0.11054921	,	3
9,6	,	57092	,	-25149	,	-22415	,	2.8752859	,	5
9,6	,	57108	,	-25138	,	-22422	,	5.66529	,	7
9,6	,	57140	,	-25147	,	-22417	,	7.9842463	,	9
9,6	,	57156	,	-25142	,	-22414	,	9.647733	,	11
9,6	,	57172	,	-25137	,	-22417	,	10.553187	,	12
9,6	,	57204	,	-25155	,	-22424	,	10.705971	,	12
9,6	,	57220	,	-25142	,	-22427	,	10.096121	,	12
9,6	,	57236	,	-25148	,	-22416	,	8.803172	,	11
9,6	,	57269	,	-25133	,	-22419	,	7.1412954	,	9
9,6	,	57284	,	-25140	,	-22423	,	5.5256515	,	7
9,6	,	57316	,	-25134	,	-22426	,	4.2513213	,	5
9,6	,	57332	,	-25153	,	-22415	,	3.3336124	,	3
9,6	,	57348	,	-25133	,	-22416	,	2.5934029	,	1
9,6	,	57380	,	-25133	,	-22419	,	1.9954524	,	0
9,6	,	57396	,	-25142	,	-22418	,	1.6623452	,	0
9,6	,	57412	,	-25143	,	-22425	,	1.540921	,	0
9,6	,	57445	,	-25136	,	-22425	,	1.4489534	,	0
9,6	,	57460	,	-25174	,	-22437	,	1.1689925	,	0
9,6	,	57476	,	-25152	,	-22415	,	0.35402143	,	0
9,6	,	57508	,	-25154	,	-22422	,	-1.0880898	,	0
9,6	,	57524	,	-25136	,	-22421	,	-2.6853747	,	0
9,6	,	57556	,	-25170	,	-22421	,	-3.9138522	,	0
9,6	,	57573	,	-25158	,	-22419	,	-4.7475185	,	0
9,6	,	57588	,	-25151	,	-22426	,	-5.3605623	,	0
9,6	,	57620	,	-25136	,	-22419	,	-5.584916	,	0
9,6	,	57636	,	-25129	,	-22418	,	-5.00229	,	0
9,6	,	57652	,	-25133	,	-22417	,	-3.3794568	,	0
9,6	,	57684	,	-25143	,	-22418	,	-0.9659107	,	1
9,6	,	57700	,	-25130	,	-22433	,	1.6447103	,	3
9,6	,	57732	,	-25120	,	-22402	,	4.0395885	,	5
9,6	,	57748	,	-25111	,	-22407	,	6.2208724	,	7
9,6	,	57764	,	-25113	,	-22412	,	8.321669	,	9
9,6	,	57796	,	-25107	,	-22402	,	10.315485	,	11
9,6	,	57812	,	-25101	,	-22397	,	12.071629	,	12
9,6	,	57828	,	-25124	,	-22399	,	13.389389	,	13
9,6	,	57860	,	-25100	,	-22402	,	13.971096	,	14
9,6	,	57876	,	-25093	,	-22401	,	13.792783	,	13
9,6	,	57892	,	-25103	,	-22400	,	13.195256	,	11
9,6	,	57924	,	-25093	,	-22399	,	12.4184675	,	9
9,6	,	57940	,	-25104	,	-22409	,	11.488504	,	7
9,6	,	57972	,	-25098	,	-22381	,	10.375324	,	5
9,6	,	57988	,	-25086	,	-22395	,	9.131275	,	3
9,6	,	58004	,	-25086	,	-22389	,	7.998929	,	2
9,6	,	58036	,	-25085	,	-22400	,	7.219784	,	1
9,6	,	58052	,	-25088	,	-22395	,	6.8062925	,	0
9,6	,	58084	,	-25094	,	-22389	,	6.551708	,	0
9,7	,	58100	,	-25070	,	-22386	,	6.2790513	,	0
9,7	,	58116	,	-25093	,	-22393	,	6.022759	,	0
9,7	,	58148	,	-25083	,	-22395	,	5.7773485	,	0
9,7	,	58164	,	-25094	,	-22396	,	5.366917	,	0
9,7	,	58180	,	-25079	,	-22405	,	4.696823	,	0
9,7	,	58212	,	-25093	,	-22372	,	3.8472998	,	0
9,7	,	58228	,	-25094	,	-22389	,	2.882036	,	0
9,7	,	58244	,	-25108	,	-22395	,	1.6978939	,	0
9,7	,	58276	,	-25107	,	-22395	,	0.13051343	,	0
9,7	,	58292	,	-25107	,	-22396	,	-1.820755	,	0
9,7	,	58324	,	-25101	,	-22397	,	-3.8890905	,	0
9,7	,	58340	,	-25094	,	-22394	,	-5.6253486	,	0
9,7	,	58356	,	-25099	,	-22395	,	-6.617758	,	0
9,7	,	58388	,	-25095	,	-22395	,	-6.7122154	,	0
9,7	,	58404	,	-25094	,	-22394	,	-6.008877	,	0
9,7	,	58420	,	-25073	,	-22373	,	-4.619834	,	0
9,7	,	58452	,	-25079	,	-22390	,	-2.5454273	,	1
9,7	,	58468	,	-25070	,	-22386	,	0.13595319	,	3
9,7	,	58500	,	-25056	,	-22383	,	3.2154284	,	5
9,7	,	58516	,	-25058	,	-22379	,	6.510523	,	8
9,7	,	58532	,	-25059	,	-22376	,	9.762216	,	11
9,7	,	58564	,	-25038	,	-22367	,	12.648562	,	14
9,7	,	58580	,	-25051	,	-22369	,	15.007252	,	16
9,7	,	58596	,	-25040	,	-22366	,	16.729727	,	18
9,7	,	58628	,	-25041	,	-22368	,	17.686043	,	19
9,7	,	58644	,	-25046	,	-22364	,	17.81597	,	18
9,7	,	58676	,	-25033	,	-22348	,	17.140678	,	16
9,7	,	58692	,	-25042	,	-22353	,	15.821143	,	14
9,7	,	58708	,	-25028	,	-22354	,	14.122983	,	11
9,7	,	58740	,	-25016	,	-22359	,	12.404145	,	8
9,7	,	58756	,	-25036	,	-22352	,	11.014401	,	5
9,7	,	58772	,	-25023	,	-22343	,	9.978457	,	3
9,7	,	58804	,	-25046	,	-22344	,	9.015991	,	1
9,7	,	58820	,	-25032	,	-22354	,	7.8090625	,	0
9,7	,	58836	,	-25033	,	-22362	,	6.251396	,	0
9,7	,	58868	,	-25039	,	-22353	,	4.5004177	,	0
9,7	,	58884	,	-25011	,	-22359	,	2.8567216	,	0
9,7	,	58916	,	-25031	,	-22351	,	1.7082043	,	0
9,7	,	58932	,	-25034	,	-22355	,	1.18593	,	0
9,7	,	58948	,	-25028	,	-22358	,	1.016374	,	0
9,7	,	58980	,	-25040	,	-22348	,	0.8986276	,	0
9,7	,	58995	,	-25040	,	-22355	,	0.6202135	,	0
9,7	,	59012	,	-25028	,	-22357	,	0.08846086	,	0
9,7	,	59044	,	-25043	,	-22357	,	-0.57976985	,	0
9,7	,	59060	,	-25038	,	-22360	,	-1.2698667	,	0
9,8	,	59092	,	-25049	,	-22366	,	-1.997993	,	0
9,8	,	59108	,	-25035	,	-22372	,	-2.7609963	,	0
9,8	,	59124	,	-25044	,	-22374	,	-3.4316213	,	0
9,8	,	59156	,	-25055	,	-22363	,	-3.9325373	,	0
9,8	,	59172	,	-25057	,	-22359	,	-4.419576	,	0
9,8	,	59188	,	-25044	,	-22361	,	-5.021008	,	0
9,8	,	59220	,	-25018	,	-22358	,	-5.4192333	,	0
9,8	,	59236	,	-25024	,	-22354	,	-4.963106	,	0
9,8	,	59251	,	-25009	,	-22349	,	-3.2463815	,	0
9,8	,	59283	,	-25006	,	-22354	,	-0.33241034	,	1
9,8	,	59300	,	-25009	,	-22353	,	3.393265	,	3
9,8	,	59332	,	-24980	,	-22350	,	7.43485	,	6
9,8	,	59348	,	-24970	,	-22350	,	11.549659	,	10
9,8	,	59363	,	-25001	,	-22349	,	15.562481	,	14
9,8	,	59396	,	-24970	,	-22358	,	18.939657	,	18
9,8	,	59412	,	-24983	,	-22352	,	21.183182	,	21
9,8	,	59428	,	-24988	,	-22349	,	22.105873	,	23
9,8	,	59459	,	-24970	,	-22342	,	21.681625	,	23
9,8	,	59475	,	-24965	,	-22340	,	20.227854	,	22
9,8	,	59507	,	-24963	,	-22342	,	18.338661	,	20
9,8	,	59524	,	-24988	,	-22346	,	16.342024	,	17
9,8	,	59540	,	-24983	,	-22338	,	14.077166	,	13
9,8	,	59572	,	-24991	,	-22346	,	11.288294	,	9
9,8	,	59587	,	-24966	,	-22345	,	8.103622	,	5
9,8	,	59603	,	-24963	,	-22348	,	5.114237	,	2
9,8	,	59636	,	-24996	,	-22341	,	2.8312502	,	0
9,8	,	59651	,	-24998	,	-22341	,	1.0636761	,	0
9,8	,	59668	,	-25001	,	-22342	,	-0.7469332	,	0
9,8	,	59700	,	-24978	,	-22347	,	-2.7286406	,	0
9,8	,	59716	,	-24956	,	-22344	,	-4.310181	,	0
9,8	,	59748	,	-24960	,	-22352	,	-4.645343	,	0
9,8	,	59764	,	-24976	,	-22347	,	-3.4446058	,	0
9,8	,	59779	,	-24994	,	-22349	,	-1.3618846	,	1
9,8	,	59811	,	-25021	,	-22361	,	0.36621523	,	3
9,8	,	59827	,	-24987	,	-22364	,	0.73542583	,	4
9,8	,	59843	,	-25003	,	-22363	,	-0.30890948	,	4
9,8	,	59876	,	-25004	,	-22374	,	-2.1696806	,	4
9,8	,	59892	,	-25016	,	-22361	,	-4.3625293	,	4
9,8	,	59923	,	-25004	,	-22372	,	-6.5984616	,	4
9,8	,	59939	,	-24974	,	-22370	,	-8.376613	,	4
9,8	,	59956	,	-25005	,	-22369	,	-9.035649	,	4
9,8	,	59988	,	-25003	,	-22370	,	-8.46559	,	3
9,8	,	60004	,	-24981	,	-22362	,	-7.0898743	,	1
9,8	,	60019	,	-25002	,	-22369	,	-5.2158594	,	1
9,8	,	60051	,	-25001	,	-22362	,	-3.148186	,	2
9,8	,	60068	,	-24995	,	-22355	,	-1.3183858	,	4
9,8	,	60083	,	-24986	,	-22361	,	0.101386786	,	5
9,9	,	60115	,	-24963	,	-22369	,	1.3658477	,	6
9,9	,	60131	,	-24971	,	-22340	,	2.9218178	,	7
9,9	,	60163	,	-24987	,	-22351	,	4.8569865	,	8
9,9	,	60179	,	-24976	,	-22346	,	6.7093506	,	9
9,9	,	60195	,	-24939	,	-22349	,	8.193385	,	10
9,9	,	60227	,	-24957	,	-22345	,	9.622259	,	10
9,9	,	60243	,	-24953	,	-22341	,	11.227371	,	10
9,9	,	60259	,	-24972	,	-22351	,	12.662534	,	9
9,9	,	60291	,	-24969	,	-22354	,	13.326214	,	9
9,9	,	60307	,	-24961	,	-22354	,	12.874414	,	8
9,9	,	60339	,	-24949	,	-22354	,	11.516422	,	7
9,9	,	60355	,	-24981	,	-22365	,	9.692844	,	6
9,9	,	60371	,	-24978	,	-22341	,	7.4921126	,	5
9,9	,	60403	,	-24954	,	-22350	,	4.9130306	,	4
9,9	,	60419	,	-24974	,	-22359	,	2.348023	,	3
9,9	,	60435	,	-25001	,	-22355	,	0.037195683	,	2
9,9	,	60467	,	-24976	,	-22360	,	-2.2634008	,	1
9,9	,	60483	,	-24985	,	-22356	,	-4.593029	,	0
9,9	,	60499	,	-24985	,	-22365	,	-6.610118	,	0
9,9	,	60531	,	-25011	,	-22368	,	-8.17218	,	0
9,9	,	60547	,	-24980	,	-22367	,	-9.400927	,	0
9,9	,	60579	,	-24986	,	-22365	,	-10.185825	,	0
9,9	,	60595	,	-24984	,	-22386	,	-10.206669	,	0
9,9	,	60611	,	-25007	,	-22359	,	-9.487995	,	0
9,9	,	60643	,	-25039	,	-22378	,	-8.679666	,	0
9,9	,	60659	,	-25014	,	-22383	,	-8.627283	,	0
9,9	,	60675	,	-25020	,	-22376	,	-9.522013	,	0
9,9	,	60707	,	-25015	,	-22377	,	-10.825008	,	0
9,9	,	60723	,	-25025	,	-22376	,	-11.950144	,	0
9,9	,	60755	,	-25023	,	-22383	,	-12.616931	,	0
9,9	,	60772	,	-24981	,	-22375	,	-12.558872	,	0
9,9	,	60787	,	-25009	,	-22378	,	-11.313692	,	0
9,9	,	60819	,	-24986	,	-22377	,	-8.720243	,	1
9,9	,	60835	,	-24989	,	-22389	,	-5.1101694	,	3
9,9	,	60851	,	-24989	,	-22376	,	-0.97485876	,	6
9,9	,	60883	,	-25004	,	-22382	,	3.041881	,	10
9,9	,	60899	,	-24981	,	-22378	,	6.283786	,	14
9,9	,	60915	,	-25012	,	-22376	,	8.387159	,	17
9,9	,	60947	,	-25012	,	-22382	,	9.111117	,	19
9,9	,	60963	,	-24991	,	-22378	,	8.384417	,	19
9,9	,	60995	,	-24958	,	-22382	,	6.867715	,	19
9,9	,	61011	,	-24994	,	-22377	,	5.6409926	,	18
9,9	,	61027	,	-24992	,	-22376	,	5.0813646	,	16
9,9	,	61059	,	-25010	,	-22381	,	4.69969	,	13
9,9	,	61075	,	-25009	,	-22385	,	3.86664	,	9
9,9	,	61091	,	-24976	,	-22376	,	2.4494941	,	5
9,10	,	61123	,	-25012	,	-22383	,	0.87690496	,	2
9,10	,	61139	,	-25020	,	-22382	,	-0.6244199	,	0
9,10	,	61171	,	-25018	,	-22372	,	-2.322105	,	0
9,10	,	61187	,	-25018	,	-22382	,	-4.338182	,	0
9,10	,	61203	,	-25026	,	-22386	,	-6.457814	,	0
9,10	,	61235	,	-25033	,	-22384	,	-8.471487	,	0
9,10	,	61251	,	-25031	,	-22384	,	-10.280457	,	0
9,10	,	61267	,	-25022	,	-22392	,	-11.706327	,	0
9,10	,	61299	,	-25015	,	-22386	,	-12.39431	,	0
9,10	,	61315	,	-25035	,	-22397	,	-12.1091795	,	0
9,10	,	61347	,	-25030	,	-22382	,	-11.054972	,	0
9,10	,	61363	,	-25033	,	-22395	,	-9.658284	,	1
9,10	,	61379	,	-25046	,	-22395	,	-8.277679	,	2
9,10	,	61411	,	-25030	,	-22393	,	-7.17254	,	3
9,10	,	61427	,	-25045	,	-22397	,	-6.4095902	,	4
9,10	,	61443	,	-25029	,	-22387	,	-5.8775053	,	4
9,10	,	61475	,	-25045	,	-22388	,	-5.4311705	,	4
9,10	,	61491	,	-25026	,	-22391	,	-4.946738	,	4
9,10	,	61507	,	-25032	,	-22390	,	-4.2910824	,	4
9,10	,	61539	,	-25037	,	-22385	,	-3.4011319	,	4
9,10	,	61555	,	-25030	,	-22391	,	-2.3891869	,	3
9,10	,	61587	,	-25033	,	-22396	,	-1.3925748	,	3
9,10	,	61603	,	-25025	,	-22385	,	-0.4486146	,	2
9,10	,	61619	,	-25026	,	-22388	,	0.47043443	,	1
9,10	,	61651	,	-25024	,	-22378	,	1.3899286	,	1
9,10	,	61667	,	-25046	,	-22384	,	2.1718206	,	1
9,10	,	61683	,	-25034	,	-22381	,	2.4991472	,	1
9,10	,	61715	,	-25033	,	-22384	,	2.2262487	,	1
9,10	,	61731	,	-25030	,	-22384	,	1.5648437	,	1
9,10	,	61763	,	-25030	,	-22378	,	0.833722	,	1
9,10	,	61779	,	-25038	,	-22378	,	0.21271884	,	0
9,10	,	61795	,	-25039	,	-22386	,	-0.31969434	,	0
9,10	,	61827	,	-25045	,	-22403	,	-0.89343154	,	0
9,10	,	61843	,	-25054	,	-22383	,	-1.6501828	,	0
9,10	,	61859	,	-25058	,	-22388	,	-2.7327662	,	0
9,10	,	61891	,	-25047	,	-22396	,	-4.1412096	,	0
9,10	,	61907	,	-25049	,	-22384	,	-5.582385	,	0
9,10	,	61923	,	-25049	,	-22385	,	-6.6581583	,	0
9,10	,	61955	,	-25056	,	-22393	,	-7.1781487	,	0
9,10	,	61971	,	-25048	,	-22396	,	-7.180994	,	0
9,10	,	62003	,	-25066	,	-22394	,	-6.8213673	,	0
9,10	,	62019	,	-25049	,	-22389	,	-6.3073874	,	0
9,10	,	62035	,	-25073	,	-22402	,	-5.8177614	,	0
9,10	,	62067	,	-25072	,	-22410	,	-5.560396	,	0
9,10	,	62082	,	-25078	,	-22391	,	-5.766781	,	0
9,11	,	62099	,	-25067	,	-22396	,	-6.4304104	,	0
9,11	,	62131	,	-25075	,	-22403	,	-7.2547255	,	0
9,11	,	62147	,	-25085	,	-22399	,	-7.974168	,	0
9,11	,	62179	,	-25084	,	-22399	,	-8.569635	,	0
9,11	,	62195	,	-25055	,	-22396	,	-8.945295	,	0
9,11	,	62211	,	-25058	,	-22391	,	-8.638905	,	0
9,11	,	62243	,	-25064	,	-22398	,	-7.2874417	,	0
9,11	,	62259	,	-25057	,	-22397	,	-5.068982	,	1
9,11	,	62274	,	-25054	,	-22396	,	-2.4078522	,	3
9,11	,	62306	,	-25052	,	-22417	,	0.3636434	,	5
9,11	,	62322	,	-25053	,	-22371	,	2.974281	,	7
9,11	,	62339	,	-25048	,	-22389	,	5.179329	,	9
9,11	,	62371	,	-25048	,	-22394	,	6.8342752	,	11
9,11	,	62387	,	-25032	,	-22394	,	7.974784	,	12
9,11	,	62419	,	-25044	,	-22391	,	8.77132	,	13
9,11	,	62434	,	-25065	,	-22385	,	9.177328	,	13
9,11	,	62450	,	-25055	,	-22391	,	8.817048	,	12
9,11	,	62482	,	-25058	,	-22395	,	7.4987893	,	10
9,11	,	62498	,	-25040	,	-22392	,	5.5461063	,	8
9,11	,	62515	,	-25048	,	-22385	,	3.5565424	,	6
9,11	,	62547	,	-25056	,	-22401	,	1.934778	,	4
9,11	,	62563	,	-25046	,	-22368	,	0.72367406	,	2
9,11	,	62595	,	-25061	,	-22386	,	-0.16667604	,	1
9,11	,	62611	,	-25066	,	-22384	,	-0.91224223	,	0
9,11	,	62626	,	-25073	,	-22378	,	-1.8026898	,	0
9,11	,	62659	,	-25076	,	-22387	,	-3.0524242	,	0
9,11	,	62675	,	-25077	,	-22388	,	-4.6638184	,	0
9,11	,	62691	,	-25066	,	-22386	,	-6.3825793	,	0
9,11	,	62723	,	-25056	,	-22394	,	-7.7090607	,	0
9,11	,	62738	,	-25067	,	-22387	,	-8.16296	,	0
9,11	,	62755	,	-25052	,	-22385	,	-7.596442	,	0
9,11	,	62786	,	-25075	,	-22391	,	-6.212984	,	0
9,11	,	62802	,	-25087	,	-22373	,	-4.570558	,	1
9,11	,	62834	,	-25073	,	-22391	,	-3.3577414	,	2
9,11	,	62851	,	-25096	,	-22389	,	-2.9244657	,	3
9,11	,	62867	,	-25090	,	-22396	,	-3.3151956	,	3
9,11	,	62898	,	-25098	,	-22390	,	-4.4441204	,	3
9,11	,	62914	,	-25094	,	-22392	,	-6.0431333	,	3
9,11	,	62931	,	-25082	,	-22392	,	-7.6592064	,	3
9,11	,	62962	,	-25075	,	-22386	,	-8.701101	,	3
9,11	,	62978	,	-25084	,	-22381	,	-8.712814	,	3
9,11	,	63010	,	-25073	,	-22380	,	-7.655693	,	2
9,11	,	63027	,	-25067	,	-22393	,	-5.7346125	,	2
9,11	,	63043	,	-25080	,	-22382	,	-3.2227035	,	2
9,11	,	63074	,	-25065	,	-22381	,	-0.5156927	,	4
9,11	,	63090	,	-25057	,	-22383	,	2.0823774	,	6
9,12	,	63106	,	-25068	,	-22371	,	4.468128	,	8
9,12	,	63138	,	-25062	,	-22385	,	6.469948	,	10
9,12	,	63154	,	-25077	,	-22376	,	7.7999864	,	12
9,12	,	63170	,	-25073	,	-22375	,	8.207757	,	13
9,12	,	63202	,	-25069	,	-22380	,	7.645954	,	13
9,12	,	63218	,	-25053	,	-22372	,	6.4457893	,	12
9,12	,	63250	,	-25069	,	-22375	,	5.1466084	,	11
9,12	,	63266	,	-25090	,	-22387	,	3.934199	,	9
9,12	,	63282	,	-25095	,	-22370	,	2.440401	,	7
9,12	,	63314	,	-25079	,	-22375	,	0.3476758	,	5
9,12	,	63330	,	-25059	,	-22370	,	-1.9763293	,	3
9,12	,	63346	,	-25062	,	-22374	,	-3.6767564	,	1
9,12	,	63378	,	-25079	,	-22382	,	-4.2389283	,	0
9,12	,	63394	,	-25083	,	-22372	,	-3.9290729	,	0
9,12	,	63426	,	-25063	,	-22370	,	-3.278677	,	0
9,12	,	63442	,	-25054	,	-22381	,	-2.3944178	,	0
9,12	,	63458	,	-25080	,	-22377	,	-1.1646957	,	0
9,12	,	63490	,	-25085	,	-22375	,	0.09706926	,	1
9,12	,	63506	,	-25067	,	-22375	,	0.8718815	,	2
9,12	,	63522	,	-25075	,	-22378	,	1.073801	,	2
9,12	,	63554	,	-25088	,	-22378	,	0.86734444	,	2
9,12	,	63570	,	-25089	,	-22377	,	0.2258896	,	2
9,12	,	63586	,	-25078	,	-22373	,	-0.86496854	,	2
9,12	,	63618	,	-25085	,	-22374	,	-2.1376405	,	2
9,12	,	63634	,	-25092	,	-22381	,	-3.2999895	,	2
9,12	,	63666	,	-25107	,	-22372	,	-4.367219	,	2
9,12	,	63682	,	-25094	,	-22375	,	-5.5180345	,	1
9,12	,	63698	,	-25115	,	-22383	,	-6.787731	,	0
9,12	,	63730	,	-25102	,	-22377	,	-8.084766	,	0
9,12	,	63746	,	-25085	,	-22377	,	-9.139257	,	0
9,12	,	63762	,	-25098	,	-22377	,	-9.486452	,	0
9,12	,	63794	,	-25087	,	-22366	,	-8.87417	,	0
9,12	,	63810	,	-25100	,	-22373	,	-7.4471793	,	0
9,12	,	63842	,	-25092	,	-22366	,	-5.5651093	,	1
9,12	,	63858	,	-25054	,	-22366	,	-3.4053001	,	2
9,12	,	63874	,	-25088	,	-22370	,	-0.81312156	,	4
9,12	,	63906	,	-25074	,	-22367	,	2.1034234	,	6
9,12	,	63922	,	-25080	,	-22372	,	4.8203773	,	8
9,12	,	63938	,	-25079	,	-22360	,	6.894893	,	10
9,12	,	63970	,	-25085	,	-22368	,	8.08532	,	12
9,12	,	63986	,	-25076	,	-22362	,	8.325872	,	13
9,12	,	64002	,	-25090	,	-22378	,	7.732967	,	13
9,12	,	64034	,	-25091	,	-22352	,	6.4336414	,	12
9,12	,	64050	,	-25081	,	-22355	,	4.5789585	,	11
9,12	,	64082	,	-25085	,	-22358	,	2.5192149	,	9
9,13	,	64098	,	-25087	,	-22356	,	0.64807725	,	7
9,13	,	64114	,	-25082	,	-22354	,	-0.81718373	,	5
9,13	,	64146	,	-25084	,	-22353	,	-1.7829796	,	3
9,13	,	64162	,	-25100	,	-22357	,	-2.3117862	,	1
9,13	,	64178	,	-25078	,	-22352	,	-2.6049116	,	0
9,13	,	64210	,	-25089	,	-22353	,	-2.7217598	,	0
9,13	,	64226	,	-25084	,	-22353	,	-2.593874	,	0
9,13	,	64258	,	-25085	,	-22367	,	-2.2421565	,	0
9,13	,	64274	,	-25094	,	-22329	,	-1.7879959	,	0
9,13	,	64290	,	-25095	,	-22349	,	-1.4333572	,	0
9,13	,	64322	,	-25108	,	-22350	,	-1.4165632	,	0
9,13	,	64338	,	-25116	,	-22349	,	-1.9704787	,	0
9,13	,	64354	,	-25103	,	-22356	,	-3.1796641	,	0
9,13	,	64386	,	-25099	,	-22353	,	-4.72449	,	0
9,13	,	64402	,	-25106	,	-22359	,	-6.0551887	,	0
9,13	,	64418	,	-25089	,	-22364	,	-6.772422	,	0
9,13	,	64450	,	-25128	,	-22366	,	-6.8118715	,	0
9,13	,	64466	,	-25113	,	-22358	,	-6.539955	,	0
9,13	,	64498	,	-25105	,	-22364	,	-6.3273067	,	0
9,13	,	64514	,	-25111	,	-22342	,	-6.1081944	,	0
9,13	,	64530	,	-25112	,	-22354	,	-5.7175274	,	0
9,13	,	64562	,	-25102	,	-22356	,	-5.1326523	,	0
9,13	,	64578	,	-25102	,	-22356	,	-4.300383	,	0
9,13	,	64594	,	-25089	,	-22351	,	-3.1048186	,	0
9,13	,	64626	,	-25098	,	-22348	,	-1.4930806	,	1
9,13	,	64642	,	-25094	,	-22352	,	0.3852532	,	2
9,13	,	64674	,	-25082	,	-22346	,	2.2890184	,	3
9,13	,	64690	,	-25090	,	-22348	,	4.0989513	,	4
9,13	,	64706	,	-25090	,	-22343	,	5.688332	,	5
9,13	,	64738	,	-25075	,	-22354	,	6.896964	,	6
9,13	,	64754	,	-25077	,	-22334	,	7.7624097	,	7
9,13	,	64770	,	-25086	,	-22342	,	8.373716	,	7
9,13	,	64802	,	-25076	,	-22348	,	8.65295	,	7
9,13	,	64818	,	-25097	,	-22337	,	8.454544	,	6
9,13	,	64834	,	-25071	,	-22343	,	7.709238	,	5
9,13	,	64866	,	-25094	,	-22342	,	6.5299726	,	4
9,13	,	64881	,	-25077	,	-22342	,	5.121148	,	3
9,13	,	64914	,	-25089	,	-22346	,	3.6500876	,	2
9,13	,	64930	,	-25080	,	-22342	,	2.2664633	,	1
9,13	,	64946	,	-25078	,	-22340	,	1.1207888	,	0
9,13	,	64978	,	-25084	,	-22358	,	0.34070683	,	0
9,13	,	64994	,	-25083	,	-22340	,	-0.07844424	,	0
9,13	,	65010	,	-25070	,	-22351	,	-0.19705945	,	0
9,13	,	65042	,	-25078	,	-22353	,	0.015929013	,	0
9,13	,	65058	,	-25092	,	-22345	,	0.45442167	,	0
9,13	,	65089	,	-25083	,	-22340	,	0.77393353	,	0
9,14	,	65106	,	-25084	,	-22340	,	0.7600411	,	0
9,14	,	65122	,	-25091	,	-22353	,	0.45333737	,	0
9,14	,	65154	,	-25096	,	-22350	,	-0.11484885	,	0
9,14	,	65170	,	-25092	,	-22351	,	-0.96103597	,	0
9,14	,	65186	,	-25097	,	-22361	,	-2.0015085	,	0
9,14	,	65218	,	-25091	,	-22360	,	-3.060414	,	0
9,14	,	65234	,	-25095	,	-22338	,	-3.9497414	,	0
9,14	,	65250	,	-25097	,	-22348	,	-4.545008	,	0
9,14	,	65281	,	-25080	,	-22346	,	-4.760289	,	0
9,14	,	65298	,	-25085	,	-22348	,	-4.444438	,	0
9,14	,	65330	,	-25076	,	-22346	,	-3.4863853	,	0
9,14	,	65345	,	-25064	,	-22342	,	-1.8805478	,	0
9,14	,	65361	,	-25066	,	-22341	,	0.34513617	,	1
9,14	,	65393	,	-25066	,	-22335	,	3.0005107	,	3
9,14	,	65410	,	-25068	,	-22335	,	5.6657906	,	5
9,14	,	65426	,	-25064	,	-22330	,	7.898125	,	7
9,14	,	65458	,	-25056	,	-22332	,	9.464315	,	9
9,14	,	65474	,	-25056	,	-22321	,	10.391678	,	10
9,14	,	65506	,	-25050	,	-22329	,	10.830282	,	10
9,14	,	65522	,	-25043	,	-22323	,	10.965012	,	10
9,14	,	65538	,	-25056	,	-22327	,	10.931385	,	10
9,14	,	65570	,	-25040	,	-22327	,	10.7202835	,	9
9,14	,	65585	,	-25057	,	-22324	,	10.271538	,	7
9,14	,	65601	,	-25036	,	-22325	,	9.583649	,	5
9,14	,	65633	,	-25059	,	-22323	,	8.700947	,	3
9,14	,	65649	,	-25044	,	-22323	,	7.626941	,	1
9,14	,	65665	,	-25034	,	-22321	,	6.439559	,	0
9,14	,	65697	,	-25041	,	-22325	,	5.415944	,	0
9,14	,	65713	,	-25035	,	-22331	,	4.7579713	,	0
9,14	,	65745	,	-25051	,	-22315	,	4.385493	,	0
9,14	,	65762	,	-25057	,	-22322	,	3.9705822	,	0
9,14	,	65778	,	-25047	,	-22327	,	3.1691856	,	0
9,14	,	65810	,	-25051	,	-22323	,	1.9624798	,	0
9,14	,	65826	,	-25044	,	-22328	,	0.6227418	,	0
9,14	,	65842	,	-25050	,	-22330	,	-0.55683875	,	0
9,14	,	65874	,	-25066	,	-22318	,	-1.495097	,	0
9,14	,	65890	,	-25058	,	-22323	,	-2.3661559	,	0
9,14	,	65921	,	-25055	,	-22322	,	-3.2687662	,	0
9,14	,	65937	,	-25041	,	-22325	,	-3.975688	,	0
9,14	,	65953	,	-25059	,	-22338	,	-4.184205	,	0
9,14	,	65985	,	-25066	,	-22321	,	-3.948845	,	0
9,14	,	66001	,	-25048	,	-22329	,	-3.5783727	,	0
9,14	,	66017	,	-25044	,	-22318	,	-3.1087084	,	0
9,14	,	66049	,	-25032	,	-22313	,	-2.2537947	,	0
9,14	,	66065	,	-25040	,	-22304	,	-0.8049797	,	0
9,14	,	66081	,	-25028	,	-22314	,	1.1546721	,	1
9,15	,	66113	,	-25024	,	-22303	,	3.405742	,	2
9,15	,	66130	,	-25011	,	-22309	,	5.8216214	,	4
9,15	,	66161	,	-25025	,	-22297	,	8.283118	,	6
9,15	,	66177	,	-24991	,	-22299	,	10.605157	,	8
9,15	,	66193	,	-24994	,	-22309	,	12.785561	,	10
9,15	,	66225	,	-24989	,	-22285	,	14.941576	,	12
9,15	,	66242	,	-24988	,	-22287	,	16.970472	,	14
9,15	,	66257	,	-25006	,	-22292	,	18.50185	,	16
9,15	,	66289	,	-24995	,	-22285	,	19.055616	,	16
9,15	,	66305	,	-24992	,	-22290	,	18.404663	,	15
9,15	,	66337	,	-24990	,	-22255	,	16.774265	,	13
9,15	,	66353	,	-24981	,	-22279	,	14.61387	,	11
9,15	,	66369	,	-24969	,	-22276	,	12.445354	,	9
9,15	,	66401	,	-24964	,	-22276	,	10.801878	,	7
9,15	,	66417	,	-24953	,	-22279	,	10.058659	,	5
9,15	,	66433	,	-24942	,	-22289	,	10.367428	,	3
9,15	,	66465	,	-24963	,	-22262	,	11.573139	,	1
9,15	,	66481	,	-24974	,	-22280	,	13.009439	,	1
9,15	,	66497	,	-24965	,	-22282	,	13.777645	,	2
9,15	,	66529	,	-24982	,	-22280	,	13.336899	,	2
9,15	,	66545	,	-24952	,	-22278	,	11.70742	,	2
9,15	,	66577	,	-24958	,	-22275	,	9.427407	,	2
9,15	,	66593	,	-24949	,	-22274	,	7.2241645	,	2
9,15	,	66609	,	-24975	,	-22277	,	5.460679	,	2
9,15	,	66641	,	-24941	,	-22272	,	4.104906	,	2
9,15	,	66657	,	-24971	,	-22277	,	3.109388	,	2
9,15	,	66673	,	-24967	,	-22290	,	2.3574128	,	1
9,15	,	66705	,	-24972	,	-22263	,	1.5561124	,	0
9,15	,	66721	,	-24997	,	-22288	,	0.4007752	,	0
9,15	,	66753	,	-24973	,	-22281	,	-1.3137949	,	0
9,15	,	66769	,	-24946	,	-22281	,	-3.2548637	,	0
9,15	,	66785	,	-24970	,	-22280	,	-4.5675364	,	0
9,15	,	66817	,	-24966	,	-22281	,	-4.8182206	,	0
9,15	,	66833	,	-24947	,	-22271	,	-4.1606092	,	0
9,15	,	66849	,	-24966	,	-22263	,	-2.7952416	,	0
9,15	,	66881	,	-24924	,	-22265	,	-0.8508513	,	1
9,15	,	66897	,	-24922	,	-22259	,	1.7441483	,	2
9,15	,	66929	,	-24918	,	-22268	,	5.144932	,	4
9,15	,	66945	,	-24905	,	-22245	,	9.1799345	,	7
9,15	,	66961	,	-24936	,	-22256	,	13.280295	,	11
9,15	,	66993	,	-24881	,	-22249	,	16.780226	,	15
9,15	,	67009	,	-24904	,	-22251	,	19.446938	,	18
9,15	,	67025	,	-24886	,	-22248	,	21.391027	,	20
9,15	,	67057	,	-24879	,	-22238	,	22.674831	,	21
9,15	,	67073	,	-24891	,	-22243	,	23.32914	,	21
9,15	,	67089	,	-24890	,	-22248	,	23.23814	,	20
9,16	,	67121	,	-24906	,	-22243	,	22.117758	,	18
9,16	,	67137	,	-24882	,	-22233	,	19.858337	,	15
9,16	,	67169	,	-24878	,	-22249	,	16.847334	,	11
9,16	,	67185	,	-24878	,	-22227	,	13.791847	,	7
9,16	,	67201	,	-24872	,	-22240	,	11.219637	,	4
9,16	,	67233	,	-24899	,	-22240	,	9.22541	,	2
9,16	,	67249	,	-24861	,	-22238	,	7.6214457	,	1
9,16	,	67265	,	-24916	,	-22240	,	6.19886	,	0
9,16	,	67297	,	-24877	,	-22245	,	4.691208	,	0
9,16	,	67313	,	-24870	,	-22241	,	3.0907314	,	0
9,16	,	67345	,	-24871	,	-22242	,	1.9028432	,	0
9,16	,	67361	,	-24886	,	-22240	,	1.4505196	,	0
9,16	,	67377	,	-24895	,	-22232	,	1.4215498	,	0
9,16	,	67409	,	-24889	,	-22246	,	1.2705383	,	0
9,16	,	67425	,	-24892	,	-22231	,	0.7263064	,	0
9,16	,	67441	,	-24884	,	-22240	,	-0.113099754	,	0
9,16	,	67473	,	-24882	,	-22246	,	-0.96377707	,	0
9,16	,	67489	,	-24897	,	-22252	,	-1.606517	,	0
9,16	,	67505	,	-24892	,	-22252	,	-2.0751104	,	0
9,16	,	67537	,	-24900	,	-22249	,	-2.5278563	,	0
9,16	,	67553	,	-24906	,	-22249	,	-3.096637	,	0
9,16	,	67585	,	-24911	,	-22247	,	-3.9100895	,	0
9,16	,	67601	,	-24883	,	-22242	,	-4.8906536	,	0
9,16	,	67617	,	-24881	,	-22238	,	-5.5249333	,	0
9,16	,	67648	,	-24866	,	-22254	,	-5.162403	,	0
9,16	,	67665	,	-24889	,	-22227	,	-3.5821233	,	0
9,16	,	67681	,	-24863	,	-22232	,	-1.1214168	,	1
9,16	,	67713	,	-24858	,	-22235	,	1.8098879	,	3
9,16	,	67729	,	-24846	,	-22227	,	5.0659766	,	5
9,16	,	67761	,	-24846	,	-22222	,	8.544706	,	8
9,16	,	67777	,	-24843	,	-22226	,	11.9733305	,	11
9,16	,	67793	,	-24840	,	-22218	,	14.969564	,	14
9,16	,	67824	,	-24847	,	-22219	,	17.165243	,	16
9,16	,	67841	,	-24839	,	-22230	,	18.28688	,	18
9,16	,	67857	,	-24846	,	-22226	,	18.247322	,	19
9,16	,	67889	,	-24827	,	-22227	,	17.221504	,	18
9,16	,	67905	,	-24835	,	-22216	,	15.607955	,	16
9,16	,	67936	,	-24860	,	-22226	,	13.659229	,	14
9,16	,	67953	,	-24823	,	-22217	,	11.353649	,	11
9,16	,	67969	,	-24822	,	-22224	,	8.980082	,	8
9,16	,	68000	,	-24829	,	-22229	,	7.122949	,	5
9,16	,	68017	,	-24833	,	-22223	,	5.963246	,	3
9,16	,	68033	,	-24841	,	-22232	,	5.2081237	,	1
9,16	,	68065	,	-24838	,	-22230	,	4.471031	,	0
9,16	,	68080	,	-24832	,	-22227	,	3.5624056	,	0
9,17	,	68096	,	-24845	,	-22228	,	2.5154133	,	0
9,17	,	68128	,	-24859	,	-22221	,	1.2814059	,	0
9,17	,	68144	,	-24835	,	-22226	,	-0.25220585	,	0
9,17	,	68176	,	-24873	,	-22232	,	-2.0085816	,	0
9,17	,	68193	,	-24846	,	-22231	,	-3.8726525	,	0
9,17	,	68209	,	-24867	,	-22234	,	-5.72859	,	0
9,17	,	68240	,	-24869	,	-22227	,	-7.4304924	,	0
9,17	,	68256	,	-24856	,	-22232	,	-8.885718	,	0
9,17	,	68272	,	-24869	,	-22233	,	-9.926737	,	0
9,17	,	68304	,	-24871	,	-22238	,	-10.433773	,	0
9,17	,	68321	,	-24892	,	-22234	,	-10.594595	,	0
9,17	,	68352	,	-24888	,	-22237	,	-10.796511	,	0
9,17	,	68368	,	-24879	,	-22246	,	-11.219617	,	0
9,17	,	68384	,	-24871	,	-22255	,	-11.573315	,	0
9,17	,	68416	,	-24884	,	-22240	,	-11.429886	,	0
9,17	,	68432	,	-24865	,	-22236	,	-10.616163	,	0
9,17	,	68448	,	-24897	,	-22240	,	-9.2370615	,	0
9,17	,	68480	,	-24863	,	-22231	,	-7.5713983	,	1
9,17	,	68496	,	-24858	,	-22233	,	-5.6971774	,	2
9,17	,	68512	,	-24842	,	-22220	,	-3.3172312	,	3
9,17	,	68544	,	-24848	,	-22231	,	-0.2109654	,	5
9,17	,	68560	,	-24855	,	-22230	,	3.3612037	,	8
9,17	,	68592	,	-24848	,	-22237	,	6.7674246	,	11
9,17	,	68609	,	-24849	,	-22232	,	9.454369	,	14
9,17	,	68625	,	-24849	,	-22251	,	11.17092	,	16
9,17	,	68656	,	-24862	,	-22232	,	11.804017	,	17
9,17	,	68672	,	-24835	,	-22233	,	11.3821945	,	16
9,17	,	68688	,	-24852	,	-22231	,	10.238541	,	15
9,17	,	68720	,	-24840	,	-22230	,	8.7978735	,	14
9,17	,	68736	,	-24844	,	-22235	,	7.3300033	,	12
9,17	,	68768	,	-24839	,	-22232	,	6.0070634	,	9
9,17	,	68784	,	-24850	,	-22239	,	4.89092	,	6
9,17	,	68800	,	-24852	,	-22234	,	3.8676934	,	3
9,17	,	68832	,	-24855	,	-22237	,	2.7489924	,	1
9,17	,	68848	,	-24855	,	-22236	,	1.4440091	,	0
9,17	,	68864	,	-24860	,	-22252	,	-0.006725073	,	0
9,17	,	68896	,	-24869	,	-22222	,	-1.5555364	,	0
9,17	,	68913	,	-24877	,	-22244	,	-3.251371	,	0
9,17	,	68928	,	-24868	,	-22237	,	-5.1116147	,	0
9,17	,	68960	,	-24870	,	-22250	,	-6.9108944	,	0
9,17	,	68976	,	-24875	,	-22248	,	-8.31968	,	0
9,17	,	69008	,	-24885	,	-22252	,	-9.233585	,	0
9,17	,	69024	,	-24886	,	-22251	,	-9.805876	,	0
9,17	,	69040	,	-24913	,	-22253	,	-10.334938	,	0
9,17	,	69073	,	-24899	,	-22253	,	-11.147792	,	0
9,17	,	69088	,	-24890	,	-22257	,	-12.219752	,	0
9,18	,	69104	,	-24897	,	-22276	,	-13.081034	,	0
9,18	,	69136	,	-24906	,	-22243	,	-13.37327	,	0
9,18	,	69152	,	-24914	,	-22258	,	-13.186677	,	0
9,18	,	69184	,	-24911	,	-22255	,	-12.809378	,	0
9,18	,	69200	,	-24905	,	-22255	,	-12.358204	,	0
9,18	,	69216	,	-24911	,	-22260	,	-11.723225	,	0
9,18	,	69248	,	-24905	,	-22251	,	-10.795311	,	0
9,18	,	69264	,	-24889	,	-22256	,	-9.477103	,	0
9,18	,	69280	,	-24923	,	-22247	,	-7.7305317	,	1
9,18	,	69312	,	-24904	,	-22258	,	-5.856628	,	2
9,18	,	69328	,	-24901	,	-22261	,	-4.204319	,	3
9,18	,	69344	,	-24905	,	-22269	,	-2.7849648	,	4
9,18	,	69376	,	-24926	,	-22253	,	-1.6395423	,	5
9,18	,	69392	,	-24924	,	-22268	,	-1.1004049	,	6
9,18	,	69424	,	-24906	,	-22259	,	-1.3292278	,	6
9,18	,	69440	,	-24929	,	-22271	,	-2.046442	,	6
9,18	,	69456	,	-24925	,	-22267	,	-2.9766629	,	6
9,18	,	69488	,	-24922	,	-22269	,	-4.0211954	,	5
9,18	,	69504	,	-24922	,	-22264	,	-4.9885297	,	4
9,18	,	69520	,	-24914	,	-22270	,	-5.603534	,	3
9,18	,	69552	,	-24938	,	-22274	,	-5.759084	,	2
9,18	,	69568	,	-24933	,	-22277	,	-5.681696	,	1
9,18	,	69600	,	-24931	,	-22282	,	-5.6649637	,	0
9,18	,	69616	,	-24937	,	-22257	,	-5.7512827	,	0
9,18	,	69632	,	-24923	,	-22275	,	-5.813856	,	0
9,18	,	69664	,	-24931	,	-22270	,	-5.6714067	,	0
9,18	,	69680	,	-24966	,	-22277	,	-5.3828	,	0
9,18	,	69696	,	-24945	,	-22275	,	-5.4022083	,	0
9,18	,	69728	,	-24962	,	-22274	,	-6.0346775	,	0
9,18	,	69744	,	-24977	,	-22292	,	-7.2661543	,	0
9,18	,	69760	,	-24956	,	-22278	,	-9.000021	,	0
9,18	,	69792	,	-24996	,	-22291	,	-11.012612	,	0
9,18	,	69808	,	-24977	,	-22288	,	-13.109881	,	0
9,18	,	69840	,	-24992	,	-22300	,	-15.1436	,	0
9,18	,	69856	,	-25003	,	-22279	,	-16.927528	,	0
9,18	,	69872	,	-24997	,	-22294	,	-18.383568	,	0
9,18	,	69904	,	-25004	,	-22297	,	-19.427002	,	0
9,18	,	69920	,	-25019	,	-22298	,	-19.977058	,	0
9,18	,	69936	,	-24994	,	-22290	,	-20.038616	,	0
9,18	,	69968	,	-25004	,	-22291	,	-19.466549	,	0
9,18	,	69984	,	-25016	,	-22298	,	-18.138815	,	0
9,18	,	70016	,	-24982	,	-22293	,	-16.153982	,	1
9,18	,	70032	,	-24996	,	-22296	,	-13.505244	,	2
9,18	,	70048	,	-24971	,	-22298	,	-10.099403	,	4
9,18	,	70080	,	-24995	,	-22299	,	-6.0821657	,	7
9,19	,	70096	,	-24995	,	-22283	,	-1.9758945	,	11
9,19	,	70112	,	-24989	,	-22299	,	1.5320044	,	15
9,19	,	70144	,	-24998	,	-22307	,	4.0165453	,	18
9,19	,	70160	,	-25001	,	-22295	,	5.330604	,	20
9,19	,	70192	,	-24992	,	-22306	,	5.500069	,	21
9,19	,	70208	,	-24987	,	-22300	,	4.8415804	,	20
9,19	,	70224	,	-24978	,	-22306	,	3.9066403	,	19
9,19	,	70256	,	-25001	,	-22302	,	3.1145618	,	17
9,19	,	70272	,	-24994	,	-22310	,	2.4520645	,	14
9,19	,	70288	,	-24999	,	-22296	,	1.7003541	,	10
9,19	,	70320	,	-25022	,	-22318	,	0.6713098	,	6
9,19	,	70336	,	-25018	,	-22294	,	-0.881186	,	3
9,19	,	70368	,	-25022	,	-22299	,	-3.0621693	,	1
9,19	,	70384	,	-25033	,	-22310	,	-5.6731973	,	0
9,19	,	70400	,	-25009	,	-22299	,	-8.328826	,	0
9,19	,	70432	,	-25023	,	-22304	,	-10.482701	,	0
9,19	,	70448	,	-25028	,	-22298	,	-11.735333	,	0
9,19	,	70464	,	-24993	,	-22316	,	-11.964545	,	0
9,19	,	70495	,	-25024	,	-22314	,	-11.061831	,	0
9,19	,	70511	,	-25043	,	-22307	,	-9.320156	,	0
9,19	,	70544	,	-25027	,	-22318	,	-7.56868	,	1
9,19	,	70560	,	-25042	,	-22311	,	-6.389719	,	2
9,19	,	70576	,	-25003	,	-22315	,	-5.7202067	,	3
9,19	,	70608	,	-25044	,	-22313	,	-5.164747	,	3
9,19	,	70624	,	-25043	,	-22318	,	-4.643832	,	3
9,19	,	70640	,	-25026	,	-22314	,	-4.412898	,	3
9,19	,	70672	,	-25053	,	-22322	,	-4.517286	,	3
9,19	,	70688	,	-25003	,	-22312	,	-4.721038	,	3
9,19	,	70704	,	-25009	,	-22314	,	-4.4684057	,	3
9,19	,	70735	,	-25029	,	-22308	,	-3.2733736	,	2
9,19	,	70752	,	-25031	,	-22308	,	-1.441072	,	2
9,19	,	70784	,	-25026	,	-22318	,	0.30044293	,	2
9,19	,	70799	,	-25032	,	-22312	,	1.5165046	,	3
9,19	,	70815	,	-25036	,	-22293	,	2.0662348	,	4
9,19	,	70847	,	-25022	,	-22313	,	1.9788435	,	4
9,19	,	70863	,	-25030	,	-22314	,	1.5000396	,	4
9,19	,	70879	,	-25034	,	-22307	,	0.89061624	,	4
9,19	,	70912	,	-25026	,	-22311	,	0.25349826	,	4
9,19	,	70928	,	-25049	,	-22312	,	-0.41131335	,	4
9,19	,	70959	,	-25024	,	-22304	,	-1.1584649	,	3
9,19	,	70975	,	-25046	,	-22307	,	-1.9565178	,	2
9,19	,	70991	,	-25035	,	-22305	,	-2.713451	,	1
9,19	,	71023	,	-25035	,	-22311	,	-3.3638165	,	0
9,19	,	71039	,	-25048	,	-22326	,	-3.8440552	,	0
9,19	,	71055	,	-25038	,	-22303	,	-4.1788096	,	0
9,19	,	71088	,	-25039	,	-22314	,	-4.3836164	,	0
9,20	,	71104	,	-25044	,	-22306	,	-4.391385	,	0
9,20	,	71120	,	-25047	,	-22315	,	-4.234108	,	0
9,20	,	71151	,	-25039	,	-22305	,	-4.009886	,	0
9,20	,	71167	,	-25041	,	-22317	,	-3.7092428	,	0
9,20	,	71199	,	-25044	,	-22309	,	-3.2815356	,	0
9,20	,	71215	,	-25042	,	-22310	,	-2.7608986	,	0
9,20	,	71232	,	-25053	,	-22315	,	-2.262247	,	0
9,20	,	71263	,	-25049	,	-22318	,	-1.9447827	,	0
9,20	,	71279	,	-25056	,	-22322	,	-1.9245738	,	0
9,20	,	71295	,	-25067	,	-22312	,	-2.2752774	,	0
9,20	,	71327	,	-25068	,	-22321	,	-3.0986216	,	0
9,20	,	71343	,	-25051	,	-22319	,	-4.3157887	,	0
9,20	,	71375	,	-25067	,	-22315	,	-5.549449	,	0
9,20	,	71391	,	-25055	,	-22313	,	-6.4437475	,	0
9,20	,	71407	,	-25049	,	-22312	,	-6.7821074	,	0
9,20	,	71439	,	-25038	,	-22315	,	-6.321929	,	0
9,20	,	71455	,	-25034	,	-22311	,	-4.862685	,	0
9,20	,	71471	,	-25044	,	-22308	,	-2.493852	,	1
9,20	,	71503	,	-25028	,	-22310	,	0.37034512	,	3
9,20	,	71520	,	-25045	,	-22326	,	3.2322192	,	5
9,20	,	71536	,	-25012	,	-22295	,	5.755771	,	7
9,20	,	71567	,	-25037	,	-22308	,	7.848223	,	9
9,20	,	71583	,	-25044	,	-22305	,	9.348998	,	11
9,20	,	71615	,	-25045	,	-22308	,	9.8475895	,	12
9,20	,	71631	,	-25045	,	-22305	,	9.112204	,	12
9,20	,	71647	,	-25027	,	-22303	,	7.4184976	,	12
9,20	,	71679	,	-25018	,	-22307	,	5.4760118	,	11
9,20	,	71695	,	-25042	,	-22311	,	3.9445696	,	9
9,20	,	71711	,	-25041	,	-22306	,	2.8844905	,	7
9,20	,	71743	,	-25031	,	-22303	,	2.0081658	,	5
9,20	,	71759	,	-25041	,	-22318	,	1.2083966	,	3
9,20	,	71791	,	-25048	,	-22292	,	0.44677734	,	1
9,20	,	71807	,	-25054	,	-22302	,	-0.45821	,	0
9,20	,	71823	,	-25037	,	-22313	,	-1.588246	,	0
9,20	,	71855	,	-25043	,	-22312	,	-2.6982863	,	0
9,20	,	71871	,	-25076	,	-22304	,	-3.617098	,	0
9,20	,	71887	,	-25051	,	-22319	,	-4.5768375	,	0
9,20	,	71919	,	-25050	,	-22313	,	-5.656878	,	0
9,20	,	71935	,	-25051	,	-22311	,	-6.499171	,	0
9,20	,	71951	,	-25050	,	-22314	,	-6.7931757	,	0
9,20	,	71983	,	-25069	,	-22310	,	-6.581797	,	0
9,20	,	71999	,	-25061	,	-22332	,	-6.1840286	,	0
9,20	,	72031	,	-25051	,	-22301	,	-5.8166585	,	0
9,20	,	72047	,	-25075	,	-22314	,	-5.4576902	,	0
9,20	,	72063	,	-25063	,	-22314	,	-5.1698494	,	0
9,21	,	72095	,	-25064	,	-22318	,	-5.0375323	,	0
9,21	,	72111	,	-25066	,	-22327	,	-4.9589653	,	0
9,21	,	72127	,	-25066	,	-22315	,	-4.8171864	,	0
9,21	,	72159	,	-25057	,	-22316	,	-4.5358	,	0
9,21	,	72175	,	-25058	,	-22305	,	-3.991081	,	0
9,21	,	72207	,	-25061	,	-22311	,	-3.1218405	,	0
9,21	,	72223	,	-25063	,	-22306	,	-2.0574338	,	0
9,21	,	72239	,	-25051	,	-22317	,	-0.9766545	,	1
9,21	,	72271	,	-25050	,	-22301	,	0.106948614	,	2
9,21	,	72287	,	-25054	,	-22310	,	1.2451447	,	3
9,21	,	72303	,	-25043	,	-22311	,	2.3907883	,	4
9,21	,	72335	,	-25041	,	-22308	,	3.5149245	,	5
9,21	,	72351	,	-25050	,	-22298	,	4.6074524	,	6
9,21	,	72367	,	-25041	,	-22298	,	5.533121	,	7
9,21	,	72399	,	-25051	,	-22298	,	6.118185	,	7
9,21	,	72415	,	-25036	,	-22297	,	6.2967234	,	7
9,21	,	72447	,	-25044	,	-22304	,	6.1471376	,	6
9,21	,	72463	,	-25041	,	-22298	,	5.7897553	,	5
9,21	,	72479	,	-25018	,	-22304	,	5.3951516	,	4
9,21	,	72511	,	-25040	,	-22292	,	5.230408	,	3
9,21	,	72527	,	-25043	,	-22300	,	5.290139	,	2
9,21	,	72543	,	-25048	,	-22304	,	5.177002	,	1
9,21	,	72575	,	-25055	,	-22297	,	4.5104713	,	0
9,21	,	72591	,	-25054	,	-22305	,	3.1516972	,	0
9,21	,	72623	,	-25039	,	-22300	,	1.2935317	,	0
9,21	,	72639	,	-25051	,	-22308	,	-0.58491135	,	0
9,21	,	72655	,	-25069	,	-22298	,	-2.194128	,	0
9,21	,	72687	,	-25059	,	-22306	,	-3.6565082	,	0
9,21	,	72703	,	-25058	,	-22301	,	-5.0530562	,	0
9,21	,	72719	,	-25056	,	-22311	,	-6.176001	,	0
9,21	,	72751	,	-25057	,	-22306	,	-6.7863746	,	0
9,21	,	72767	,	-25068	,	-22304	,	-6.8512383	,	0
9,21	,	72783	,	-25058	,	-22313	,	-6.5411043	,	0
9,21	,	72815	,	-25087	,	-22311	,	-6.1352825	,	0
9,21	,	72831	,	-25055	,	-22313	,	-5.891638	,	0
9,21	,	72863	,	-25075	,	-22311	,	-5.8064623	,	0
9,21	,	72880	,	-25065	,	-22312	,	-5.695899	,	0
9,21	,	72895	,	-25078	,	-22309	,	-5.500826	,	0
9,21	,	72927	,	-25077	,	-22314	,	-5.3073974	,	0
9,21	,	72943	,	-25068	,	-22313	,	-5.1765127	,	0
9,21	,	72959	,	-25064	,	-22312	,	-4.968695	,	0
9,21	,	72991	,	-25060	,	-22315	,	-4.425688	,	0
9,21	,	73007	,	-25048	,	-22297	,	-3.3495836	,	0
9,21	,	73039	,	-25050	,	-22299	,	-1.64186	,	1
9,21	,	73055	,	-25058	,	-22296	,	0.5551102	,	2
9,21	,	73071	,	-25052	,	-22304	,	2.817606	,	4
9,22	,	73103	,	-25062	,	-22303	,	4.686716	,	6
9,22	,	73119	,	-25040	,	-22298	,	5.923994	,	7
9,22	,	73135	,	-25026	,	-22302	,	6.7234154	,	8
9,22	,	73167	,	-25040	,	-22300	,	7.5235415	,	8
9,22	,	73183	,	-25040	,	-22299	,	8.41892	,	8
9,22	,	73199	,	-25027	,	-22293	,	9.174539	,	8
9,22	,	73231	,	-25022	,	-22306	,	9.728514	,	7
9,22	,	73247	,	-25011	,	-22272	,	10.26275	,	6
9,22	,	73279	,	-25043	,	-22289	,	10.811487	,	4
9,22	,	73295	,	-25030	,	-22287	,	11.005596	,	2
9,22	,	73311	,	-25024	,	-22287	,	10.495541	,	1
9,22	,	73343	,	-25035	,	-22288	,	9.343305	,	0
9,22	,	73358	,	-25032	,	-22286	,	7.7429214	,	0
9,22	,	73374	,	-25029	,	-22277	,	5.8651276	,	0
9,22	,	73406	,	-25021	,	-22284	,	4.0016255	,	0
9,22	,	73423	,	-25022	,	-22291	,	2.5050576	,	0
9,22	,	73455	,	-25021	,	-22290	,	1.5838137	,	0
9,22	,	73471	,	-25033	,	-22303	,	1.1713172	,	0
9,22	,	73487	,	-25033	,	-22269	,	0.969689	,	0
9,22	,	73518	,	-25023	,	-22286	,	0.7235956	,	0
9,22	,	73535	,	-25044	,	-22282	,	0.35832852	,	0
9,22	,	73551	,	-25044	,	-22284	,	-0.24464303	,	0
9,22	,	73583	,	-25028	,	-22292	,	-1.1694796	,	0
9,22	,	73599	,	-25040	,	-22288	,	-2.1967497	,	0
9,22	,	73615	,	-25039	,	-22293	,	-3.0562985	,	0
9,22	,	73647	,	-25047	,	-22294	,	-3.709373	,	0
9,22	,	73662	,	-25040	,	-22288	,	-4.2218146	,	0
9,22	,	73695	,	-25035	,	-22285	,	-4.5538263	,	0
9,22	,	73711	,	-25025	,	-22301	,	-4.496868	,	0
9,22	,	73727	,	-25063	,	-22274	,	-3.988438	,	0
9,22	,	73758	,	-25061	,	-22290	,	-3.4903412	,	0
9,22	,	73775	,	-25037	,	-22284	,	-3.4968073	,	0
9,22	,	73790	,	-25054	,	-22296	,	-3.8832169	,	0
9,22	,	73822	,	-25029	,	-22281	,	-4.201761	,	0
9,22	,	73838	,	-25029	,	-22278	,	-4.0275545	,	0
9,22	,	73870	,	-25028	,	-22287	,	-3.0528378	,	0
9,22	,	73887	,	-25019	,	-22277	,	-1.2707781	,	0
9,22	,	73903	,	-25012	,	-22274	,	1.1371229	,	1
9,22	,	73935	,	-25027	,	-22283	,	3.8855906	,	3
9,22	,	73951	,	-25013	,	-22279	,	6.5138187	,	5
9,22	,	73966	,	-25002	,	-22262	,	8.685205	,	7
9,22	,	73998	,	-25016	,	-22272	,	10.355031	,	9
9,22	,	74014	,	-24991	,	-22275	,	11.540081	,	10
9,22	,	74046	,	-25001	,	-22267	,	12.314041	,	11
9,22	,	74063	,	-25008	,	-22266	,	12.726584	,	11
9,22	,	74079	,	-24988	,	-22266	,	12.699324	,	11
9,23	,	74111	,	-24995	,	-22268	,	12.293941	,	10
9,23	,	74128	,	-24987	,	-22262	,	11.713362	,	8
9,23	,	74142	,	-24990	,	-22266	,	11.078051	,	6
9,23	,	74174	,	-25017	,	-22268	,	10.272124	,	4
9,23	,	74190	,	-24996	,	-22265	,	8.960587	,	2
9,23	,	74206	,	-24976	,	-22250	,	7.1708055	,	1
9,23	,	74238	,	-25006	,	-22263	,	5.4203916	,	0
9,23	,	74254	,	-25005	,	-22265	,	3.9216628	,	0
9,23	,	74286	,	-24985	,	-22261	,	2.5391462	,	0
9,23	,	74302	,	-25012	,	-22259	,	1.3054936	,	0
9,23	,	74319	,	-24993	,	-22261	,	0.26174927	,	0
9,23	,	74350	,	-24992	,	-22272	,	-0.5810249	,	0
9,23	,	74366	,	-25002	,	-22278	,	-1.1040378	,	0
9,23	,	74382	,	-25008	,	-22262	,	-1.360306	,	0
9,23	,	74414	,	-24995	,	-22266	,	-1.5602865	,	0
9,23	,	74430	,	-25004	,	-22273	,	-1.7532802	,	0
9,23	,	74462	,	-25008	,	-22252	,	-1.9088993	,	0
9,23	,	74478	,	-25006	,	-22263	,	-2.0941348	,	0
9,23	,	74494	,	-25038	,	-22265	,	-2.5056825	,	0
9,23	,	74526	,	-25010	,	-22262	,	-3.397335	,	0
9,23	,	74542	,	-24999	,	-22261	,	-4.605046	,	0
9,23	,	74558	,	-25001	,	-22255	,	-5.454646	,	0
9,23	,	74590	,	-25006	,	-22254	,	-5.4709682	,	0
9,23	,	74606	,	-25005	,	-22246	,	-4.7189274	,	0
9,23	,	74622	,	-24973	,	-22242	,	-3.361761	,	0
9,23	,	74654	,	-24971	,	-22248	,	-1.2461283	,	1
9,23	,	74670	,	-24994	,	-22254	,	1.6867106	,	3
9,23	,	74702	,	-24961	,	-22241	,	4.9884543	,	5
9,23	,	74718	,	-24993	,	-22242	,	8.08882	,	8
9,23	,	74734	,	-24944	,	-22242	,	10.65422	,	11
9,23	,	74766	,	-24956	,	-22238	,	12.732647	,	13
9,23	,	74782	,	-24965	,	-22244	,	14.48225	,	15
9,23	,	74798	,	-24986	,	-22235	,	15.57046	,	16
9,23	,	74830	,	-24962	,	-22238	,	15.442864	,	17
9,23	,	74846	,	-24962	,	-22230	,	14.096569	,	16
9,23	,	74878	,	-24969	,	-22232	,	12.03359	,	14
9,23	,	74894	,	-24939	,	-22230	,	9.817659	,	12
9,23	,	74910	,	-24969	,	-22231	,	7.9328384	,	9
9,23	,	74942	,	-24957	,	-22234	,	6.5321717	,	6
9,23	,	74958	,	-24938	,	-22232	,	5.5452123	,	4
9,23	,	74974	,	-24966	,	-22233	,	5.004424	,	2
9,23	,	75006	,	-24958	,	-22233	,	4.7468596	,	1
9,23	,	75022	,	-24939	,	-22235	,	4.508361	,	0
9,23	,	75038	,	-24936	,	-22228	,	4.4270496	,	0
9,23	,	75070	,	-24974	,	-22234	,	4.6271725	,	0
9,23	,	75086	,	-24982	,	-22231	,	4.565795	,	0
9,24	,	75118	,	-24957	,	-22236	,	3.5815158	,	0
9,24	,	75134	,	-24949	,	-22233	,	1.8531108	,	0
9,24	,	75150	,	-24939	,	-22236	,	0.2362721	,	0
9,24	,	75182	,	-24976	,	-22247	,	-0.6985438	,	0
9,24	,	75198	,	-24996	,	-22223	,	-1.3056699	,	0
9,24	,	75214	,	-25000	,	-22243	,	-2.4968193	,	0
9,24	,	75246	,	-24950	,	-22237	,	-4.552642	,	0
9,24	,	75262	,	-24980	,	-22240	,	-6.685931	,	0
9,24	,	75294	,	-24952	,	-22229	,	-7.9694138	,	0
9,24	,	75310	,	-24965	,	-22237	,	-8.005209	,	0
9,24	,	75326	,	-24949	,	-22240	,	-6.793062	,	0
9,24	,	75358	,	-24965	,	-22243	,	-4.612997	,	1
9,24	,	75374	,	-24931	,	-22233	,	-1.8434095	,	3
9,24	,	75390	,	-24948	,	-22232	,	1.274421	,	5
9,24	,	75422	,	-24930	,	-22250	,	4.531972	,	8
9,24	,	75438	,	-24959	,	-22219	,	7.534828	,	11
9,24	,	75454	,	-24926	,	-22229	,	9.820673	,	14
9,24	,	75486	,	-24915	,	-22222	,	11.344748	,	16
9,24	,	75502	,	-24934	,	-22222	,	12.454147	,	17
9,24	,	75534	,	-24915	,	-22230	,	13.283882	,	18
9,24	,	75550	,	-24924	,	-22218	,	13.748844	,	17
9,24	,	75566	,	-24923	,	-22216	,	13.784842	,	15
9,24	,	75598	,	-24926	,	-22218	,	13.295244	,	13
9,24	,	75614	,	-24941	,	-22222	,	12.146917	,	10
9,24	,	75630	,	-24937	,	-22221	,	10.211352	,	7
9,24	,	75662	,	-24916	,	-22242	,	7.6443815	,	4
9,24	,	75678	,	-24930	,	-22207	,	5.015205	,	2
9,24	,	75710	,	-24949	,	-22232	,	2.7154965	,	1
9,24	,	75726	,	-24920	,	-22231	,	0.7106962	,	0
9,24	,	75742	,	-24949	,	-22224	,	-1.00354	,	0
9,24	,	75774	,	-24949	,	-22229	,	-2.450265	,	0
9,24	,	75790	,	-24957	,	-22228	,	-3.8756042	,	0
9,24	,	75806	,	-24956	,	-22236	,	-5.455009	,	0
9,24	,	75837	,	-24949	,	-22233	,	-7.0774627	,	0
9,24	,	75854	,	-24958	,	-22233	,	-8.4408655	,	0
9,24	,	75869	,	-24942	,	-22229	,	-9.254815	,	0
9,24	,	75902	,	-24947	,	-22249	,	-9.308298	,	0
9,24	,	75918	,	-24962	,	-22222	,	-8.604902	,	0
9,24	,	75949	,	-24974	,	-22237	,	-7.576025	,	0
9,24	,	75966	,	-24977	,	-22232	,	-6.86004	,	1
9,24	,	75981	,	-24935	,	-22233	,	-6.6398215	,	1
9,24	,	76013	,	-24955	,	-22223	,	-6.38264	,	1
9,24	,	76029	,	-24932	,	-22227	,	-5.4732513	,	1
9,24	,	76045	,	-24960	,	-22227	,	-3.7990217	,	1
9,24	,	76078	,	-24934	,	-22229	,	-1.6707511	,	2
9,25	,	76094	,	-24938	,	-22224	,	0.5847211	,	4
9,25	,	76126	,	-24931	,	-22220	,	2.833406	,	6
9,25	,	76141	,	-24896	,	-22237	,	5.1448298	,	8
9,25	,	76158	,	-24926	,	-22212	,	7.712811	,	9
9,25	,	76190	,	-24915	,	-22223	,	10.3847	,	11
9,25	,	76206	,	-24930	,	-22226	,	12.568854	,	13
9,25	,	76221	,	-24901	,	-22227	,	13.840101	,	15
9,25	,	76253	,	-24903	,	-22224	,	14.306231	,	16
9,25	,	76270	,	-24944	,	-22228	,	14.13829	,	15
9,25	,	76286	,	-24898	,	-22224	,	13.168022	,	13
9,25	,	76318	,	-24912	,	-22221	,	11.492281	,	11
9,25	,	76334	,	-24891	,	-22214	,	9.70393	,	9
9,25	,	76365	,	-24924	,	-22210	,	8.226556	,	7
9,25	,	76381	,	-24888	,	-22228	,	7.0781264	,	5
9,25	,	76398	,	-24895	,	-22208	,	6.2945194	,	3
9,25	,	76429	,	-24897	,	-22211	,	6.017173	,	1
9,25	,	76445	,	-24907	,	-22220	,	6.0991335	,	0
9,25	,	76461	,	-24918	,	-22213	,	6.064521	,	0
9,25	,	76493	,	-24908	,	-22212	,	5.4748015	,	0
9,25	,	76509	,	-24883	,	-22215	,	4.3952503	,	0
9,25	,	76541	,	-24891	,	-22206	,	3.4282262	,	0
9,25	,	76557	,	-24890	,	-22203	,	3.0633838	,	0
9,25	,	76573	,	-24912	,	-22197	,	3.1970787	,	0
9,25	,	76605	,	-24892	,	-22205	,	3.3715572	,	0
9,25	,	76621	,	-24915	,	-22207	,	3.2431746	,	0
9,25	,	76638	,	-24900	,	-22202	,	2.6769557	,	0
9,25	,	76669	,	-24927	,	-22208	,	1.6147065	,	0
9,25	,	76685	,	-24884	,	-22200	,	0.17402446	,	0
9,25	,	76701	,	-24894	,	-22196	,	-1.1333798	,	0
9,25	,	76733	,	-24877	,	-22194	,	-1.6517074	,	0
9,25	,	76750	,	-24876	,	-22200	,	-1.0328428	,	0
9,25	,	76781	,	-24859	,	-22189	,	0.75769776	,	0
9,25	,	76797	,	-24864	,	-22190	,	3.5522861	,	1
9,25	,	76813	,	-24853	,	-22187	,	6.9709983	,	3
9,25	,	76845	,	-24865	,	-22175	,	10.464638	,	6
9,25	,	76861	,	-24846	,	-22178	,	13.482156	,	9
9,25	,	76877	,	-24848	,	-22182	,	15.722227	,	12
9,25	,	76909	,	-24863	,	-22183	,	17.054615	,	14
9,25	,	76925	,	-24840	,	-22184	,	17.346762	,	15
9,25	,	76957	,	-24833	,	-22174	,	16.76514	,	15
9,25	,	76973	,	-24856	,	-22168	,	15.718266	,	15
9,25	,	76989	,	-24838	,	-22167	,	14.355662	,	14
9,25	,	77021	,	-24847	,	-22168	,	12.68413	,	12
9,25	,	77037	,	-24833	,	-22168	,	10.868439	,	9
9,25	,	77053	,	-24838	,	-22170	,	9.157324	,	6
9,25	,	77085	,	-24825	,	-22167	,	7.7754464	,	3
9,26	,	77101	,	-24829	,	-22167	,	6.883298	,	1
9,26	,	77117	,	-24850	,	-22175	,	6.395789	,	0
9,26	,	77149	,	-24844	,	-22160	,	5.8809824	,	0
9,26	,	77165	,	-24849	,	-22158	,	4.931882	,	0
9,26	,	77197	,	-24845	,	-22159	,	3.4955182	,	0
9,26	,	77213	,	-24851	,	-22160	,	1.756372	,	0
9,26	,	77229	,	-24848	,	-22166	,	-0.054615498	,	0
9,26	,	77261	,	-24852	,	-22170	,	-1.7331309	,	0
9,26	,	77277	,	-24854	,	-22168	,	-3.138982	,	0
9,26	,	77293	,	-24856	,	-22166	,	-4.2259283	,	0
9,26	,	77325	,	-24880	,	-22169	,	-5.122777	,	0
9,26	,	77341	,	-24881	,	-22170	,	-6.1805253	,	0
9,26	,	77373	,	-24871	,	-22185	,	-7.6225557	,	0
9,26	,	77389	,	-24865	,	-22152	,	-9.163034	,	0
9,26	,	77405	,	-24844	,	-22172	,	-10.142824	,	0
9,26	,	77437	,	-24842	,	-22153	,	-9.887655	,	0
9,26	,	77453	,	-24854	,	-22160	,	-8.142806	,	0
9,26	,	77469	,	-24865	,	-22164	,	-5.390332	,	1
9,26	,	77501	,	-24845	,	-22166	,	-2.45615	,	3
9,26	,	77517	,	-24836	,	-22163	,	0.23792028	,	5
9,26	,	77549	,	-24830	,	-22164	,	2.7781336	,	7
9,26	,	77565	,	-24835	,	-22162	,	5.2746797	,	9
9,26	,	77581	,	-24832	,	-22164	,	7.5779605	,	11
9,26	,	77613	,	-24851	,	-22183	,	9.326221	,	13
9,26	,	77629	,	-24841	,	-22149	,	10.107232	,	14
9,26	,	77645	,	-24839	,	-22167	,	9.772566	,	14
9,26	,	77677	,	-24839	,	-22173	,	8.575378	,	13
9,26	,	77694	,	-24842	,	-22167	,	6.9022403	,	11
9,26	,	77709	,	-24839	,	-22163	,	5.0598283	,	9
9,26	,	77741	,	-24844	,	-22169	,	3.2682753	,	7
9,26	,	77757	,	-24858	,	-22175	,	1.5889828	,	5
9,26	,	77789	,	-24856	,	-22173	,	-0.10561085	,	3
9,26	,	77805	,	-24849	,	-22176	,	-1.8698912	,	1
9,26	,	77821	,	-24862	,	-22180	,	-3.5409265	,	0
9,26	,	77853	,	-24858	,	-22199	,	-4.9666185	,	0
9,26	,	77869	,	-24883	,	-22173	,	-6.1949754	,	0
9,26	,	77885	,	-24864	,	-22192	,	-7.389361	,	0
9,26	,	77917	,	-24868	,	-22192	,	-8.510614	,	0
9,26	,	77933	,	-24863	,	-22194	,	-9.258966	,	0
9,26	,	77965	,	-24869	,	-22193	,	-9.408093	,	0
9,26	,	77981	,	-24872	,	-22204	,	-8.983122	,	0
9,26	,	77997	,	-24899	,	-22196	,	-8.31152	,	0
9,26	,	78029	,	-24881	,	-22207	,	-7.8971043	,	0
9,26	,	78045	,	-24894	,	-22209	,	-7.979016	,	0
9,26	,	78061	,	-24900	,	-22204	,	-8.477493	,	0
9,27	,	78093	,	-24901	,	-22225	,	-9.293478	,	0
9,27	,	78109	,	-24884	,	-22194	,	-10.211058	,	0
9,27	,	78125	,	-24879	,	-22208	,	-10.727947	,	0
9,27	,	78157	,	-24888	,	-22207	,	-10.375686	,	0
9,27	,	78173	,	-24917	,	-22208	,	-9.2673025	,	0
9,27	,	78205	,	-24870	,	-22217	,	-7.9276986	,	1
9,27	,	78221	,	-24888	,	-22208	,	-6.4962573	,	2
9,27	,	78237	,	-24891	,	-22210	,	-4.8289957	,	3
9,27	,	78268	,	-24882	,	-22214	,	-3.0480373	,	4
9,27	,	78284	,	-24899	,	-22215	,	-1.4193375	,	5
9,27	,	78301	,	-24895	,	-22211	,	-0.21609712	,	6
9,27	,	78333	,	-24892	,	-22230	,	0.37928843	,	7
9,27	,	78349	,	-24884	,	-22210	,	0.48711413	,	7
9,27	,	78381	,	-24881	,	-22224	,	0.447975	,	7
9,27	,	78397	,	-24907	,	-22223	,	0.44854206	,	6
9,27	,	78413	,	-24912	,	-22223	,	0.22135675	,	5
9,27	,	78445	,	-24918	,	-22229	,	-0.69045776	,	4
9,27	,	78461	,	-24918	,	-22220	,	-2.4341378	,	3
9,27	,	78477	,	-24931	,	-22224	,	-4.8150716	,	2
9,27	,	78509	,	-24907	,	-22229	,	-7.4357142	,	1
9,27	,	78525	,	-24917	,	-22234	,	-9.695615	,	0
9,27	,	78541	,	-24925	,	-22233	,	-11.10731	,	0
9,27	,	78573	,	-24927	,	-22248	,	-11.650326	,	0
9,27	,	78589	,	-24943	,	-22227	,	-11.642473	,	0
9,27	,	78621	,	-24935	,	-22240	,	-11.46055	,	0
9,27	,	78637	,	-24943	,	-22230	,	-11.314691	,	0
9,27	,	78653	,	-24932	,	-22239	,	-11.168845	,	0
9,27	,	78685	,	-24969	,	-22248	,	-10.99807	,	0
9,27	,	78701	,	-24949	,	-22242	,	-11.001066	,	0
9,27	,	78717	,	-24962	,	-22246	,	-11.310859	,	0
9,27	,	78749	,	-24937	,	-22253	,	-11.684584	,	0
9,27	,	78765	,	-24980	,	-22251	,	-11.802189	,	0
9,27	,	78796	,	-24964	,	-22243	,	-11.726578	,	0
9,27	,	78812	,	-24953	,	-22254	,	-11.614098	,	0
9,27	,	78828	,	-24931	,	-22245	,	-11.1254835	,	0
9,27	,	78861	,	-24979	,	-22249	,	-9.855505	,	0
9,27	,	78877	,	-24943	,	-22249	,	-8.020854	,	1
9,27	,	78893	,	-24944	,	-22238	,	-5.9797764	,	2
9,27	,	78925	,	-24924	,	-22250	,	-3.6537995	,	4
9,27	,	78940	,	-24937	,	-22246	,	-0.87820053	,	6
9,27	,	78956	,	-24963	,	-22248	,	2.022065	,	8
9,27	,	78988	,	-24953	,	-22252	,	4.238945	,	10
9,27	,	79005	,	-24925	,	-22253	,	5.328334	,	12
9,27	,	79037	,	-24966	,	-22258	,	5.541833	,	13
9,27	,	79053	,	-24936	,	-22253	,	5.13449	,	13
9,27	,	79069	,	-24946	,	-22251	,	4.2725997	,	12
9,28	,	79100	,	-24953	,	-22254	,	3.2278984	,	11
9,28	,	79116	,	-24956	,	-22257	,	2.0870817	,	9
9,28	,	79132	,	-24967	,	-22258	,	0.7362201	,	7
9,28	,	79164	,	-24994	,	-22270	,	-1.0567565	,	5
9,28	,	79180	,	-24953	,	-22254	,	-3.4417243	,	3
9,28	,	79213	,	-24954	,	-22264	,	-5.9392643	,	1
9,28	,	79229	,	-24988	,	-22267	,	-7.825473	,	0
9,28	,	79245	,	-24950	,	-22271	,	-8.911031	,	0
9,28	,	79276	,	-24970	,	-22261	,	-9.211306	,	0
9,28	,	79292	,	-24963	,	-22267	,	-8.702393	,	0
9,28	,	79308	,	-24966	,	-22269	,	-7.5654516	,	0
9,28	,	79340	,	-24960	,	-22269	,	-6.0518928	,	1
9,28	,	79356	,	-24982	,	-22268	,	-4.438635	,	2
9,28	,	79372	,	-25006	,	-22275	,	-3.283328	,	3
9,28	,	79405	,	-24979	,	-22277	,	-3.1883996	,	4
9,28	,	79420	,	-24998	,	-22276	,	-4.173593	,	4
9,28	,	79452	,	-24992	,	-22274	,	-5.77798	,	4
9,28	,	79468	,	-24991	,	-22276	,	-7.5164614	,	4
9,28	,	79484	,	-25001	,	-22284	,	-8.991537	,	4
9,28	,	79517	,	-24971	,	-22279	,	-9.878272	,	4
9,28	,	79533	,	-24997	,	-22282	,	-9.89282	,	3
9,28	,	79548	,	-24995	,	-22288	,	-9.058975	,	2
9,28	,	79581	,	-25012	,	-22268	,	-7.8626437	,	1
9,28	,	79597	,	-24976	,	-22276	,	-6.737157	,	1
9,28	,	79628	,	-24991	,	-22279	,	-5.6156473	,	2
9,28	,	79644	,	-24978	,	-22270	,	-4.227601	,	3
9,28	,	79660	,	-24979	,	-22273	,	-2.4934125	,	4
9,28	,	79692	,	-25006	,	-22273	,	-0.6296766	,	5
9,28	,	79709	,	-24979	,	-22275	,	0.9121089	,	6
9,28	,	79724	,	-24994	,	-22274	,	1.8715352	,	7
9,28	,	79756	,	-24985	,	-22278	,	2.3184357	,	7
9,28	,	79773	,	-24999	,	-22282	,	2.3376882	,	7
9,28	,	79804	,	-24988	,	-22287	,	1.9641718	,	6
9,28	,	79820	,	-25016	,	-22270	,	1.1984906	,	5
9,28	,	79836	,	-24982	,	-22282	,	0.055791855	,	4
9,28	,	79868	,	-25009	,	-22277	,	-1.2459698	,	3
9,28	,	79884	,	-25014	,	-22279	,	-2.5227962	,	2
9,28	,	79900	,	-25012	,	-22282	,	-3.8716946	,	1
9,28	,	79932	,	-24999	,	-22290	,	-5.2648473	,	0
9,28	,	79948	,	-25020	,	-22294	,	-6.4241138	,	0
9,28	,	79964	,	-25012	,	-22285	,	-7.221434	,	0
9,28	,	79996	,	-25029	,	-22283	,	-7.765264	,	0
9,28	,	80012	,	-25007	,	-22280	,	-8.150306	,	0
9,28	,	80044	,	-25032	,	-22296	,	-8.34479	,	0
9,28	,	80060	,	-25008	,	-22269	,	-8.298388	,	0
9,28	,	80076	,	-24999	,	-22286	,	-7.8457	,	0
9,29	,	80108	,	-25024	,	-22275	,	-6.7679853	,	0
9,29	,	80124	,	-25021	,	-22287	,	-5.2724915	,	1
9,29	,	80140	,	-25023	,	-22279	,	-3.8741841	,	2
9,29	,	80172	,	-25019	,	-22282	,	-2.8601453	,	3
9,29	,	80188	,	-25041	,	-22284	,	-2.3203037	,	4
9,29	,	80220	,	-25038	,	-22289	,	-2.4126363	,	4
9,29	,	80236	,	-25036	,	-22285	,	-3.2076974	,	4
9,29	,	80252	,	-25021	,	-22295	,	-4.3816833	,	4
9,29	,	80284	,	-25040	,	-22296	,	-5.4082627	,	4
9,29	,	80300	,	-25028	,	-22259	,	-6.0040073	,	4
9,29	,	80316	,	-25004	,	-22273	,	-6.004085	,	3
9,29	,	80348	,	-25007	,	-22284	,	-5.0631423	,	2
9,29	,	80364	,	-25002	,	-22278	,	-2.985978	,	1
9,29	,	80380	,	-25031	,	-22268	,	-0.16535854	,	2
9,29	,	80412	,	-25035	,	-22281	,	2.4680288	,	4
9,29	,	80428	,	-25019	,	-22274	,	4.0647135	,	6
9,29	,	80460	,	-25009	,	-22274	,	4.5429287	,	7
9,29	,	80476	,	-24978	,	-22279	,	4.5968585	,	7
9,29	,	80492	,	-25017	,	-22269	,	4.996796	,	7
9,29	,	80524	,	-25007	,	-22284	,	5.797823	,	7
9,29	,	80540	,	-25020	,	-22254	,	6.4468174	,	7
9,29	,	80556	,	-24995	,	-22265	,	6.5675864	,	7
9,29	,	80588	,	-24988	,	-22272	,	6.3514557	,	5
9,29	,	80604	,	-24990	,	-22266	,	6.2756453	,	3
9,29	,	80636	,	-25015	,	-22272	,	6.455432	,	1
9,29	,	80652	,	-25009	,	-22264	,	6.45381	,	0
9,29	,	80668	,	-25022	,	-22269	,	5.778882	,	0
9,29	,	80700	,	-25037	,	-22267	,	4.1648693	,	0
9,29	,	80717	,	-25021	,	-22272	,	1.5808635	,	0
9,29	,	80732	,	-25040	,	-22266	,	-1.6489255	,	0
9,29	,	80764	,	-25022	,	-22284	,	-4.9805675	,	0
9,29	,	80780	,	-25025	,	-22263	,	-7.837284	,	0
9,29	,	80796	,	-25015	,	-22269	,	-9.673696	,	0
9,29	,	80828	,	-25029	,	-22277	,	-10.224274	,	0
9,29	,	80844	,	-25044	,	-22274	,	-9.7523575	,	0
9,29	,	80876	,	-25038	,	-22280	,	-8.897356	,	0
9,29	,	80892	,	-25020	,	-22272	,	-8.055326	,	0
9,29	,	80908	,	-25041	,	-22282	,	-7.1614017	,	0
9,29	,	80940	,	-25043	,	-22280	,	-6.2185245	,	0
9,29	,	80956	,	-25054	,	-22288	,	-5.529724	,	0
9,29	,	80972	,	-25051	,	-22286	,	-5.375099	,	0
9,29	,	81004	,	-25055	,	-22285	,	-5.7763386	,	0
9,29	,	81020	,	-25052	,	-22270	,	-6.523385	,	0
9,29	,	81052	,	-25044	,	-22273	,	-7.2740664	,	0
9,29	,	81068	,	-25041	,	-22273	,	-7.633962	,	0
9,29	,	81084	,	-25029	,	-22273	,	-7.255309	,	0
9,30	,	81116	,	-25011	,	-22267	,	-5.8503256	,	0
9,30	,	81132	,	-25028	,	-22267	,	-3.308877	,	1
9,30	,	81148	,	-25027	,	-22271	,	-0.018653631	,	3
9,30	,	81180	,	-25013	,	-22277	,	3.3318315	,	6
9,30	,	81196	,	-25032	,	-22263	,	6.2326694	,	9
9,30	,	81212	,	-25011	,	-22275	,	8.378465	,	11
9,30	,	81244	,	-25038	,	-22283	,	9.584819	,	13
9,30	,	81260	,	-25021	,	-22257	,	9.760023	,	14
9,30	,	81292	,	-25034	,	-22265	,	8.940487	,	14
9,30	,	81308	,	-25032	,	-22257	,	7.328956	,	14
9,30	,	81324	,	-25025	,	-22259	,	5.2300305	,	13
9,30	,	81355	,	-25021	,	-22270	,	3.072743	,	11
9,30	,	81372	,	-25006	,	-22264	,	1.3751035	,	8
9,30	,	81388	,	-25014	,	-22271	,	0.5470779	,	5
9,30	,	81420	,	-25023	,	-22269	,	0.6075138	,	3
9,30	,	81436	,	-25024	,	-22269	,	1.1363401	,	1
9,30	,	81467	,	-25048	,	-22268	,	1.5260382	,	0
9,30	,	81484	,	-25024	,	-22263	,	1.2838691	,	0
9,30	,	81499	,	-25040	,	-22273	,	0.3492484	,	0
9,30	,	81532	,	-25046	,	-22264	,	-1.0514002	,	0
9,30	,	81548	,	-25035	,	-22266	,	-2.7257395	,	0
9,30	,	81564	,	-25061	,	-22274	,	-4.500754	,	0
9,30	,	81596	,	-25044	,	-22264	,	-6.256727	,	0
9,30	,	81612	,	-25043	,	-22271	,	-7.8071012	,	0
9,30	,	81628	,	-25028	,	-22267	,	-8.733145	,	0
9,30	,	81660	,	-25043	,	-22272	,	-8.672781	,	0
9,30	,	81676	,	-25070	,	-22274	,	-7.818494	,	0
9,30	,	81707	,	-25058	,	-22281	,	-6.906651	,	0
9,30	,	81724	,	-25047	,	-22269	,	-6.427415	,	0
9,30	,	81739	,	-25053	,	-22281	,	-6.217984	,	0
9,30	,	81772	,	-25043	,	-22257	,	-5.9125595	,	0
9,30	,	81788	,	-25049	,	-22257	,	-5.2875404	,	0
9,30	,	81803	,	-25036	,	-22260	,	-4.2621574	,	0
9,30	,	81835	,	-25025	,	-22262	,	-2.7708955	,	1
9,30	,	81851	,	-25017	,	-22257	,	-0.68079376	,	2
9,30	,	81883	,	-25017	,	-22255	,	2.0405784	,	4
9,30	,	81899	,	-24991	,	-22254	,	5.268441	,	6
9,30	,	81915	,	-25012	,	-22247	,	8.800931	,	9
9,30	,	81947	,	-24987	,	-22252	,	12.283487	,	12
9,30	,	81963	,	-24985	,	-22250	,	15.379529	,	15
9,30	,	81979	,	-25008	,	-22256	,	17.838535	,	18
9,30	,	82012	,	-25004	,	-22229	,	19.208038	,	20
9,30	,	82027	,	-24999	,	-22245	,	19.096235	,	20
9,30	,	82060	,	-25010	,	-22241	,	17.556126	,	19
9,30	,	82075	,	-25001	,	-22237	,	14.909935	,	17
9,31	,	82091	,	-24993	,	-22237	,	11.651732	,	15
9,31	,	82123	,	-24999	,	-22231	,	8.403586	,	12
9,31	,	82139	,	-25012	,	-22234	,	5.540228	,	9
9,31	,	82155	,	-25007	,	-22233	,	3.038813	,	6
9,31	,	82187	,	-25004	,	-22230	,	0.8324766	,	3
9,31	,	82203	,	-25002	,	-22222	,	-0.96062684	,	1
9,31	,	82235	,	-25019	,	-22232	,	-2.2583923	,	0
9,31	,	82251	,	-25009	,	-22200	,	-3.190415	,	0
9,31	,	82267	,	-24989	,	-22227	,	-3.7756736	,	0
9,31	,	82299	,	-25000	,	-22224	,	-3.740303	,	0
9,31	,	82315	,	-25017	,	-22220	,	-3.0502338	,	0
9,31	,	82331	,	-24998	,	-22221	,	-2.118311	,	0
9,31	,	82364	,	-25000	,	-22211	,	-1.2366647	,	0
9,31	,	82379	,	-25019	,	-22212	,	-0.48194218	,	0
9,31	,	82411	,	-25027	,	-22218	,	-0.14304525	,	0
9,31	,	82427	,	-24997	,	-22216	,	-0.4638129	,	0
9,31	,	82443	,	-24981	,	-22220	,	-1.0081742	,	0
9,31	,	82475	,	-24971	,	-22188	,	-0.8579399	,	0
9,31	,	82491	,	-24980	,	-22192	,	0.55350304	,	0
9,31	,	82507	,	-24980	,	-22199	,	3.020195	,	1
9,31	,	82539	,	-24973	,	-22194	,	5.8902946	,	3
9,31	,	82555	,	-24949	,	-22198	,	8.700686	,	5
9,31	,	82571	,	-24944	,	-22194	,	11.443256	,	7
9,31	,	82603	,	-24970	,	-22191	,	14.097509	,	9
9,31	,	82619	,	-24963	,	-22193	,	16.159899	,	11
9,31	,	82651	,	-24978	,	-22193	,	16.969395	,	13
9,31	,	82667	,	-24963	,	-22189	,	16.239351	,	13
9,31	,	82684	,	-24972	,	-22200	,	14.178797	,	13
9,31	,	82715	,	-24966	,	-22176	,	11.289181	,	12
9,31	,	82731	,	-24961	,	-22192	,	8.127235	,	10
9,31	,	82747	,	-24943	,	-22185	,	5.299505	,	8
9,31	,	82779	,	-24959	,	-22190	,	3.3464637	,	6
9,31	,	82795	,	-24951	,	-22184	,	2.404811	,	4
9,31	,	82827	,	-24965	,	-22182	,	2.1823943	,	2
9,31	,	82843	,	-24965	,	-22181	,	2.2156444	,	0
9,31	,	82859	,	-24985	,	-22199	,	2.010937	,	0
9,31	,	82891	,	-24967	,	-22193	,	1.2069665	,	0
9,31	,	82907	,	-24979	,	-22189	,	-0.18432796	,	0
9,31	,	82923	,	-24978	,	-22195	,	-1.8799506	,	0
9,31	,	82955	,	-24960	,	-22175	,	-3.5170004	,	0
9,31	,	82971	,	-24974	,	-22181	,	-4.669878	,	0
9,31	,	82987	,	-24964	,	-22174	,	-5.0821137	,	0
9,31	,	83019	,	-24975	,	-22189	,	-4.817902	,	0
9,31	,	83035	,	-24980	,	-22184	,	-4.1638403	,	0
9,31	,	83067	,	-24960	,	-22193	,	-3.4101472	,	0
9,31	,	83083	,	-24966	,	-22189	,	-2.5732265	,	0
9,32	,	83099	,	-24987	,	-22188	,	-1.6511608	,	0
9,32	,	83131	,	-24964	,	-22184	,	-0.9015341	,	0
9,32	,	83147	,	-24954	,	-22175	,	-0.3709849	,	0
9,32	,	83163	,	-24948	,	-22194	,	0.3281628	,	0
9,32	,	83195	,	-24949	,	-22164	,	1.5357088	,	0
9,32	,	83211	,	-24942	,	-22176	,	3.254581	,	1
9,32	,	83243	,	-24926	,	-22160	,	5.3576922	,	2
9,32	,	83259	,	-24911	,	-22164	,	7.855669	,	4
9,32	,	83275	,	-24926	,	-22164	,	10.74401	,	6
9,32	,	83307	,	-24914	,	-22164	,	13.679107	,	8
9,32	,	83323	,	-24916	,	-22170	,	16.151287	,	10
9,32	,	83339	,	-24925	,	-22168	,	17.767147	,	12
9,32	,	83371	,	-24916	,	-22159	,	18.259562	,	13
9,32	,	83387	,	-24906	,	-22160	,	17.649069	,	13
9,32	,	83403	,	-24915	,	-22162	,	16.276031	,	12
9,32	,	83435	,	-24901	,	-22146	,	14.509224	,	11
9,32	,	83451	,	-24895	,	-22158	,	12.7026415	,	9
9,32	,	83483	,	-24900	,	-22158	,	11.197178	,	7
9,32	,	83499	,	-24889	,	-22156	,	10.137119	,	5
9,32	,	83515	,	-24916	,	-22161	,	9.391754	,	3
9,32	,	83547	,	-24907	,	-22151	,	8.576088	,	1
9,32	,	83563	,	-24890	,	-22160	,	7.4351916	,	0
9,32	,	83579	,	-24910	,	-22155	,	6.130942	,	0
9,32	,	83611	,	-24908	,	-22168	,	4.809243	,	0
9,32	,	83627	,	-24900	,	-22156	,	3.4400923	,	0
9,32	,	83659	,	-24898	,	-22164	,	2.145517	,	0
9,32	,	83675	,	-24925	,	-22149	,	1.0367184	,	0
9,32	,	83691	,	-24930	,	-22159	,	-0.16367102	,	0
9,32	,	83723	,	-24921	,	-22165	,	-1.8136227	,	0
9,32	,	83739	,	-24901	,	-22165	,	-3.7180655	,	0
9,32	,	83755	,	-24916	,	-22158	,	-5.22942	,	0
9,32	,	83787	,	-24928	,	-22155	,	-6.0052266	,	0
9,32	,	83803	,	-24919	,	-22157	,	-6.2444754	,	0
9,32	,	83819	,	-24895	,	-22153	,	-6.070551	,	0
9,32	,	83851	,	-24900	,	-22153	,	-5.2035966	,	0
9,32	,	83867	,	-24874	,	-22144	,	-3.3307848	,	0
9,32	,	83899	,	-24901	,	-22140	,	-0.47264028	,	1
9,32	,	83915	,	-24887	,	-22144	,	2.884458	,	3
9,32	,	83931	,	-24871	,	-22142	,	6.148658	,	6
9,32	,	83963	,	-24877	,	-22139	,	9.081594	,	9
9,32	,	83979	,	-24863	,	-22138	,	11.625583	,	11
9,32	,	83995	,	-24865	,	-22145	,	13.708125	,	13
9,32	,	84027	,	-24862	,	-22135	,	15.270187	,	15
9,32	,	84043	,	-24865	,	-22137	,	16.209057	,	16
9,32	,	84075	,	-24859	,	-22136	,	16.419657	,	16
9,33	,	84091	,	-24864	,	-22142	,	15.889912	,	15
9,33	,	84107	,	-24865	,	-22132	,	14.672104	,	13
9,33	,	84139	,	-24868	,	-22135	,	12.841885	,	10
9,33	,	84155	,	-24857	,	-22137	,	10.586086	,	7
9,33	,	84171	,	-24876	,	-22123	,	8.1777115	,	5
9,33	,	84203	,	-24869	,	-22134	,	5.7638206	,	3
9,33	,	84219	,	-24871	,	-22132	,	3.4062042	,	1
9,33	,	84235	,	-24856	,	-22132	,	1.3131483	,	0
9,33	,	84267	,	-24853	,	-22130	,	-0.15204477	,	0
9,33	,	84283	,	-24871	,	-22137	,	-0.78210425	,	0
9,33	,	84315	,	-24870	,	-22132	,	-0.8156139	,	0
9,33	,	84331	,	-24857	,	-22129	,	-0.6417275	,	0
9,33	,	84347	,	-24858	,	-22132	,	-0.3539662	,	0
9,33	,	84379	,	-24863	,	-22131	,	0.10581884	,	0
9,33	,	84395	,	-24875	,	-22131	,	0.59728825	,	0
9,33	,	84410	,	-24860	,	-22123	,	0.85443574	,	0
9,33	,	84443	,	-24865	,	-22128	,	0.8181437	,	0
9,33	,	84459	,	-24841	,	-22123	,	0.74418426	,	0
9,33	,	84490	,	-24842	,	-22121	,	1.0625335	,	0
9,33	,	84507	,	-24842	,	-22125	,	2.0582578	,	0
9,33	,	84522	,	-24832	,	-22124	,	3.6630533	,	0
9,33	,	84555	,	-24832	,	-22117	,	5.640397	,	1
9,33	,	84571	,	-24835	,	-22122	,	7.708252	,	2
9,33	,	84587	,	-24845	,	-22120	,	9.448853	,	4
9,33	,	84619	,	-24834	,	-22117	,	10.435587	,	5
9,33	,	84634	,	-24819	,	-22127	,	10.610124	,	5
9,33	,	84666	,	-24831	,	-22105	,	10.303171	,	5
9,33	,	84683	,	-24823	,	-22116	,	9.79253	,	5
9,33	,	84698	,	-24829	,	-22118	,	9.140602	,	5
9,33	,	84730	,	-24817	,	-22113	,	8.383742	,	5
9,33	,	84746	,	-24818	,	-22118	,	7.6439457	,	4
9,33	,	84763	,	-24820	,	-22116	,	7.0410824	,	3
9,33	,	84795	,	-24810	,	-22108	,	6.6016197	,	1
9,33	,	84811	,	-24824	,	-22115	,	6.2911077	,	0
9,33	,	84826	,	-24829	,	-22117	,	5.9339747	,	0
9,33	,	84859	,	-24834	,	-22109	,	5.2127724	,	0
9,33	,	84874	,	-24797	,	-22124	,	4.0964518	,	0
9,33	,	84906	,	-24811	,	-22102	,	3.0883925	,	0
9,33	,	84922	,	-24806	,	-22110	,	2.6862252	,	0
9,33	,	84938	,	-24820	,	-22114	,	2.8582902	,	0
9,33	,	84970	,	-24820	,	-22119	,	3.193047	,	0
9,33	,	84986	,	-24827	,	-22115	,	3.245933	,	0
9,33	,	85002	,	-24823	,	-22116	,	2.7714434	,	0
9,33	,	85034	,	-24837	,	-22116	,	1.743472	,	0
9,33	,	85050	,	-24817	,	-22116	,	0.29399347	,	0
9,33	,	85083	,	-24823	,	-22114	,	-1.2316526	,	0
9,34	,	85098	,	-24810	,	-22107	,	-2.3760433	,	0
9,34	,	85114	,	-24805	,	-22125	,	-2.768183	,	0
9,34	,	85146	,	-24794	,	-22085	,	-2.1643884	,	0
9,34	,	85163	,	-24782	,	-22104	,	-0.4521544	,	0
9,34	,	85178	,	-24787	,	-22099	,	2.2751994	,	1
9,34	,	85210	,	-24793	,	-22098	,	5.5681067	,	3
9,34	,	85226	,	-24784	,	-22104	,	8.727291	,	6
9,34	,	85242	,	-24784	,	-22097	,	11.223932	,	9
9,34	,	85274	,	-24771	,	-22086	,	12.906399	,	11
9,34	,	85290	,	-24765	,	-22084	,	13.929762	,	12
9,34	,	85322	,	-24775	,	-22090	,	14.512624	,	13
9,34	,	85339	,	-24792	,	-22088	,	14.566488	,	13
9,34	,	85354	,	-24771	,	-22101	,	13.791288	,	13
9,34	,	85386	,	-24762	,	-22079	,	12.277459	,	12
9,34	,	85402	,	-24782	,	-22085	,	10.490176	,	10
9,34	,	85418	,	-24765	,	-22096	,	8.713476	,	7
9,34	,	85450	,	-24773	,	-22097	,	7.0504794	,	4
9,34	,	85466	,	-24775	,	-22086	,	5.581782	,	2
9,34	,	85498	,	-24758	,	-22082	,	4.3528256	,	1
9,34	,	85514	,	-24762	,	-22088	,	3.5068903	,	0
9,34	,	85530	,	-24779	,	-22087	,	3.0925996	,	0
9,34	,	85562	,	-24779	,	-22092	,	2.7853847	,	0
9,34	,	85578	,	-24786	,	-22083	,	2.1630287	,	0
9,34	,	85594	,	-24773	,	-22094	,	1.0938457	,	0
9,34	,	85626	,	-24783	,	-22079	,	-0.2341857	,	0
9,34	,	85642	,	-24797	,	-22099	,	-1.6412256	,	0
9,34	,	85658	,	-24784	,	-22101	,	-3.1267498	,	0
9,34	,	85690	,	-24793	,	-22100	,	-4.6110196	,	0
9,34	,	85706	,	-24795	,	-22096	,	-5.9103174	,	0
9,34	,	85738	,	-24772	,	-22100	,	-6.8257666	,	0
9,34	,	85754	,	-24772	,	-22096	,	-6.9988165	,	0
9,34	,	85770	,	-24774	,	-22097	,	-6.1362624	,	0
9,34	,	85802	,	-24754	,	-22088	,	-4.2710886	,	0
9,34	,	85818	,	-24761	,	-22083	,	-1.5803909	,	1
9,34	,	85834	,	-24757	,	-22091	,	1.6398909	,	3
9,34	,	85866	,	-24754	,	-22072	,	4.9290667	,	6
9,34	,	85882	,	-24757	,	-22083	,	7.8379917	,	9
9,34	,	85914	,	-24742	,	-22078	,	10.086212	,	11
9,34	,	85930	,	-24734	,	-22076	,	11.695217	,	13
9,34	,	85946	,	-24728	,	-22073	,	12.929115	,	14
9,34	,	85978	,	-24734	,	-22080	,	13.970495	,	15
9,34	,	85994	,	-24732	,	-22074	,	14.733182	,	16
9,34	,	86010	,	-24719	,	-22066	,	15.064959	,	15
9,34	,	86042	,	-24729	,	-22067	,	14.9681835	,	13
9,34	,	86058	,	-24722	,	-22066	,	14.482166	,	10
9,34	,	86074	,	-24737	,	-22072	,	13.556425	,	7
9,35	,	86106	,	-24731	,	-22055	,	12.100333	,	5
9,35	,	86122	,	-24730	,	-22066	,	10.127254	,	3
9,35	,	86154	,	-24724	,	-22069	,	7.873182	,	2
9,35	,	86170	,	-24726	,	-22074	,	5.6899247	,	1
9,35	,	86186	,	-24729	,	-22072	,	3.8266354	,	0
9,35	,	86218	,	-24738	,	-22073	,	2.3034387	,	0
9,35	,	86234	,	-24738	,	-22073	,	0.96425676	,	0
9,35	,	86250	,	-24731	,	-22076	,	-0.29377198	,	0
9,35	,	86282	,	-24741	,	-22077	,	-1.4147365	,	0
9,35	,	86298	,	-24742	,	-22079	,	-2.3591561	,	0
9,35	,	86330	,	-24735	,	-22088	,	-3.1420672	,	0
9,35	,	86346	,	-24747	,	-22078	,	-3.732464	,	0
9,35	,	86362	,	-24745	,	-22088	,	-4.151684	,	0
9,35	,	86394	,	-24743	,	-22082	,	-4.4671335	,	0
9,35	,	86410	,	-24742	,	-22089	,	-4.6411915	,	0
9,35	,	86426	,	-24745	,	-22092	,	-4.594005	,	0
9,35	,	86458	,	-24736	,	-22084	,	-4.2960405	,	0
9,35	,	86474	,	-24732	,	-22094	,	-3.6897798	,	0
9,35	,	86490	,	-24737	,	-22079	,	-2.7175796	,	0
9,35	,	86522	,	-24735	,	-22079	,	-1.4788325	,	0
9,35	,	86538	,	-24721	,	-22085	,	-0.12898803	,	1
9,35	,	86570	,	-24714	,	-22087	,	1.3688428	,	2
9,35	,	86586	,	-24713	,	-22082	,	3.1579504	,	3
9,35	,	86602	,	-24714	,	-22078	,	5.1947627	,	4
9,35	,	86634	,	-24714	,	-22081	,	7.19864	,	6
9,35	,	86650	,	-24707	,	-22083	,	8.867845	,	8
9,35	,	86666	,	-24707	,	-22075	,	10.057653	,	9
9,35	,	86698	,	-24720	,	-22072	,	10.6789665	,	10
9,35	,	86714	,	-24709	,	-22080	,	10.59309	,	10
9,35	,	86746	,	-24722	,	-22072	,	9.755573	,	9
9,35	,	86762	,	-24725	,	-22079	,	8.226571	,	8
9,35	,	86778	,	-24724	,	-22072	,	6.0935626	,	7
9,35	,	86810	,	-24716	,	-22088	,	3.6111102	,	6
9,35	,	86826	,	-24707	,	-22090	,	1.2704291	,	4
9,35	,	86842	,	-24721	,	-22081	,	-0.46384597	,	2
9,35	,	86874	,	-24727	,	-22072	,	-1.5221984	,	1
9,35	,	86889	,	-24733	,	-22081	,	-2.2204576	,	0
9,35	,	86905	,	-24742	,	-22082	,	-2.9505808	,	0
9,35	,	86938	,	-24726	,	-22087	,	-3.9097354	,	0
9,35	,	86954	,	-24737	,	-22082	,	-4.9652357	,	0
9,35	,	86986	,	-24730	,	-22084	,	-5.8448744	,	0
9,35	,	87002	,	-24730	,	-22082	,	-6.3615413	,	0
9,35	,	87018	,	-24741	,	-22097	,	-6.4597864	,	0
9,35	,	87050	,	-24735	,	-22093	,	-6.246709	,	0
9,35	,	87066	,	-24750	,	-22107	,	-5.9181595	,	0
9,35	,	87082	,	-24742	,	-22091	,	-5.661048	,	0
9,36	,	87114	,	-24750	,	-22095	,	-5.578802	,	0
9,36	,	87130	,	-24759	,	-22100	,	-5.715971	,	0
9,36	,	87162	,	-24763	,	-22107	,	-6.172167	,	0
9,36	,	87178	,	-24763	,	-22097	,	-7.0003133	,	0
9,36	,	87193	,	-24765	,	-22107	,	-8.0649	,	0
9,36	,	87225	,	-24750	,	-22107	,	-9.047207	,	0
9,36	,	87242	,	-24754	,	-22107	,	-9.527676	,	0
9,36	,	87258	,	-24739	,	-22101	,	-9.162201	,	0
9,36	,	87289	,	-24764	,	-22101	,	-7.8991647	,	0
9,36	,	87305	,	-24746	,	-22118	,	-6.0571322	,	1
9,36	,	87338	,	-24731	,	-22083	,	-3.944418	,	2
9,36	,	87354	,	-24725	,	-22106	,	-1.5017664	,	4
9,36	,	87369	,	-24748	,	-22100	,	1.2842965	,	6
9,36	,	87401	,	-24745	,	-22094	,	3.9383273	,	8
9,36	,	87417	,	-24734	,	-22100	,	5.894014	,	10
9,36	,	87433	,	-24752	,	-22097	,	6.940879	,	11
9,36	,	87465	,	-24743	,	-22096	,	7.057244	,	12
9,36	,	87482	,	-24743	,	-22101	,	6.32981	,	12
9,36	,	87497	,	-24741	,	-22109	,	5.054577	,	11
9,36	,	87530	,	-24726	,	-22114	,	3.6659312	,	10
9,36	,	87546	,	-24741	,	-22120	,	2.5781026	,	8
9,36	,	87578	,	-24752	,	-22093	,	1.8623054	,	6
9,36	,	87593	,	-24756	,	-22108	,	1.1645498	,	4
9,36	,	87610	,	-24764	,	-22109	,	0.08892584	,	2
9,36	,	87642	,	-24753	,	-22107	,	-1.4694058	,	1
9,36	,	87658	,	-24761	,	-22116	,	-3.2753406	,	0
9,36	,	87673	,	-24771	,	-22103	,	-5.0344353	,	0
9,36	,	87705	,	-24755	,	-22119	,	-6.592097	,	0
9,36	,	87721	,	-24760	,	-22111	,	-7.7390366	,	0
9,36	,	87753	,	-24772	,	-22108	,	-8.289172	,	0
9,36	,	87769	,	-24779	,	-22120	,	-8.403501	,	0
9,36	,	87785	,	-24778	,	-22133	,	-8.441306	,	0
9,36	,	87817	,	-24790	,	-22110	,	-8.641093	,	0
9,36	,	87834	,	-24791	,	-22122	,	-9.111073	,	0
9,36	,	87849	,	-24777	,	-22134	,	-9.782172	,	0
9,36	,	87882	,	-24797	,	-22133	,	-10.3849	,	0
9,36	,	87898	,	-24792	,	-22136	,	-10.753372	,	0
9,36	,	87913	,	-24794	,	-22131	,	-10.894714	,	0
9,36	,	87945	,	-24789	,	-22146	,	-10.757723	,	0
9,36	,	87961	,	-24801	,	-22138	,	-10.278479	,	0
9,36	,	87993	,	-24784	,	-22143	,	-9.482433	,	0
9,36	,	88009	,	-24784	,	-22141	,	-8.335243	,	0
9,36	,	88025	,	-24772	,	-22146	,	-6.689398	,	1
9,36	,	88057	,	-24786	,	-22121	,	-4.5090156	,	2
9,36	,	88073	,	-24784	,	-22137	,	-2.070872	,	4
9,37	,	88089	,	-24783	,	-22131	,	0.18032074	,	6
9,37	,	88121	,	-24773	,	-22134	,	1.9841473	,	8
9,37	,	88137	,	-24781	,	-22141	,	3.3353248	,	9
9,37	,	88169	,	-24786	,	-22142	,	4.2281017	,	10
9,37	,	88185	,	-24797	,	-22142	,	4.493963	,	10
9,37	,	88201	,	-24798	,	-22133	,	3.9230595	,	10
9,37	,	88233	,	-24787	,	-22133	,	2.5469995	,	9
9,37	,	88249	,	-24794	,	-22146	,	0.74426484	,	8
9,37	,	88265	,	-24805	,	-22150	,	-1.0960108	,	6
9,37	,	88297	,	-24795	,	-22129	,	-2.8236008	,	4
9,37	,	88313	,	-24817	,	-22145	,	-4.404811	,	2
9,37	,	88329	,	-24806	,	-22146	,	-5.8661537	,	1
9,37	,	88361	,	-24805	,	-22154	,	-7.166514	,	0
9,37	,	88377	,	-24816	,	-22150	,	-8.133833	,	0
9,37	,	88409	,	-24809	,	-22153	,	-8.685991	,	0
9,37	,	88425	,	-24815	,	-22154	,	-8.843262	,	0
9,37	,	88441	,	-24815	,	-22161	,	-8.647221	,	0
9,37	,	88473	,	-24841	,	-22159	,	-8.308054	,	0
9,37	,	88489	,	-24831	,	-22167	,	-8.215073	,	0
9,37	,	88505	,	-24824	,	-22169	,	-8.523661	,	0
9,37	,	88537	,	-24859	,	-22156	,	-9.090996	,	0
9,37	,	88553	,	-24838	,	-22167	,	-9.89471	,	0
9,37	,	88585	,	-24845	,	-22171	,	-10.87489	,	0
9,37	,	88601	,	-24838	,	-22163	,	-11.687433	,	0
9,37	,	88617	,	-24845	,	-22162	,	-12.002828	,	0
9,37	,	88649	,	-24845	,	-22173	,	-11.720664	,	0
9,37	,	88665	,	-24856	,	-22168	,	-10.974323	,	0
9,37	,	88681	,	-24860	,	-22178	,	-10.081472	,	0
9,37	,	88713	,	-24852	,	-22182	,	-9.3222065	,	0
9,37	,	88729	,	-24850	,	-22179	,	-8.6897745	,	0
9,37	,	88761	,	-24842	,	-22178	,	-7.9435906	,	0
9,37	,	88777	,	-24858	,	-22162	,	-6.9151425	,	0
9,37	,	88793	,	-24853	,	-22174	,	-5.7152605	,	1
9,37	,	88825	,	-24854	,	-22176	,	-4.5769343	,	2
9,37	,	88841	,	-24842	,	-22167	,	-3.5558376	,	3
9,37	,	88857	,	-24853	,	-22178	,	-2.5481193	,	4
9,37	,	88889	,	-24860	,	-22168	,	-1.5841281	,	5
9,37	,	88905	,	-24839	,	-22173	,	-0.8105285	,	5
9,37	,	88921	,	-24868	,	-22179	,	-0.2687918	,	5
9,37	,	88953	,	-24849	,	-22178	,	-0.013743341	,	5
9,37	,	88969	,	-24873	,	-22183	,	-0.16738847	,	5
9,37	,	89001	,	-24851	,	-22184	,	-0.7504772	,	4
9,37	,	89017	,	-24856	,	-22178	,	-1.5629836	,	3
9,37	,	89033	,	-24855	,	-22178	,	-2.2682192	,	2
9,37	,	89065	,	-24852	,	-22187	,	-2.6476436	,	1
9,37	,	89081	,	-24873	,	-22184	,	-2.7347074	,	0
9,38	,	89097	,	-24901	,	-22191	,	-2.966951	,	0
9,38	,	89129	,	-24880	,	-22190	,	-3.9611874	,	0
9,38	,	89145	,	-24856	,	-22193	,	-5.654678	,	0
9,38	,	89177	,	-24873	,	-22194	,	-7.2046833	,	0
9,38	,	89193	,	-24859	,	-22195	,	-7.9007063	,	0
9,38	,	89209	,	-24878	,	-22194	,	-7.6231575	,	0
9,38	,	89241	,	-24882	,	-22198	,	-6.717219	,	0
9,38	,	89257	,	-24872	,	-22198	,	-5.682	,	0
9,38	,	89273	,	-24877	,	-22195	,	-4.7670693	,	1
9,38	,	89305	,	-24936	,	-22199	,	-4.266391	,	1
9,38	,	89321	,	-24891	,	-22191	,	-4.7934055	,	1
9,38	,	89337	,	-24918	,	-22202	,	-6.5169716	,	1
9,38	,	89369	,	-24888	,	-22201	,	-8.821051	,	1
9,38	,	89385	,	-24896	,	-22198	,	-10.827689	,	1
9,38	,	89417	,	-24895	,	-22199	,	-11.865587	,	1
9,38	,	89433	,	-24903	,	-22198	,	-11.773602	,	1
9,38	,	89449	,	-24886	,	-22195	,	-10.749869	,	1
9,38	,	89481	,	-24890	,	-22194	,	-8.97028	,	1
9,38	,	89497	,	-24879	,	-22191	,	-6.554132	,	2
9,38	,	89513	,	-24877	,	-22194	,	-3.6584172	,	4
9,38	,	89545	,	-24894	,	-22192	,	-0.5826087	,	6
9,38	,	89561	,	-24891	,	-22193	,	2.1411161	,	9
9,38	,	89593	,	-24885	,	-22184	,	4.0376825	,	11
9,38	,	89609	,	-24886	,	-22185	,	5.018097	,	12
9,38	,	89625	,	-24902	,	-22189	,	5.177719	,	12
9,38	,	89657	,	-24881	,	-22189	,	4.603946	,	12
9,38	,	89673	,	-24884	,	-22193	,	3.5819676	,	11
9,38	,	89689	,	-24882	,	-22195	,	2.555139	,	10
9,38	,	89721	,	-24882	,	-22189	,	1.8050783	,	8
9,38	,	89737	,	-24885	,	-22189	,	1.3847958	,	6
9,38	,	89753	,	-24892	,	-22183	,	1.175361	,	3
9,38	,	89785	,	-24913	,	-22194	,	0.8472427	,	1
9,38	,	89801	,	-24884	,	-22187	,	0.06657666	,	0
9,38	,	89833	,	-24893	,	-22189	,	-1.0550714	,	0
9,38	,	89848	,	-24907	,	-22188	,	-2.1622875	,	0
9,38	,	89864	,	-24908	,	-22197	,	-3.2146575	,	0
9,38	,	89896	,	-24899	,	-22195	,	-4.3061485	,	0
9,38	,	89913	,	-24939	,	-22195	,	-5.4721394	,	0
9,38	,	89929	,	-24893	,	-22191	,	-6.7790656	,	0
9,38	,	89961	,	-24915	,	-22197	,	-8.002378	,	0
9,38	,	89977	,	-24921	,	-22206	,	-8.778104	,	0
9,38	,	90008	,	-24912	,	-22195	,	-9.084769	,	0
9,38	,	90024	,	-24937	,	-22191	,	-9.101291	,	0
9,38	,	90040	,	-24939	,	-22196	,	-9.125111	,	0
9,38	,	90072	,	-24917	,	-22197	,	-9.3778	,	0
9,39	,	90088	,	-24941	,	-22201	,	-9.694677	,	0
9,39	,	90105	,	-24919	,	-22199	,	-9.807114	,	0
9,39	,	90137	,	-24927	,	-22191	,	-9.52598	,	0
9,39	,	90153	,	-24916	,	-22197	,	-8.678011	,	0
9,39	,	90184	,	-24902	,	-22197	,	-7.1340322	,	0
9,39	,	90200	,	-24901	,	-22193	,	-4.789344	,	1
9,39	,	90216	,	-24901	,	-22212	,	-1.7185006	,	3
9,39	,	90248	,	-24908	,	-22186	,	1.6578379	,	6
9,39	,	90264	,	-24892	,	-22187	,	4.7976255	,	9
9,39	,	90280	,	-24895	,	-22194	,	7.3937364	,	12
9,39	,	90313	,	-24896	,	-22185	,	9.348862	,	14
9,39	,	90329	,	-24898	,	-22189	,	10.549443	,	15
9,39	,	90345	,	-24900	,	-22189	,	10.889345	,	16
9,39	,	90376	,	-24878	,	-22191	,	10.485447	,	16
9,39	,	90392	,	-24889	,	-22191	,	9.727062	,	15
9,39	,	90424	,	-24891	,	-22186	,	8.912904	,	13
9,39	,	90440	,	-24900	,	-22188	,	7.985948	,	10
9,39	,	90457	,	-24900	,	-22205	,	6.74574	,	7
9,39	,	90489	,	-24890	,	-22173	,	5.1640835	,	4
9,39	,	90504	,	-24895	,	-22184	,	3.4729052	,	2
9,39	,	90521	,	-24904	,	-22183	,	1.9075177	,	1
9,39	,	90552	,	-24901	,	-22188	,	0.49153495	,	0
9,39	,	90568	,	-24912	,	-22184	,	-0.85199964	,	0
9,39	,	90600	,	-24892	,	-22189	,	-2.111126	,	0
9,39	,	90616	,	-24913	,	-22195	,	-3.143306	,	0
9,39	,	90632	,	-24934	,	-22196	,	-4.0130625	,	0
9,39	,	90664	,	-24915	,	-22192	,	-5.0740294	,	0
9,39	,	90680	,	-24931	,	-22187	,	-6.44214	,	0
9,39	,	90696	,	-24909	,	-22209	,	-7.835251	,	0
9,39	,	90728	,	-24920	,	-22181	,	-8.83449	,	0
9,39	,	90744	,	-24923	,	-22196	,	-9.167604	,	0
9,39	,	90760	,	-24942	,	-22192	,	-8.9762745	,	0
9,39	,	90792	,	-24911	,	-22191	,	-8.585125	,	0
9,39	,	90808	,	-24894	,	-22201	,	-7.8677497	,	0
9,39	,	90840	,	-24904	,	-22193	,	-6.308798	,	0
9,39	,	90856	,	-24910	,	-22192	,	-3.8149242	,	1
9,39	,	90872	,	-24918	,	-22189	,	-0.9629555	,	3
9,39	,	90904	,	-24896	,	-22186	,	1.599277	,	5
9,39	,	90920	,	-24876	,	-22187	,	3.7808394	,	7
9,39	,	90936	,	-24889	,	-22193	,	5.9290433	,	9
9,39	,	90968	,	-24875	,	-22174	,	8.194015	,	11
9,39	,	90984	,	-24902	,	-22182	,	10.300046	,	13
9,39	,	91016	,	-24861	,	-22180	,	11.871936	,	15
9,39	,	91032	,	-24862	,	-22182	,	12.942097	,	16
9,39	,	91048	,	-24877	,	-22177	,	13.7929535	,	16
9,39	,	91080	,	-24871	,	-22174	,	14.346352	,	14
9,40	,	91096	,	-24866	,	-22179	,	14.345366	,	12
9,40	,	91112	,	-24871	,	-22180	,	13.759115	,	10
9,40	,	91144	,	-24881	,	-22183	,	12.614981	,	8
9,40	,	91160	,	-24866	,	-22177	,	10.917892	,	6
9,40	,	91176	,	-24865	,	-22174	,	8.8911915	,	4
9,40	,	91208	,	-24868	,	-22165	,	6.91838	,	2
9,40	,	91224	,	-24864	,	-22176	,	5.240206	,	1
9,40	,	91256	,	-24870	,	-22174	,	3.9130888	,	0
9,40	,	91272	,	-24873	,	-22174	,	2.8693206	,	0
9,40	,	91288	,	-24923	,	-22180	,	1.721097	,	0
9,40	,	91320	,	-24885	,	-22175	,	-0.159235	,	0
9,40	,	91336	,	-24886	,	-22174	,	-2.8146267	,	0
9,40	,	91352	,	-24876	,	-22180	,	-5.4587216	,	0
9,40	,	91384	,	-24878	,	-22180	,	-7.265729	,	0
9,40	,	91400	,	-24892	,	-22183	,	-7.941107	,	0
9,40	,	91432	,	-24917	,	-22182	,	-7.859277	,	0
9,40	,	91448	,	-24877	,	-22172	,	-7.6387396	,	0
9,40	,	91464	,	-24905	,	-22178	,	-7.437214	,	0
9,40	,	91496	,	-24900	,	-22179	,	-7.15209	,	0
9,40	,	91512	,	-24874	,	-22179	,	-6.725317	,	0
9,40	,	91528	,	-24888	,	-22184	,	-5.906252	,	0
9,40	,	91560	,	-24854	,	-22174	,	-4.377634	,	0
9,40	,	91576	,	-24857	,	-22171	,	-1.923739	,	1
9,40	,	91592	,	-24870	,	-22169	,	1.3904743	,	3
9,40	,	91624	,	-24853	,	-22169	,	5.021715	,	6
9,40	,	91640	,	-24867	,	-22166	,	8.323945	,	9
9,40	,	91672	,	-24870	,	-22163	,	10.794226	,	12
9,40	,	91688	,	-24860	,	-22161	,	12.082377	,	14
9,40	,	91704	,	-24879	,	-22162	,	12.115681	,	15
9,40	,	91736	,	-24854	,	-22162	,	11.06674	,	15
9,40	,	91752	,	-24838	,	-22161	,	9.466466	,	15
9,40	,	91768	,	-24842	,	-22163	,	8.127745	,	14
9,40	,	91800	,	-24834	,	-22162	,	7.57429	,	12
9,40	,	91816	,	-24836	,	-22151	,	7.8308845	,	9
9,40	,	91848	,	-24831	,	-22149	,	8.648212	,	6
9,40	,	91864	,	-24833	,	-22157	,	9.682015	,	3
9,40	,	91880	,	-24839	,	-22156	,	10.563584	,	2
9,40	,	91912	,	-24841	,	-22148	,	10.933085	,	1
9,40	,	91928	,	-24829	,	-22156	,	10.609844	,	1
9,40	,	91944	,	-24836	,	-22143	,	9.712564	,	1
9,40	,	91976	,	-24866	,	-22157	,	8.314175	,	1
9,40	,	91992	,	-24836	,	-22157	,	6.274565	,	1
9,40	,	92008	,	-24830	,	-22155	,	3.8210773	,	1
9,40	,	92040	,	-24836	,	-22149	,	1.6365883	,	1
9,40	,	92056	,	-24830	,	-22153	,	0.18652582	,	1
9,40	,	92088	,	-24842	,	-22159	,	-0.50789165	,	0
9,41	,	92104	,	-24829	,	-22155	,	-0.64170665	,	0
9,41	,	92120	,	-24836	,	-22152	,	-0.40709314	,	0
9,41	,	92152	,	-24873	,	-22148	,	-0.13305236	,	0
9,41	,	92168	,	-24844	,	-22156	,	-0.38027394	,	0
9,41	,	92184	,	-24844	,	-22142	,	-1.3131031	,	0
9,41	,	92216	,	-24838	,	-22148	,	-2.4501083	,	0
9,41	,	92232	,	-24845	,	-22150	,	-3.2655363	,	0
9,41	,	92264	,	-24834	,	-22154	,	-3.5255394	,	0
9,41	,	92280	,	-24826	,	-22145	,	-3.1294136	,	0
9,41	,	92296	,	-24823	,	-22155	,	-1.9919869	,	0
9,41	,	92328	,	-24820	,	-22148	,	-0.14977777	,	1
9,41	,	92344	,	-24811	,	-22141	,	2.2025063	,	2
9,41	,	92360	,	-24828	,	-22143	,	4.7439814	,	4
9,41	,	92391	,	-24819	,	-22144	,	7.003309	,	6
9,41	,	92408	,	-24808	,	-22153	,	8.62515	,	8
9,41	,	92441	,	-24844	,	-22126	,	9.475242	,	9
9,41	,	92455	,	-24803	,	-22140	,	9.442077	,	9
9,41	,	92473	,	-24814	,	-22131	,	8.709858	,	9
9,41	,	92503	,	-24809	,	-22136	,	7.7700443	,	9
9,41	,	92520	,	-24804	,	-22134	,	6.956206	,	8
9,41	,	92536	,	-24790	,	-22143	,	6.4801793	,	7
9,41	,	92568	,	-24786	,	-22133	,	6.5890827	,	5
9,41	,	92584	,	-24801	,	-22136	,	7.3218985	,	3
9,41	,	92600	,	-24788	,	-22131	,	8.347605	,	1
9,41	,	92631	,	-24791	,	-22132	,	9.266628	,	1
9,41	,	92647	,	-24802	,	-22147	,	9.8083515	,	1
9,41	,	92680	,	-24806	,	-22117	,	9.68405	,	1
9,41	,	92696	,	-24789	,	-22133	,	8.745453	,	1
9,41	,	92712	,	-24802	,	-22129	,	7.2190294	,	1
9,41	,	92744	,	-24792	,	-22142	,	5.475165	,	1
9,41	,	92759	,	-24796	,	-22127	,	3.7979598	,	1
9,41	,	92775	,	-24794	,	-22132	,	2.38128	,	1
9,41	,	92807	,	-24784	,	-22132	,	1.3616004	,	1
9,41	,	92823	,	-24803	,	-22140	,	0.79774153	,	0
9,41	,	92856	,	-24807	,	-22139	,	0.48973656	,	0
9,41	,	92872	,	-24805	,	-22133	,	0.062140405	,	0
9,41	,	92888	,	-24808	,	-22150	,	-0.67146873	,	0
9,41	,	92919	,	-24806	,	-22113	,	-1.6437715	,	0
9,41	,	92936	,	-24809	,	-22136	,	-2.6859822	,	0
9,41	,	92952	,	-24816	,	-22140	,	-3.667057	,	0
9,41	,	92983	,	-24817	,	-22137	,	-4.5706635	,	0
9,41	,	92999	,	-24823	,	-22143	,	-5.435676	,	0
9,41	,	93015	,	-24817	,	-22135	,	-6.2494836	,	0
9,41	,	93048	,	-24801	,	-22138	,	-6.8122826	,	0
9,41	,	93064	,	-24785	,	-22134	,	-6.653651	,	0
9,42	,	93095	,	-24789	,	-22127	,	-5.3033214	,	0
9,42	,	93112	,	-24793	,	-22128	,	-2.7735212	,	1
9,42	,	93127	,	-24783	,	-22143	,	0.42184854	,	3
9,42	,	93159	,	-24781	,	-22109	,	3.7287686	,	6
9,42	,	93176	,	-24784	,	-22129	,	6.7558274	,	9
9,42	,	93192	,	-24778	,	-22110	,	9.188829	,	12
9,42	,	93223	,	-24777	,	-22114	,	10.842632	,	14
9,42	,	93240	,	-24782	,	-22116	,	11.674299	,	15
9,42	,	93271	,	-24774	,	-22121	,	11.709169	,	15
9,42	,	93287	,	-24780	,	-22116	,	11.067667	,	15
9,42	,	93303	,	-24778	,	-22125	,	9.923646	,	14
9,42	,	93336	,	-24772	,	-22117	,	8.459648	,	12
9,42	,	93352	,	-24765	,	-22109	,	6.960151	,	9
9,42	,	93368	,	-24757	,	-22121	,	5.803053	,	6
9,42	,	93399	,	-24771	,	-22101	,	5.2186923	,	3
9,42	,	93415	,	-24766	,	-22118	,	5.081736	,	1
9,42	,	93431	,	-24755	,	-22113	,	5.1393723	,	0
9,42	,	93463	,	-24771	,	-22103	,	5.272854	,	0
9,42	,	93479	,	-24764	,	-22110	,	5.341531	,	0
9,42	,	93512	,	-24775	,	-22116	,	5.126506	,	0
9,42	,	93527	,	-24773	,	-22107	,	4.4744635	,	0
9,42	,	93544	,	-24761	,	-22109	,	3.4273326	,	0
9,42	,	93575	,	-24780	,	-22113	,	2.2100356	,	0
9,42	,	93591	,	-24791	,	-22112	,	0.88082504	,	0
9,42	,	93607	,	-24788	,	-22122	,	-0.74764216	,	0
9,42	,	93640	,	-24787	,	-22108	,	-2.6954908	,	0
9,42	,	93655	,	-24788	,	-22117	,	-4.6834745	,	0
9,42	,	93687	,	-24789	,	-22119	,	-6.3785458	,	0
9,42	,	93703	,	-24781	,	-22125	,	-7.52691	,	0
9,42	,	93719	,	-24794	,	-22123	,	-7.9934916	,	0
9,42	,	93751	,	-24795	,	-22125	,	-7.877263	,	0
9,42	,	93767	,	-24788	,	-22124	,	-7.4145117	,	0
9,42	,	93783	,	-24777	,	-22116	,	-6.6625185	,	0
9,42	,	93815	,	-24776	,	-22117	,	-5.461906	,	0
9,42	,	93831	,	-24771	,	-22113	,	-3.702103	,	1
9,42	,	93847	,	-24780	,	-22120	,	-1.5132675	,	2
9,42	,	93879	,	-24780	,	-22104	,	0.7400601	,	4
9,42	,	93895	,	-24767	,	-22112	,	2.6998174	,	6
9,42	,	93927	,	-24752	,	-22110	,	4.3483543	,	7
9,42	,	93943	,	-24773	,	-22106	,	5.8701425	,	8
9,42	,	93959	,	-24762	,	-22109	,	7.198182	,	9
9,42	,	93991	,	-24752	,	-22105	,	8.147945	,	10
9,42	,	94007	,	-24750	,	-22103	,	8.792792	,	10
9,42	,	94023	,	-24763	,	-22100	,	9.249818	,	9
9,42	,	94055	,	-24761	,	-22113	,	9.385738	,	8
9,42	,	94071	,	-24761	,	-22104	,	9.004833	,	6
9,43	,	94103	,	-24779	,	-22104	,	8.007553	,	4
9,43	,	94119	,	-24759	,	-22115	,	6.3732457	,	3
9,43	,	94135	,	-24758	,	-22094	,	4.3596373	,	2
9,43	,	94167	,	-24764	,	-22101	,	2.445987	,	1
9,43	,	94183	,	-24755	,	-22102	,	0.95543957	,	0
9,43	,	94199	,	-24771	,	-22109	,	-0.042879105	,	0
9,43	,	94231	,	-24753	,	-22099	,	-0.6288606	,	0
9,43	,	94247	,	-24776	,	-22098	,	-0.9306539	,	0
9,43	,	94279	,	-24770	,	-22103	,	-1.1483139	,	0
9,43	,	94295	,	-24779	,	-22104	,	-1.5250161	,	0
9,43	,	94311	,	-24765	,	-22102	,	-2.1271653	,	0
9,43	,	94343	,	-24776	,	-22103	,	-2.798452	,	0
9,43	,	94359	,	-24769	,	-22116	,	-3.356208	,	0
9,43	,	94375	,	-24769	,	-22097	,	-3.6897545	,	0
9,43	,	94407	,	-24768	,	-22104	,	-3.7181878	,	0
9,43	,	94423	,	-24772	,	-22103	,	-3.4335215	,	0
9,43	,	94439	,	-24784	,	-22105	,	-2.9949532	,	0
9,43	,	94471	,	-24785	,	-22111	,	-2.7072337	,	0
9,43	,	94487	,	-24766	,	-22104	,	-2.7248282	,	0
9,43	,	94519	,	-24762	,	-22099	,	-2.7691872	,	0
9,43	,	94535	,	-24764	,	-22098	,	-2.4031572	,	0
9,43	,	94551	,	-24767	,	-22101	,	-1.5045804	,	0
9,43	,	94583	,	-24758	,	-22105	,	-0.25566125	,	0
9,43	,	94599	,	-24754	,	-22086	,	1.180883	,	1
9,43	,	94615	,	-24752	,	-22089	,	2.7498531	,	2
9,43	,	94647	,	-24754	,	-22098	,	4.346815	,	3
9,43	,	94663	,	-24761	,	-22094	,	5.7282343	,	4
9,43	,	94695	,	-24755	,	-22099	,	6.61401	,	5
9,43	,	94711	,	-24759	,	-22088	,	6.8711257	,	5
9,43	,	94727	,	-24749	,	-22101	,	6.5790043	,	5
9,43	,	94759	,	-24755	,	-22094	,	5.9468126	,	5
9,43	,	94775	,	-24746	,	-22089	,	5.1961074	,	5
9,43	,	94791	,	-24752	,	-22090	,	4.4948273	,	4
9,43	,	94823	,	-24759	,	-22103	,	3.8721604	,	3
9,43	,	94839	,	-24757	,	-22084	,	3.19917	,	2
9,43	,	94855	,	-24749	,	-22097	,	2.4167178	,	1
9,43	,	94887	,	-24762	,	-22087	,	1.6221664	,	0
9,43	,	94903	,	-24765	,	-22098	,	0.822085	,	0
9,43	,	94935	,	-24763	,	-22093	,	-0.10115075	,	0
9,43	,	94951	,	-24776	,	-22096	,	-1.2129488	,	0
9,43	,	94967	,	-24780	,	-22087	,	-2.5678124	,	0
9,43	,	94999	,	-24769	,	-22100	,	-4.15728	,	0
9,43	,	95015	,	-24780	,	-22096	,	-5.7515135	,	0
9,43	,	95031	,	-24780	,	-22095	,	-7.0907397	,	0
9,43	,	95063	,	-24771	,	-22106	,	-8.028469	,	0
9,43	,	95079	,	-24778	,	-22098	,	-8.428515	,	0
9,44	,	95110	,	-24778	,	-22100	,	-8.246693	,	0
9,44	,	95126	,	-24812	,	-22103	,	-7.7702684	,	0
9,44	,	95143	,	-24792	,	-22109	,	-7.547364	,	0
9,44	,	95175	,	-24779	,	-22105	,	-7.7540503	,	0
9,44	,	95191	,	-24793	,	-22107	,	-7.9792147	,	0
9,44	,	95207	,	-24781	,	-22105	,	-7.835848	,	0
9,44	,	95239	,	-24774	,	-22094	,	-7.166271	,	0
9,44	,	95254	,	-24762	,	-22105	,	-5.79311	,	0
9,44	,	95270	,	-24773	,	-22098	,	-3.6312654	,	1
9,44	,	95303	,	-24775	,	-22097	,	-0.96995616	,	3
9,44	,	95319	,	-24769	,	-22096	,	1.6502428	,	5
9,44	,	95351	,	-24772	,	-22091	,	3.8213205	,	7
9,44	,	95367	,	-24774	,	-22093	,	5.3409367	,	9
9,44	,	95383	,	-24769	,	-22094	,	6.1266828	,	10
9,44	,	95414	,	-24771	,	-22098	,	6.2420516	,	10
9,44	,	95430	,	-24771	,	-22090	,	5.8378944	,	10
9,44	,	95446	,	-24767	,	-22092	,	5.079832	,	10
9,44	,	95479	,	-24776	,	-22092	,	4.132806	,	9
9,44	,	95495	,	-24778	,	-22091	,	3.067794	,	7
9,44	,	95526	,	-24763	,	-22089	,	1.9327686	,	5
9,44	,	95542	,	-24766	,	-22100	,	0.9484416	,	3
9,44	,	95558	,	-24771	,	-22111	,	0.34262168	,	1
9,44	,	95591	,	-24771	,	-22082	,	0.09630567	,	0
9,44	,	95607	,	-24769	,	-22099	,	0.05447188	,	0
9,44	,	95623	,	-24768	,	-22102	,	0.11386564	,	0
9,44	,	95654	,	-24778	,	-22093	,	0.19103457	,	0
9,44	,	95670	,	-24774	,	-22101	,	0.15046243	,	0
9,44	,	95686	,	-24787	,	-22095	,	-0.14905432	,	0
9,44	,	95719	,	-24777	,	-22104	,	-0.7773978	,	0
9,44	,	95735	,	-24777	,	-22100	,	-1.6267623	,	0
9,44	,	95766	,	-24788	,	-22106	,	-2.484758	,	0
9,44	,	95782	,	-24793	,	-22106	,	-3.3126636	,	0
9,44	,	95800	,	-24793	,	-22122	,	-4.218708	,	0
9,44	,	95830	,	-24796	,	-22096	,	-5.2197647	,	0
9,44	,	95846	,	-24807	,	-22106	,	-6.2688746	,	0
9,44	,	95862	,	-24804	,	-22107	,	-7.366621	,	0
9,44	,	95895	,	-24806	,	-22111	,	-8.462798	,	0
9,44	,	95911	,	-24811	,	-22109	,	-9.411821	,	0
9,44	,	95943	,	-24811	,	-22108	,	-10.097468	,	0
9,44	,	95958	,	-24798	,	-22094	,	-10.400417	,	0
9,44	,	95974	,	-24801	,	-22105	,	-10.112741	,	0
9,44	,	96007	,	-24797	,	-22108	,	-9.0969305	,	0
9,44	,	96022	,	-24794	,	-22097	,	-7.414999	,	1
9,44	,	96039	,	-24793	,	-22112	,	-5.2515354	,	2
9,44	,	96070	,	-24791	,	-22079	,	-2.8427677	,	4
9,44	,	96086	,	-24785	,	-22105	,	-0.4110589	,	6
9,45	,	96118	,	-24790	,	-22099	,	1.8712194	,	8
9,45	,	96134	,	-24784	,	-22094	,	3.8351464	,	10
9,45	,	96151	,	-24795	,	-22110	,	5.3030543	,	11
9,45	,	96183	,	-24796	,	-22098	,	6.086843	,	12
9,45	,	96199	,	-24788	,	-22094	,	6.087519	,	12
9,45	,	96214	,	-24792	,	-22104	,	5.4517155	,	11
9,45	,	96246	,	-24805	,	-22098	,	4.396055	,	10
9,45	,	96262	,	-24803	,	-22102	,	2.9666557	,	8
9,45	,	96278	,	-24803	,	-22114	,	1.197079	,	6
9,45	,	96310	,	-24802	,	-22090	,	-0.7020142	,	4
9,45	,	96326	,	-24813	,	-22093	,	-2.4841666	,	2
9,45	,	96358	,	-24803	,	-22100	,	-4.0202127	,	1
9,45	,	96375	,	-24813	,	-22102	,	-5.235843	,	0
9,45	,	96390	,	-24814	,	-22108	,	-6.103304	,	0
9,45	,	96422	,	-24813	,	-22101	,	-6.6674747	,	0
9,45	,	96438	,	-24813	,	-22101	,	-6.944687	,	0
9,45	,	96454	,	-24814	,	-22108	,	-6.907463	,	0
9,45	,	96486	,	-24814	,	-22113	,	-6.5675125	,	0
9,45	,	96502	,	-24837	,	-22111	,	-6.093788	,	0
9,45	,	96534	,	-24825	,	-22119	,	-5.821418	,	0
9,45	,	96550	,	-24823	,	-22105	,	-5.9003086	,	0
9,45	,	96566	,	-24831	,	-22108	,	-6.149467	,	0
9,45	,	96598	,	-24827	,	-22107	,	-6.3763833	,	0
9,45	,	96615	,	-24841	,	-22113	,	-6.543792	,	0
9,45	,	96630	,	-24835	,	-22111	,	-6.7100015	,	0
9,45	,	96662	,	-24844	,	-22113	,	-6.929617	,	0
9,45	,	96678	,	-24824	,	-22113	,	-7.119342	,	0
9,45	,	96694	,	-24839	,	-22106	,	-7.0574455	,	0
9,45	,	96726	,	-24828	,	-22111	,	-6.5922847	,	0
